time,ecg,hr,rr,marker
1748369969740563569,-0.091,87,607
1748369969748251178,-0.081
1748369969755938787,-0.07200000000000001
1748369969763626396,-0.062
1748369969771314005,-0.038
1748369969779001614,-0.028
1748369969786689223,-0.05
1748369969794376832,-0.067
1748369969802064441,-0.064
1748369969809752050,-0.06
1748369969817439659,-0.057
1748369969825127268,-0.052000000000000005
1748369969832814877,-0.055
1748369969840502486,-0.067
1748369969848190095,-0.113
1748369969855877704,-0.137
1748369969863565313,0.129
1748369969871252922,0.786
1748369969878940531,1.238
1748369969886628140,0.86
1748369969894315749,-0.031
1748369969902003358,-0.466
1748369969909690967,-0.257
1748369969917378576,-0.149
1748369969925066185,-0.226
1748369969932753794,-0.146
1748369969940441403,-0.064
1748369969948129012,-0.093
1748369969955816621,-0.08600000000000001
1748369969963504230,-0.048
1748369969971191839,-0.045
1748369969978879448,-0.045
1748369969986567057,-0.026000000000000002
1748369969994254666,-0.016
1748369970001942275,-0.014
1748369970009629884,-0.004
1748369970017317493,0.004
1748369970025005102,0.014
1748369970032692711,0.024
1748369970040380320,0.033
1748369970048067929,0.045
1748369970055755538,0.06
1748369970063443147,0.07200000000000001
1748369970071130756,0.084
1748369970078818365,0.091
1748369970086505974,0.101
1748369970094193583,0.108
1748369970101881192,0.113
1748369970109568801,0.113
1748369970117256410,0.115
1748369970124944019,0.115
1748369970132631628,0.115
1748369970140319237,0.115
1748369970148006846,0.105
1748369970155694455,0.084
1748369970163382064,0.052000000000000005
1748369970171069673,0.021
1748369970178757282,-0.016
1748369970186444891,-0.048
1748369970194132500,-0.069
1748369970201820109,-0.081
1748369970209507718,-0.091
1748369970217195327,-0.098
1748369970224882936,-0.098
1748369970232570545,-0.098
1748369970240258154,-0.096
1748369970247945763,-0.093
1748369970255633372,-0.093
1748369970263320981,-0.093
1748369970271008590,-0.096
1748369970278696199,-0.096
1748369970286383808,-0.096
1748369970294071417,-0.101
1748369970301759075,-0.108
1748369970309446684,-0.117
1748369970317134293,-0.122
1748369970324821902,-0.12
1748369970332509511,-0.105
1748369970340197120,-0.091
1748369970347884729,-0.081
1748369970355572338,-0.064
1748369970363259947,-0.045
1748369970370947556,-0.055
1748369970378635165,-0.079
1748369970386322774,-0.08600000000000001
1748369970394010383,-0.081
1748369970401697992,-0.079
1748369970409385601,-0.079
1748369970417073210,-0.07200000000000001
1748369970424760819,-0.074
1748369970432448428,-0.10300000000000001
1748369970440136037,-0.163
1748369970447823646,-0.08600000000000001
1748369970455511255,0.394
1748369970463198864,1.036
1748369970470886473,1.096
1748369970478574082,0.34600000000000003
1748369970486261691,-0.394
1748369970493949300,-0.399
1748369970501636909,-0.17300000000000001
1748369970509324518,-0.209
1748369970517012127,-0.194
1748369970524699736,-0.074
1748369970532387345,-0.076
1748369970540074954,-0.10300000000000001
1748369970547762563,-0.062
1748369970555450172,-0.045
1748369970563137781,-0.052000000000000005
1748369970570825390,-0.036000000000000004
1748369970578512999,-0.019
1748369970586200608,-0.016
1748369970593888217,-0.009000000000000001
1748369970601575826,0.0
1748369970609263435,0.007
1748369970616951044,0.014
1748369970624638653,0.026000000000000002
1748369970632326262,0.036000000000000004
1748369970640013871,0.045
1748369970647701480,0.055
1748369970655389089,0.064
1748369970663076698,0.074
1748369970670764307,0.081
1748369970678451916,0.08600000000000001
1748369970686139525,0.093
1748369970693827134,0.091
1748369970701514743,0.088
1748369970709202352,0.088
1748369970716889961,0.088
1748369970724577570,0.091
1748369970732265179,0.088
1748369970739952788,0.069
1748369970747640397,0.043000000000000003
1748369970755328006,0.019
1748369970763015615,-0.009000000000000001
1748369970770703224,-0.04
1748369970778390833,-0.067
1748369970786078442,-0.08600000000000001
1748369970793766051,-0.098
1748369970801453660,-0.10300000000000001
1748369970809141269,-0.10300000000000001
1748369970816828878,-0.10300000000000001
1748369970824516487,-0.101
1748369970832204096,-0.098
1748369970839891705,-0.101
1748369970847579314,-0.101
1748369970855266923,-0.101
1748369970862954577,-0.101,90,600
1748369970870642186,-0.101,,598
1748369970878329795,-0.098
1748369970886017404,-0.096
1748369970893705013,-0.098
1748369970901392622,-0.10300000000000001
1748369970909080231,-0.108
1748369970916767840,-0.115
1748369970924455449,-0.12
1748369970932143058,-0.12
1748369970939830667,-0.115
1748369970947518276,-0.10300000000000001
1748369970955205885,-0.091
1748369970962893494,-0.084
1748369970970581103,-0.067
1748369970978268712,-0.048
1748369970985956321,-0.057
1748369970993643930,-0.08600000000000001
1748369971001331539,-0.084
1748369971009019148,-0.07200000000000001
1748369971016706757,-0.079
1748369971024394366,-0.07200000000000001
1748369971032081975,-0.06
1748369971039769584,-0.069
1748369971047457193,-0.101
1748369971055144802,-0.132
1748369971062832411,0.033
1748369971070520020,0.581
1748369971078207629,1.074
1748369971085895238,0.8290000000000001
1748369971093582847,-0.002
1748369971101270456,-0.492
1748369971108958065,-0.322
1748369971116645674,-0.165
1748369971124333283,-0.226
1748369971132020892,-0.153
1748369971139708501,-0.062
1748369971147396110,-0.088
1748369971155083719,-0.08600000000000001
1748369971162771328,-0.043000000000000003
1748369971170458937,-0.04
1748369971178146546,-0.045
1748369971185834155,-0.026000000000000002
1748369971193521764,-0.016
1748369971201209373,-0.016
1748369971208896982,-0.009000000000000001
1748369971216584591,-0.002
1748369971224272200,0.002
1748369971231959809,0.009000000000000001
1748369971239647418,0.019
1748369971247335027,0.024
1748369971255022636,0.031
1748369971262710245,0.04
1748369971270397854,0.048
1748369971278085463,0.055
1748369971285773072,0.062
1748369971293460681,0.07200000000000001
1748369971301148290,0.074
1748369971308835899,0.079
1748369971316523508,0.081
1748369971324211117,0.08600000000000001
1748369971331898726,0.093
1748369971339586335,0.101
1748369971347273944,0.093
1748369971354961553,0.076
1748369971362649162,0.052000000000000005
1748369971370336771,0.019
1748369971378024380,-0.016
1748369971385711989,-0.048
1748369971393399598,-0.074
1748369971401087207,-0.096
1748369971408774816,-0.105
1748369971416462425,-0.11
1748369971424150079,-0.115
1748369971431837688,-0.115
1748369971439525297,-0.115
1748369971447212906,-0.115
1748369971454900515,-0.117
1748369971462588124,-0.12
1748369971470275733,-0.12
1748369971477963342,-0.122
1748369971485650951,-0.122
1748369971493338560,-0.122
1748369971501026169,-0.122
1748369971508713778,-0.122
1748369971516401387,-0.122
1748369971524088996,-0.127
1748369971531776605,-0.137
1748369971539464214,-0.14100000000000001
1748369971547151823,-0.14400000000000002
1748369971554839432,-0.14100000000000001
1748369971562527041,-0.132
1748369971570214650,-0.12
1748369971577902259,-0.117
1748369971585589868,-0.098
1748369971593277477,-0.074
1748369971600965086,-0.08600000000000001
1748369971608652695,-0.11
1748369971616340304,-0.11
1748369971624027913,-0.10300000000000001
1748369971631715522,-0.105
1748369971639403131,-0.101
1748369971647090740,-0.093
1748369971654778349,-0.105
1748369971662465958,-0.14400000000000002
1748369971670153567,-0.158
1748369971677841176,0.101
1748369971685528785,0.714
1748369971693216394,1.086
1748369971700904003,0.639
1748369971708591612,-0.218
1748369971716279221,-0.555
1748369971723966830,-0.319
1748369971731654439,-0.209
1748369971739342048,-0.257
1748369971747029657,-0.161
1748369971754717266,-0.08600000000000001
1748369971762404875,-0.115
1748369971770092484,-0.105
1748369971777780093,-0.067
1748369971785467702,-0.064
1748369971793155311,-0.062
1748369971800842920,-0.045
1748369971808530529,-0.04
1748369971816218138,-0.036000000000000004
1748369971823905747,-0.021
1748369971831593356,-0.009000000000000001
1748369971839280965,-0.002
1748369971846968574,0.002
1748369971854656183,0.016
1748369971862343792,0.024
1748369971870031401,0.028
1748369971877719010,0.038
1748369971885406619,0.05
1748369971893094228,0.062
1748369971900781837,0.07200000000000001
1748369971908469446,0.079
1748369971916157055,0.081
1748369971923844664,0.088
1748369971931532273,0.098
1748369971939219882,0.10300000000000001
1748369971946907491,0.108
1748369971954595100,0.113
1748369971962282709,0.105
1748369971969970318,0.081
1748369971977657927,0.045
1748369971985345581,0.009000000000000001,93,590
1748369971993033190,-0.024,,588
1748369972000720799,-0.06
1748369972008408408,-0.088
1748369972016096017,-0.108
1748369972023783626,-0.12
1748369972031471235,-0.117
1748369972039158844,-0.117
1748369972046846453,-0.125
1748369972054534062,-0.129
1748369972062221671,-0.125
1748369972069909280,-0.122
1748369972077596889,-0.127
1748369972085284498,-0.132
1748369972092972107,-0.129
1748369972100659716,-0.129
1748369972108347325,-0.129
1748369972116034934,-0.129
1748369972123722543,-0.132
1748369972131410152,-0.139
1748369972139097761,-0.146
1748369972146785370,-0.14400000000000002
1748369972154472979,-0.139
1748369972162160588,-0.134
1748369972169848197,-0.127
1748369972177535806,-0.12
1748369972185223415,-0.10300000000000001
1748369972192911024,-0.076
1748369972200598633,-0.074
1748369972208286242,-0.098
1748369972215973851,-0.108
1748369972223661460,-0.101
1748369972231349069,-0.098
1748369972239036678,-0.096
1748369972246724287,-0.091
1748369972254411896,-0.096
1748369972262099505,-0.117
1748369972269787114,-0.132
1748369972277474723,0.07200000000000001
1748369972285162332,0.654
1748369972292849941,1.111
1748369972300537550,0.721
1748369972308225159,-0.20600000000000002
1748369972315912768,-0.63
1748369972323600377,-0.391
1748369972331287986,-0.24
1748369972338975595,-0.269
1748369972346663204,-0.161
1748369972354350813,-0.062
1748369972362038422,-0.08600000000000001
1748369972369726031,-0.079
1748369972377413640,-0.04
1748369972385101249,-0.04
1748369972392788858,-0.04
1748369972400476467,-0.019
1748369972408164076,-0.009000000000000001
1748369972415851685,-0.004
1748369972423539294,0.002
1748369972431226903,0.009000000000000001
1748369972438914512,0.016
1748369972446602121,0.026000000000000002
1748369972454289730,0.04
1748369972461977339,0.048
1748369972469664948,0.055
1748369972477352557,0.067
1748369972485040166,0.076
1748369972492727775,0.08600000000000001
1748369972500415384,0.096
1748369972508102993,0.105
1748369972515790602,0.113
1748369972523478211,0.122
1748369972531165820,0.129
1748369972538853429,0.139
1748369972546541083,0.149,94,612
1748369972554228692,0.149
1748369972561916301,0.134
1748369972569603910,0.101
1748369972577291519,0.06
1748369972584979128,0.016
1748369972592666737,-0.028
1748369972600354346,-0.069
1748369972608041955,-0.098
1748369972615729564,-0.117
1748369972623417173,-0.127
1748369972631104782,-0.132
1748369972638792391,-0.132
1748369972646480000,-0.127
1748369972654167609,-0.122
1748369972661855218,-0.12
1748369972669542827,-0.12
1748369972677230436,-0.12
1748369972684918045,-0.125
1748369972692605654,-0.125
1748369972700293263,-0.125
1748369972707980872,-0.129
1748369972715668481,-0.132
1748369972723356090,-0.129
1748369972731043699,-0.134
1748369972738731308,-0.14100000000000001
1748369972746418917,-0.149
1748369972754106526,-0.149
1748369972761794135,-0.146
1748369972769481744,-0.137
1748369972777169353,-0.129
1748369972784856962,-0.125
1748369972792544571,-0.105
1748369972800232180,-0.076
1748369972807919789,-0.081
1748369972815607398,-0.108
1748369972823295007,-0.113
1748369972830982616,-0.105
1748369972838670225,-0.10300000000000001
1748369972846357834,-0.10300000000000001
1748369972854045443,-0.096
1748369972861733052,-0.10300000000000001
1748369972869420661,-0.139
1748369972877108270,-0.149
1748369972884795879,0.11
1748369972892483488,0.719
1748369972900171097,1.1300000000000001
1748369972907858706,0.735
1748369972915546315,-0.139
1748369972923233924,-0.543
1748369972930921533,-0.324
1748369972938609142,-0.197
1748369972946296751,-0.25
1748369972953984360,-0.168
1748369972961671969,-0.096
1748369972969359578,-0.122
1748369972977047187,-0.113
1748369972984734796,-0.074
1748369972992422405,-0.07200000000000001
1748369973000110014,-0.069
1748369973007797623,-0.052000000000000005
1748369973015485232,-0.048
1748369973023172841,-0.043000000000000003
1748369973030860450,-0.033
1748369973038548059,-0.026000000000000002
1748369973046235668,-0.019
1748369973053923277,-0.009000000000000001
1748369973061610886,0.0
1748369973069298495,0.007
1748369973076986104,0.014
1748369973084673713,0.024
1748369973092361322,0.033
1748369973100048931,0.043000000000000003
1748369973107736585,0.052000000000000005
1748369973115424124,0.057
1748369973123111663,0.062
1748369973130799202,0.062
1748369973138486741,0.064
1748369973146174280,0.069
1748369973153861819,0.076
1748369973161549358,0.079
1748369973169236897,0.069
1748369973176924436,0.052000000000000005
1748369973184611975,0.026000000000000002
1748369973192299514,-0.007
1748369973199987053,-0.038
1748369973207674592,-0.067
1748369973215362131,-0.093
1748369973223049670,-0.108
1748369973230737209,-0.117
1748369973238424748,-0.122
1748369973246112287,-0.122
1748369973253799826,-0.122
1748369973261487365,-0.122
1748369973269174904,-0.122
1748369973276862443,-0.122
1748369973284549982,-0.12
1748369973292237521,-0.12
1748369973299925060,-0.125
1748369973307612599,-0.125
1748369973315300138,-0.125
1748369973322987677,-0.125
1748369973330675216,-0.125
1748369973338362755,-0.125
1748369973346050294,-0.132
1748369973353737833,-0.137
1748369973361425372,-0.139
1748369973369112911,-0.137
1748369973376800450,-0.127
1748369973384487989,-0.115
1748369973392175528,-0.108
1748369973399863067,-0.088
1748369973407550606,-0.062
1748369973415238145,-0.069
1748369973422925684,-0.093
1748369973430613223,-0.098
1748369973438300762,-0.091
1748369973445988301,-0.091
1748369973453675840,-0.091
1748369973461363379,-0.08600000000000001
1748369973469050918,-0.091
1748369973476738457,-0.127
1748369973484425996,-0.163
1748369973492113535,0.026000000000000002
1748369973499801074,0.593
1748369973507488613,1.096
1748369973515176152,0.877
1748369973522863691,0.04
1748369973530551230,-0.492
1748369973538238769,-0.336
1748369973545926308,-0.17
1748369973553613847,-0.233
1748369973561301386,-0.17500000000000002
1748369973568988925,-0.08600000000000001
1748369973576676464,-0.11
1748369973584364003,-0.113
1748369973592051542,-0.07200000000000001
1748369973599739081,-0.067
1748369973607426620,-0.067
1748369973615114159,-0.05
1748369973622801698,-0.04
1748369973630489237,-0.036000000000000004
1748369973638176776,-0.028
1748369973645864315,-0.021
1748369973653551854,-0.014
1748369973661239393,-0.009000000000000001
1748369973668927000,0.0,96,613
1748369973676614539,0.009000000000000001,,601
1748369973684302078,0.016
1748369973691989617,0.024
1748369973699677156,0.031
1748369973707364695,0.038
1748369973715052234,0.045
1748369973722739773,0.05
1748369973730427312,0.052000000000000005
1748369973738114851,0.052000000000000005
1748369973745802390,0.052000000000000005
1748369973753489929,0.052000000000000005
1748369973761177468,0.057
1748369973768865007,0.06
1748369973776552546,0.055
1748369973784240085,0.043000000000000003
1748369973791927624,0.016
1748369973799615163,-0.012
1748369973807302702,-0.038
1748369973814990241,-0.064
1748369973822677780,-0.088
1748369973830365319,-0.108
1748369973838052858,-0.12
1748369973845740397,-0.122
1748369973853427936,-0.12
1748369973861115475,-0.122
1748369973868803014,-0.125
1748369973876490553,-0.125
1748369973884178092,-0.125
1748369973891865631,-0.127
1748369973899553170,-0.127
1748369973907240709,-0.129
1748369973914928248,-0.132
1748369973922615787,-0.132
1748369973930303326,-0.134
1748369973937990865,-0.139
1748369973945678404,-0.137
1748369973953365943,-0.137
1748369973961053482,-0.139
1748369973968741021,-0.146
1748369973976428560,-0.153
1748369973984116099,-0.156
1748369973991803638,-0.161
1748369973999491177,-0.156
1748369974007178716,-0.14100000000000001
1748369974014866255,-0.134
1748369974022553794,-0.117
1748369974030241333,-0.093
1748369974037928872,-0.10300000000000001
1748369974045616411,-0.127
1748369974053303950,-0.132
1748369974060991489,-0.129
1748369974068679028,-0.132
1748369974076366567,-0.129
1748369974084054106,-0.127
1748369974091741645,-0.137
1748369974099429184,-0.17500000000000002
1748369974107116723,-0.20600000000000002
1748369974114804262,-0.004
1748369974122491801,0.5690000000000001
1748369974130179340,1.038
1748369974137866879,0.745
1748369974145554418,-0.11
1748369974153241957,-0.586
1748369974160929496,-0.394
1748369974168617035,-0.23800000000000002
1748369974176304574,-0.295
1748369974183992113,-0.23
1748369974191679652,-0.151
1748369974199367191,-0.177
1748369974207054730,-0.17500000000000002
1748369974214742269,-0.139
1748369974222429808,-0.137
1748369974230117415,-0.134
1748369974237804954,-0.117
1748369974245492493,-0.11
1748369974253180032,-0.108
1748369974260867571,-0.098
1748369974268555110,-0.093
1748369974276242649,-0.088
1748369974283930188,-0.079
1748369974291617727,-0.067
1748369974299305266,-0.057
1748369974306992805,-0.052000000000000005
1748369974314680344,-0.045
1748369974322367883,-0.038
1748369974330055422,-0.033
1748369974337742961,-0.028
1748369974345430500,-0.024
1748369974353118039,-0.024
1748369974360805578,-0.012
1748369974368493117,-0.004
1748369974376180656,-0.004
1748369974383868195,0.004
1748369974391555734,0.014
1748369974399243273,0.009000000000000001
1748369974406930812,-0.012
1748369974414618351,-0.04
1748369974422305890,-0.069
1748369974429993429,-0.098
1748369974437680968,-0.132
1748369974445368507,-0.161
1748369974453056046,-0.177
1748369974460743585,-0.189
1748369974468431124,-0.202
1748369974476118663,-0.20400000000000001
1748369974483806202,-0.20400000000000001
1748369974491493741,-0.202
1748369974499181280,-0.202
1748369974506868819,-0.20600000000000002
1748369974514556358,-0.20600000000000002
1748369974522243897,-0.20400000000000001
1748369974529931436,-0.20600000000000002
1748369974537618975,-0.20600000000000002
1748369974545306514,-0.20600000000000002
1748369974552994053,-0.20400000000000001
1748369974560681592,-0.202
1748369974568369131,-0.199
1748369974576056670,-0.199
1748369974583744209,-0.20400000000000001
1748369974591431748,-0.20400000000000001
1748369974599119287,-0.199
1748369974606806826,-0.20400000000000001
1748369974614494365,-0.199
1748369974622181904,-0.182
1748369974629869443,-0.17500000000000002
1748369974637556982,-0.17500000000000002
1748369974645244521,-0.146
1748369974652932060,-0.12
1748369974660619599,-0.134
1748369974668307138,-0.156
1748369974675994677,-0.153
1748369974683682216,-0.149
1748369974691369755,-0.14400000000000002
1748369974699057294,-0.139
1748369974706744833,-0.132
1748369974714432372,-0.14400000000000002
1748369974722119911,-0.177
1748369974729807450,-0.10300000000000001
1748369974737494989,0.319
1748369974745182528,0.918
1748369974752870067,0.9420000000000001
1748369974760557606,0.146
1748369974768245145,-0.596
1748369974775932684,-0.5670000000000001
1748369974783620223,-0.295
1748369974791307830,-0.28800000000000003,97,607
1748369974798995369,-0.252,,608
1748369974806682908,-0.12
1748369974814370447,-0.10300000000000001
1748369974822057986,-0.125
1748369974829745525,-0.088
1748369974837433064,-0.067
1748369974845120603,-0.069
1748369974852808142,-0.055
1748369974860495681,-0.043000000000000003
1748369974868183220,-0.038
1748369974875870759,-0.028
1748369974883558298,-0.016
1748369974891245837,-0.007
1748369974898933376,0.002
1748369974906620915,0.012
1748369974914308454,0.016
1748369974921995993,0.024
1748369974929683532,0.033
1748369974937371071,0.045
1748369974945058610,0.06
1748369974952746149,0.069
1748369974960433688,0.079
1748369974968121227,0.093
1748369974975808766,0.105
1748369974983496305,0.117
1748369974991183844,0.127
1748369974998871383,0.134
1748369975006558922,0.137
1748369975014246461,0.134
1748369975021934000,0.11
1748369975029621539,0.076
1748369975037309078,0.038
1748369975044996617,-0.007
1748369975052684156,-0.05
1748369975060371695,-0.08600000000000001
1748369975068059234,-0.113
1748369975075746773,-0.125
1748369975083434312,-0.129
1748369975091121851,-0.132
1748369975098809390,-0.132
1748369975106496929,-0.129
1748369975114184468,-0.129
1748369975121872007,-0.129
1748369975129559546,-0.127
1748369975137247085,-0.129
1748369975144934624,-0.129
1748369975152622163,-0.129
1748369975160309702,-0.134
1748369975167997241,-0.134
1748369975175684780,-0.134
1748369975183372319,-0.132
1748369975191059858,-0.132
1748369975198747397,-0.134
1748369975206434936,-0.139
1748369975214122475,-0.14400000000000002
1748369975221810014,-0.146
1748369975229497553,-0.14400000000000002
1748369975237185092,-0.134
1748369975244872631,-0.125
1748369975252560170,-0.12
1748369975260247709,-0.098
1748369975267935248,-0.069
1748369975275622787,-0.074
1748369975283310326,-0.096
1748369975290997865,-0.098
1748369975298685404,-0.096
1748369975306372943,-0.098
1748369975314060482,-0.091
1748369975321748021,-0.08600000000000001
1748369975329435560,-0.093
1748369975337123099,-0.122
1748369975344810638,-0.134
1748369975352498245,0.091
1748369975360185715,0.673
1748369975367873185,1.106
1748369975375560655,0.74
1748369975383248125,-0.153
1748369975390935595,-0.586
1748369975398623065,-0.353
1748369975406310535,-0.194
1748369975413998005,-0.242
1748369975421685475,-0.158
1748369975429372945,-0.074
1748369975437060415,-0.096
1748369975444747885,-0.088
1748369975452435355,-0.052000000000000005
1748369975460122825,-0.048
1748369975467810295,-0.043000000000000003
1748369975475497765,-0.028
1748369975483185235,-0.021
1748369975490872705,-0.016
1748369975498560175,-0.007
1748369975506247645,0.0
1748369975513935115,0.009000000000000001
1748369975521622585,0.019
1748369975529310055,0.028
1748369975536997525,0.033
1748369975544684995,0.04
1748369975552372465,0.05
1748369975560059935,0.06
1748369975567747405,0.064
1748369975575434875,0.07200000000000001
1748369975583122345,0.079
1748369975590809815,0.081
1748369975598497285,0.08600000000000001
1748369975606184755,0.093
1748369975613872225,0.101
1748369975621559695,0.113
1748369975629247165,0.117
1748369975636934635,0.11
1748369975644622105,0.091
1748369975652309575,0.062
1748369975659997045,0.028
1748369975667684515,-0.004
1748369975675371985,-0.036000000000000004
1748369975683059455,-0.062
1748369975690746925,-0.079
1748369975698434395,-0.088
1748369975706121865,-0.096
1748369975713809335,-0.098
1748369975721496805,-0.098
1748369975729184275,-0.098
1748369975736871745,-0.098
1748369975744559215,-0.096
1748369975752246685,-0.096
1748369975759934155,-0.098
1748369975767621625,-0.098
1748369975775309095,-0.098
1748369975782996565,-0.098
1748369975790684035,-0.096
1748369975798371505,-0.096
1748369975806058975,-0.093
1748369975813746445,-0.091
1748369975821433915,-0.091
1748369975829121385,-0.096
1748369975836808855,-0.105
1748369975844496325,-0.108
1748369975852183795,-0.105
1748369975859871265,-0.096
1748369975867558735,-0.081
1748369975875246205,-0.074
1748369975882933675,-0.055
1748369975890621145,-0.028
1748369975898308615,-0.033
1748369975905996085,-0.06
1748369975913683577,-0.064,97,622
1748369975921371186,-0.055
1748369975929058795,-0.057
1748369975936746404,-0.057
1748369975944434013,-0.05
1748369975952121622,-0.052000000000000005
1748369975959809231,-0.084
1748369975967496840,-0.12
1748369975975184449,0.031
1748369975982872058,0.557
1748369975990559667,1.086
1748369975998247276,0.9520000000000001
1748369976005934885,0.149
1748369976013622494,-0.442
1748369976021310103,-0.327
1748369976028997712,-0.137
1748369976036685321,-0.187
1748369976044372930,-0.146
1748369976052060539,-0.057
1748369976059748148,-0.074
1748369976067435757,-0.081
1748369976075123366,-0.04
1748369976082810975,-0.028
1748369976090498584,-0.031
1748369976098186193,-0.016
1748369976105873802,-0.007
1748369976113561411,-0.004
1748369976121249020,0.002
1748369976128936629,0.009000000000000001
1748369976136624238,0.016
1748369976144311847,0.026000000000000002
1748369976151999456,0.033
1748369976159687065,0.038
1748369976167374674,0.045
1748369976175062283,0.052000000000000005
1748369976182749892,0.057
1748369976190437501,0.062
1748369976198125110,0.067
1748369976205812719,0.069
1748369976213500328,0.07200000000000001
1748369976221187937,0.07200000000000001
1748369976228875546,0.07200000000000001
1748369976236563155,0.074
1748369976244250764,0.079
1748369976251938373,0.084
1748369976259625982,0.084
1748369976267313591,0.074
1748369976275001200,0.055
1748369976282688809,0.028
1748369976290376418,0.0
1748369976298064027,-0.026000000000000002
1748369976305751636,-0.052000000000000005
1748369976313439245,-0.069
1748369976321126854,-0.079
1748369976328814463,-0.08600000000000001
1748369976336502072,-0.088
1748369976344189681,-0.088
1748369976351877290,-0.091
1748369976359564899,-0.091
1748369976367252508,-0.088
1748369976374940117,-0.088
1748369976382627726,-0.091
1748369976390315335,-0.093
1748369976398002944,-0.096
1748369976405690553,-0.096
1748369976413378162,-0.096
1748369976421065771,-0.098
1748369976428753380,-0.098
1748369976436440989,-0.096
1748369976444128598,-0.093
1748369976451816207,-0.093
1748369976459503816,-0.093
1748369976467191425,-0.093
1748369976474879079,-0.098,97,618
1748369976482566618,-0.105,,619
1748369976490254157,-0.108
1748369976497941696,-0.10300000000000001
1748369976505629235,-0.088
1748369976513316774,-0.076
1748369976521004313,-0.067
1748369976528691852,-0.045
1748369976536379391,-0.031
1748369976544066930,-0.048
1748369976551754469,-0.067
1748369976559442008,-0.064
1748369976567129547,-0.062
1748369976574817086,-0.062
1748369976582504625,-0.057
1748369976590192164,-0.055
1748369976597879703,-0.069
1748369976605567242,-0.117
1748369976613254781,-0.091
1748369976620942320,0.259
1748369976628629859,0.858
1748369976636317398,1.065
1748369976644004937,0.485
1748369976651692476,-0.303
1748369976659380015,-0.464
1748369976667067554,-0.214
1748369976674755093,-0.17500000000000002
1748369976682442632,-0.197
1748369976690130171,-0.091
1748369976697817710,-0.06
1748369976705505249,-0.088
1748369976713192788,-0.064
1748369976720880327,-0.038
1748369976728567866,-0.043000000000000003
1748369976736255405,-0.033
1748369976743942944,-0.016
1748369976751630483,-0.012
1748369976759318022,-0.007
1748369976767005561,0.002
1748369976774693100,0.007
1748369976782380639,0.014
1748369976790068178,0.021
1748369976797755717,0.028
1748369976805443256,0.036000000000000004
1748369976813130795,0.04
1748369976820818334,0.045
1748369976828505873,0.052000000000000005
1748369976836193412,0.057
1748369976843880951,0.064
1748369976851568490,0.067
1748369976859256029,0.067
1748369976866943568,0.074
1748369976874631107,0.081
1748369976882318646,0.091
1748369976890006185,0.098
1748369976897693724,0.101
1748369976905381263,0.091
1748369976913068802,0.074
1748369976920756341,0.052000000000000005
1748369976928443880,0.024
1748369976936131419,-0.007
1748369976943818958,-0.038
1748369976951506497,-0.064
1748369976959194036,-0.084
1748369976966881575,-0.091
1748369976974569114,-0.098
1748369976982256653,-0.101
1748369976989944192,-0.10300000000000001
1748369976997631731,-0.105
1748369977005319270,-0.101
1748369977013006809,-0.10300000000000001
1748369977020694348,-0.11
1748369977028381887,-0.11
1748369977036069494,-0.105
1748369977043757033,-0.113
1748369977051444572,-0.113
1748369977059132111,-0.108
1748369977066819650,-0.108
1748369977074507189,-0.108
1748369977082194728,-0.105
1748369977089882267,-0.105
1748369977097569806,-0.11
1748369977105257345,-0.11
1748369977112944884,-0.105
1748369977120632423,-0.11
1748369977128319962,-0.113
1748369977136007501,-0.113
1748369977143695040,-0.11
1748369977151382579,-0.098
1748369977159070118,-0.08600000000000001
1748369977166757657,-0.076
1748369977174445196,-0.055
1748369977182132735,-0.045
1748369977189820274,-0.064
1748369977197507813,-0.076
1748369977205195352,-0.074
1748369977212882891,-0.076
1748369977220570430,-0.074
1748369977228257969,-0.069
1748369977235945508,-0.069
1748369977243633047,-0.088
1748369977251320586,-0.11
1748369977259008125,0.014
1748369977266695664,0.495
1748369977274383203,1.022
1748369977282070742,0.853
1748369977289758281,-0.004
1748369977297445820,-0.596
1748369977305133359,-0.452
1748369977312820898,-0.223
1748369977320508437,-0.245
1748369977328195976,-0.182
1748369977335883515,-0.062
1748369977343571054,-0.062
1748369977351258593,-0.074
1748369977358946132,-0.04
1748369977366633671,-0.024
1748369977374321210,-0.021
1748369977382008749,-0.009000000000000001
1748369977389696288,0.0
1748369977397383827,0.002
1748369977405071366,0.007
1748369977412758905,0.014
1748369977420446444,0.026000000000000002
1748369977428133983,0.038
1748369977435821522,0.048
1748369977443509061,0.052000000000000005
1748369977451196600,0.06
1748369977458884139,0.064
1748369977466571678,0.07200000000000001
1748369977474259217,0.084
1748369977481946756,0.096
1748369977489634295,0.108
1748369977497321834,0.122
1748369977505009373,0.134
1748369977512696912,0.14400000000000002
1748369977520384451,0.156
1748369977528071990,0.165
1748369977535759529,0.165
1748369977543447068,0.153
1748369977551134607,0.125
1748369977558822146,0.088
1748369977566509685,0.05
1748369977574197224,0.004
1748369977581884763,-0.04
1748369977589572302,-0.076
1748369977597259909,-0.098,97,625
1748369977604947448,-0.113
1748369977612634987,-0.12
1748369977620322526,-0.122
1748369977628010065,-0.122
1748369977635697604,-0.122
1748369977643385143,-0.122
1748369977651072682,-0.125
1748369977658760221,-0.125
1748369977666447760,-0.127
1748369977674135299,-0.127
1748369977681822838,-0.129
1748369977689510377,-0.134
1748369977697197916,-0.134
1748369977704885455,-0.134
1748369977712572994,-0.134
1748369977720260533,-0.134
1748369977727948072,-0.132
1748369977735635611,-0.129
1748369977743323150,-0.132
1748369977751010689,-0.139
1748369977758698228,-0.14400000000000002
1748369977766385767,-0.14100000000000001
1748369977774073306,-0.132
1748369977781760845,-0.12
1748369977789448384,-0.113
1748369977797135923,-0.108
1748369977804823462,-0.081
1748369977812511001,-0.064
1748369977820198540,-0.084
1748369977827886079,-0.101
1748369977835573618,-0.096
1748369977843261157,-0.096
1748369977850948696,-0.096
1748369977858636235,-0.08600000000000001
1748369977866323774,-0.084
1748369977874011313,-0.10300000000000001
1748369977881698852,-0.139
1748369977889386391,-0.069
1748369977897073930,0.339
1748369977904761469,0.923
1748369977912449008,0.988
1748369977920136547,0.252
1748369977927824086,-0.502
1748369977935511625,-0.512
1748369977943199164,-0.233
1748369977950886703,-0.221
1748369977958574242,-0.211
1748369977966261781,-0.093
1748369977973949320,-0.076
1748369977981636859,-0.098
1748369977989324398,-0.067
1748369977997011937,-0.048
1748369978004699476,-0.05
1748369978012387015,-0.038
1748369978020074554,-0.026000000000000002
1748369978027762093,-0.024
1748369978035449632,-0.016
1748369978043137171,-0.007
1748369978050824710,-0.002
1748369978058512249,0.004
1748369978066199788,0.014
1748369978073887327,0.019
1748369978081574866,0.026000000000000002
1748369978089262405,0.036000000000000004
1748369978096949944,0.043000000000000003
1748369978104637483,0.052000000000000005
1748369978112325022,0.06
1748369978120012561,0.069
1748369978127700100,0.074
1748369978135387639,0.081
1748369978143075178,0.088
1748369978150762717,0.098
1748369978158450324,0.113
1748369978166137863,0.117
1748369978173825402,0.11
1748369978181512941,0.093
1748369978189200480,0.067
1748369978196888019,0.028
1748369978204575558,-0.009000000000000001
1748369978212263097,-0.043000000000000003
1748369978219950636,-0.074
1748369978227638175,-0.096
1748369978235325714,-0.11
1748369978243013253,-0.12
1748369978250700792,-0.125
1748369978258388331,-0.125
1748369978266075870,-0.125
1748369978273763409,-0.125
1748369978281450948,-0.125
1748369978289138487,-0.127
1748369978296826026,-0.127
1748369978304513565,-0.125
1748369978312201104,-0.127
1748369978319888643,-0.129
1748369978327576182,-0.127
1748369978335263721,-0.127
1748369978342951260,-0.127
1748369978350638799,-0.122
1748369978358326338,-0.125
1748369978366013877,-0.132
1748369978373701416,-0.137
1748369978381388955,-0.137
1748369978389076494,-0.139
1748369978396764033,-0.139
1748369978404451572,-0.127
1748369978412139111,-0.113
1748369978419826650,-0.105
1748369978427514189,-0.088
1748369978435201728,-0.062
1748369978442889267,-0.06
1748369978450576806,-0.084
1748369978458264345,-0.093
1748369978465951884,-0.088
1748369978473639423,-0.088
1748369978481326962,-0.084
1748369978489014501,-0.079
1748369978496702040,-0.079
1748369978504389579,-0.10300000000000001
1748369978512077118,-0.146
1748369978519764657,-0.057
1748369978527452196,0.396
1748369978535139735,0.973
1748369978542827274,0.99
1748369978550514813,0.264
1748369978558202352,-0.425
1748369978565889891,-0.41600000000000004
1748369978573577430,-0.185
1748369978581264969,-0.199
1748369978588952508,-0.185
1748369978596640047,-0.088
1748369978604327586,-0.088
1748369978612015125,-0.105
1748369978619702664,-0.069
1748369978627390203,-0.052000000000000005
1748369978635077742,-0.055
1748369978642765281,-0.043000000000000003
1748369978650452820,-0.033
1748369978658140359,-0.031
1748369978665827898,-0.024
1748369978673515437,-0.014
1748369978681202976,-0.007
1748369978688890515,-0.002
1748369978696578054,0.004
1748369978704265593,0.009000000000000001
1748369978711953132,0.019
1748369978719640739,0.026000000000000002,97,642
1748369978727328278,0.031,,643
1748369978735015817,0.033
1748369978742703356,0.04
1748369978750390895,0.045
1748369978758078434,0.045
1748369978765765973,0.045
1748369978773453512,0.052000000000000005
1748369978781141051,0.057
1748369978788828590,0.062
1748369978796516129,0.069
1748369978804203668,0.067
1748369978811891207,0.055
1748369978819578746,0.033
1748369978827266285,0.007
1748369978834953824,-0.021
1748369978842641363,-0.052000000000000005
1748369978850328902,-0.081
1748369978858016441,-0.098
1748369978865703980,-0.108
1748369978873391519,-0.113
1748369978881079058,-0.117
1748369978888766597,-0.117
1748369978896454136,-0.12
1748369978904141675,-0.117
1748369978911829214,-0.117
1748369978919516753,-0.117
1748369978927204292,-0.12
1748369978934891831,-0.122
1748369978942579370,-0.12
1748369978950266909,-0.122
1748369978957954448,-0.125
1748369978965641987,-0.125
1748369978973329526,-0.122
1748369978981017065,-0.12
1748369978988704604,-0.12
1748369978996392143,-0.125
1748369979004079682,-0.132
1748369979011767221,-0.134
1748369979019454760,-0.134
1748369979027142299,-0.127
1748369979034829838,-0.115
1748369979042517377,-0.105
1748369979050204916,-0.088
1748369979057892455,-0.062
1748369979065579994,-0.057
1748369979073267533,-0.081
1748369979080955072,-0.096
1748369979088642611,-0.091
1748369979096330150,-0.091
1748369979104017689,-0.088
1748369979111705228,-0.084
1748369979119392767,-0.081
1748369979127080306,-0.10300000000000001
1748369979134767845,-0.151
1748369979142455384,-0.10300000000000001
1748369979150142923,0.295
1748369979157830462,0.887
1748369979165518001,0.993
1748369979173205540,0.329
1748369979180893079,-0.394
1748369979188580618,-0.452
1748369979196268157,-0.214
1748369979203955696,-0.20600000000000002
1748369979211643235,-0.199
1748369979219330774,-0.096
1748369979227018313,-0.084
1748369979234705852,-0.108
1748369979242393391,-0.074
1748369979250080930,-0.052000000000000005
1748369979257768469,-0.055
1748369979265456008,-0.045
1748369979273143547,-0.033
1748369979280831154,-0.028
1748369979288518693,-0.021
1748369979296206232,-0.014
1748369979303893771,-0.007
1748369979311581310,0.0
1748369979319268849,0.007
1748369979326956388,0.016
1748369979334643927,0.021
1748369979342331466,0.028
1748369979350019005,0.036000000000000004
1748369979357706544,0.04
1748369979365394083,0.048
1748369979373081622,0.052000000000000005
1748369979380769161,0.055
1748369979388456700,0.057
1748369979396144239,0.064
1748369979403831778,0.07200000000000001
1748369979411519317,0.079
1748369979419206856,0.084
1748369979426894395,0.079
1748369979434581934,0.062
1748369979442269473,0.033
1748369979449957012,0.0
1748369979457644551,-0.031
1748369979465332090,-0.062
1748369979473019629,-0.088
1748369979480707168,-0.108
1748369979488394707,-0.12
1748369979496082246,-0.125
1748369979503769785,-0.127
1748369979511457324,-0.129
1748369979519144863,-0.127
1748369979526832402,-0.125
1748369979534519941,-0.127
1748369979542207480,-0.129
1748369979549895019,-0.129
1748369979557582558,-0.129
1748369979565270097,-0.127
1748369979572957636,-0.129
1748369979580645175,-0.129
1748369979588332714,-0.129
1748369979596020253,-0.132
1748369979603707792,-0.134
1748369979611395331,-0.132
1748369979619082870,-0.139
1748369979626770409,-0.149
1748369979634457948,-0.149
1748369979642145487,-0.14100000000000001
1748369979649833026,-0.132
1748369979657520565,-0.12
1748369979665208104,-0.11
1748369979672895643,-0.08600000000000001
1748369979680583182,-0.07200000000000001
1748369979688270721,-0.091
1748369979695958260,-0.113
1748369979703645799,-0.11
1748369979711333338,-0.10300000000000001
1748369979719020877,-0.10300000000000001
1748369979726708416,-0.101
1748369979734395955,-0.091
1748369979742083494,-0.098
1748369979749771033,-0.146
1748369979757458572,-0.156
1748369979765146111,0.125
1748369979772833650,0.719
1748369979780521189,1.014
1748369979788208728,0.507
1748369979795896267,-0.293
1748369979803583806,-0.524
1748369979811271345,-0.281
1748369979818958884,-0.202
1748369979826646423,-0.228
1748369979834333962,-0.129
1748369979842021569,-0.074,96,633
1748369979849709527,-0.10300000000000001
1748369979857397485,-0.091
1748369979865085443,-0.057
1748369979872773401,-0.052000000000000005
1748369979880461359,-0.048
1748369979888149317,-0.033
1748369979895837275,-0.026000000000000002
1748369979903525233,-0.019
1748369979911213191,-0.009000000000000001
1748369979918901149,-0.004
1748369979926589107,0.0
1748369979934277065,0.012
1748369979941965023,0.026000000000000002
1748369979949652981,0.033
1748369979957340939,0.038
1748369979965028897,0.048
1748369979972716855,0.057
1748369979980404813,0.062
1748369979988092771,0.069
1748369979995780729,0.084
1748369980003468687,0.093
1748369980011156645,0.101
1748369980018844603,0.115
1748369980026532561,0.127
1748369980034220519,0.129
1748369980041908477,0.12
1748369980049596435,0.10300000000000001
1748369980057284393,0.07200000000000001
1748369980064972351,0.028
1748369980072660309,-0.012
1748369980080348267,-0.05
1748369980088036225,-0.08600000000000001
1748369980095724183,-0.11
1748369980103412141,-0.125
1748369980111100099,-0.134
1748369980118788057,-0.139
1748369980126476015,-0.137
1748369980134163973,-0.134
1748369980141851931,-0.134
1748369980149539889,-0.137
1748369980157227847,-0.137
1748369980164915805,-0.137
1748369980172603763,-0.139
1748369980180291721,-0.139
1748369980187979679,-0.14400000000000002
1748369980195667637,-0.146
1748369980203355595,-0.14100000000000001
1748369980211043553,-0.137
1748369980218731511,-0.139
1748369980226419469,-0.146
1748369980234107427,-0.149
1748369980241795385,-0.146
1748369980249483343,-0.146
1748369980257171301,-0.14400000000000002
1748369980264859259,-0.129
1748369980272547217,-0.125
1748369980280235175,-0.115
1748369980287923133,-0.091
1748369980295611091,-0.081
1748369980303299049,-0.105
1748369980310987007,-0.115
1748369980318674965,-0.105
1748369980326362923,-0.10300000000000001
1748369980334050881,-0.10300000000000001
1748369980341738839,-0.098
1748369980349426797,-0.10300000000000001
1748369980357114755,-0.115
1748369980364802713,-0.134
1748369980372490671,-0.031
1748369980380178629,0.418
1748369980387866587,0.961
1748369980395554545,0.844
1748369980403242506,-0.012
1748369980410929767,-0.634
1748369980418617028,-0.495
1748369980426304289,-0.25
1748369980433991550,-0.264
1748369980441678811,-0.202
1748369980449366072,-0.081
1748369980457053333,-0.079
1748369980464740594,-0.091
1748369980472427855,-0.055
1748369980480115116,-0.04
1748369980487802377,-0.043000000000000003
1748369980495489638,-0.031
1748369980503176899,-0.019
1748369980510864160,-0.012
1748369980518551421,-0.004
1748369980526238682,0.004
1748369980533925943,0.014
1748369980541613204,0.024
1748369980549300465,0.028
1748369980556987726,0.038
1748369980564674987,0.05
1748369980572362248,0.06
1748369980580049509,0.067
1748369980587736770,0.079
1748369980595424031,0.093
1748369980603111292,0.105
1748369980610798553,0.12
1748369980618485814,0.132
1748369980626173075,0.139
1748369980633860336,0.151
1748369980641547597,0.158
1748369980649234858,0.156
1748369980656922119,0.132
1748369980664609380,0.096
1748369980672296641,0.05
1748369980679983902,0.002
1748369980687671163,-0.043000000000000003
1748369980695358424,-0.081
1748369980703045685,-0.115
1748369980710732946,-0.134
1748369980718420207,-0.139
1748369980726107468,-0.14100000000000001
1748369980733794729,-0.14100000000000001
1748369980741481990,-0.139
1748369980749169251,-0.137
1748369980756856512,-0.137
1748369980764543773,-0.137
1748369980772231034,-0.134
1748369980779918295,-0.137
1748369980787605556,-0.139
1748369980795292817,-0.139
1748369980802980078,-0.139
1748369980810667339,-0.139
1748369980818354600,-0.14100000000000001
1748369980826041861,-0.14100000000000001
1748369980833729122,-0.14100000000000001
1748369980841416383,-0.149
1748369980849103644,-0.153
1748369980856790905,-0.156
1748369980864478166,-0.153
1748369980872165427,-0.14400000000000002
1748369980879852688,-0.132
1748369980887539949,-0.129
1748369980895227210,-0.11
1748369980902914471,-0.081
1748369980910601732,-0.081
1748369980918288993,-0.105
1748369980925976254,-0.113
1748369980933663515,-0.105
1748369980941350776,-0.108
1748369980949038037,-0.10300000000000001
1748369980956725298,-0.096
1748369980964412577,-0.098,96,630
1748369980972100395,-0.125,,624
1748369980979788213,-0.163
1748369980987476031,-0.028
1748369980995163849,0.485
1748369981002851667,1.026
1748369981010539485,0.894
1748369981018227303,0.08600000000000001
1748369981025915121,-0.502
1748369981033602939,-0.387
1748369981041290757,-0.187
1748369981048978575,-0.23
1748369981056666393,-0.189
1748369981064354211,-0.093
1748369981072042029,-0.108
1748369981079729847,-0.115
1748369981087417665,-0.074
1748369981095105483,-0.064
1748369981102793301,-0.067
1748369981110481119,-0.052000000000000005
1748369981118168937,-0.04
1748369981125856755,-0.038
1748369981133544573,-0.028
1748369981141232391,-0.019
1748369981148920209,-0.012
1748369981156608027,-0.002
1748369981164295845,0.004
1748369981171983663,0.009000000000000001
1748369981179671481,0.019
1748369981187359299,0.026000000000000002
1748369981195047117,0.033
1748369981202734935,0.04
1748369981210422753,0.048
1748369981218110571,0.055
1748369981225798389,0.06
1748369981233486207,0.062
1748369981241174025,0.069
1748369981248861843,0.079
1748369981256549661,0.088
1748369981264237479,0.091
1748369981271925297,0.079
1748369981279613115,0.057
1748369981287300933,0.026000000000000002
1748369981294988751,-0.007
1748369981302676569,-0.043000000000000003
1748369981310364387,-0.076
1748369981318052205,-0.096
1748369981325740023,-0.108
1748369981333427841,-0.117
1748369981341115659,-0.125
1748369981348803477,-0.125
1748369981356491295,-0.125
1748369981364179113,-0.122
1748369981371866931,-0.122
1748369981379554749,-0.122
1748369981387242567,-0.125
1748369981394930385,-0.122
1748369981402618203,-0.122
1748369981410306021,-0.122
1748369981417993839,-0.125
1748369981425681657,-0.125
1748369981433369475,-0.125
1748369981441057293,-0.125
1748369981448745111,-0.125
1748369981456432929,-0.125
1748369981464120747,-0.127
1748369981471808565,-0.134
1748369981479496383,-0.139
1748369981487184201,-0.139
1748369981494872019,-0.129
1748369981502559837,-0.117
1748369981510247655,-0.105
1748369981517935473,-0.088
1748369981525623336,-0.062,96,617
1748369981533311433,-0.062,,611
1748369981540999530,-0.08600000000000001
1748369981548687627,-0.096
1748369981556375724,-0.088
1748369981564063821,-0.088
1748369981571751918,-0.088
1748369981579440015,-0.081
1748369981587128112,-0.079
1748369981594816209,-0.101
1748369981602504306,-0.151
1748369981610192403,-0.084
1748369981617880500,0.341
1748369981625568597,0.933
1748369981633256694,1.022
1748369981640944791,0.34600000000000003
1748369981648632888,-0.379
1748369981656320985,-0.423
1748369981664009082,-0.185
1748369981671697179,-0.194
1748369981679385276,-0.197
1748369981687073373,-0.098
1748369981694761470,-0.093
1748369981702449567,-0.113
1748369981710137664,-0.079
1748369981717825761,-0.057
1748369981725513858,-0.06
1748369981733201955,-0.05
1748369981740890052,-0.036000000000000004
1748369981748578149,-0.031
1748369981756266246,-0.026000000000000002
1748369981763954343,-0.016
1748369981771642440,-0.009000000000000001
1748369981779330537,-0.002
1748369981787018634,0.004
1748369981794706731,0.012
1748369981802394828,0.019
1748369981810082925,0.026000000000000002
1748369981817771022,0.031
1748369981825459119,0.036000000000000004
1748369981833147216,0.043000000000000003
1748369981840835313,0.045
1748369981848523410,0.045
1748369981856211507,0.045
1748369981863899604,0.045
1748369981871587701,0.048
1748369981879275798,0.055
1748369981886963895,0.06
1748369981894651992,0.057
1748369981902340089,0.043000000000000003
1748369981910028186,0.016
1748369981917716283,-0.014
1748369981925404380,-0.043000000000000003
1748369981933092477,-0.069
1748369981940780574,-0.093
1748369981948468671,-0.105
1748369981956156768,-0.113
1748369981963844865,-0.12
1748369981971532962,-0.122
1748369981979221059,-0.122
1748369981986909156,-0.117
1748369981994597253,-0.117
1748369982002285350,-0.115
1748369982009973447,-0.117
1748369982017661544,-0.115
1748369982025349641,-0.115
1748369982033037738,-0.117
1748369982040725835,-0.12
1748369982048413932,-0.12
1748369982056102029,-0.12
1748369982063790126,-0.12
1748369982071478223,-0.12
1748369982079166320,-0.12
1748369982086854443,-0.115
1748369982094541425,-0.113
1748369982102228407,-0.113
1748369982109915389,-0.113
1748369982117602371,-0.113
1748369982125289353,-0.117
1748369982132976335,-0.125
1748369982140663317,-0.127
1748369982148350299,-0.122
1748369982156037281,-0.108
1748369982163724263,-0.096
1748369982171411245,-0.08600000000000001
1748369982179098227,-0.06
1748369982186785209,-0.048
1748369982194472191,-0.064
1748369982202159173,-0.084
1748369982209846155,-0.084
1748369982217533137,-0.081
1748369982225220119,-0.081
1748369982232907101,-0.076
1748369982240594083,-0.069
1748369982248281065,-0.076
1748369982255968047,-0.113
1748369982263655029,-0.132
1748369982271342011,0.084
1748369982279028993,0.651
1748369982286715975,1.067
1748369982294402957,0.726
1748369982302089939,-0.11
1748369982309776921,-0.517
1748369982317463903,-0.307
1748369982325150885,-0.17
1748369982332837867,-0.218
1748369982340524849,-0.14100000000000001
1748369982348211831,-0.074
1748369982355898813,-0.10300000000000001
1748369982363585795,-0.096
1748369982371272777,-0.06
1748369982378959759,-0.055
1748369982386646741,-0.05
1748369982394333723,-0.036000000000000004
1748369982402020705,-0.026000000000000002
1748369982409707687,-0.021
1748369982417394669,-0.012
1748369982425081651,-0.004
1748369982432768633,0.002
1748369982440455615,0.009000000000000001
1748369982448142597,0.019
1748369982455829579,0.026000000000000002
1748369982463516561,0.028
1748369982471203543,0.036000000000000004
1748369982478890525,0.045
1748369982486577507,0.052000000000000005
1748369982494264489,0.06
1748369982501951471,0.062
1748369982509638453,0.067
1748369982517325435,0.074
1748369982525012417,0.081
1748369982532699399,0.08600000000000001
1748369982540386381,0.096
1748369982548073363,0.101
1748369982555760345,0.088
1748369982563447327,0.06
1748369982571134309,0.033
1748369982578821291,0.002
1748369982586508273,-0.033
1748369982594195255,-0.067
1748369982601882237,-0.091
1748369982609569219,-0.11
1748369982617256201,-0.12
1748369982624943183,-0.117
1748369982632630165,-0.122
1748369982640317147,-0.125
1748369982648004166,-0.122,96,615
1748369982655691705,-0.125
1748369982663379244,-0.129
1748369982671066783,-0.129
1748369982678754322,-0.127
1748369982686441861,-0.129
1748369982694129400,-0.132
1748369982701816939,-0.129
1748369982709504478,-0.129
1748369982717192017,-0.129
1748369982724879556,-0.129
1748369982732567095,-0.132
1748369982740254634,-0.129
1748369982747942173,-0.125
1748369982755629712,-0.127
1748369982763317251,-0.125
1748369982771004790,-0.12
1748369982778692329,-0.12
1748369982786379868,-0.127
1748369982794067407,-0.125
1748369982801754946,-0.12
1748369982809442485,-0.125
1748369982817130024,-0.12
1748369982824817563,-0.108
1748369982832505102,-0.101
1748369982840192641,-0.08600000000000001
1748369982847880180,-0.062
1748369982855567719,-0.064
1748369982863255258,-0.084
1748369982870942797,-0.088
1748369982878630336,-0.084
1748369982886317875,-0.084
1748369982894005414,-0.081
1748369982901692953,-0.079
1748369982909380492,-0.079
1748369982917068031,-0.096
1748369982924755570,-0.11
1748369982932443109,0.055
1748369982940130648,0.581
1748369982947818187,1.055
1748369982955505726,0.757
1748369982963193265,-0.14400000000000002
1748369982970880804,-0.637
1748369982978568343,-0.42
1748369982986255882,-0.228
1748369982993943421,-0.259
1748369983001630960,-0.168
1748369983009318499,-0.06
1748369983017006038,-0.076
1748369983024693577,-0.079
1748369983032381116,-0.04
1748369983040068655,-0.033
1748369983047756194,-0.033
1748369983055443733,-0.016
1748369983063131272,-0.007
1748369983070818811,-0.004
1748369983078506350,0.007
1748369983086193889,0.019
1748369983093881428,0.024
1748369983101568967,0.031
1748369983109256506,0.04
1748369983116944045,0.05
1748369983124631584,0.057
1748369983132319123,0.064
1748369983140006662,0.074
1748369983147694201,0.08600000000000001
1748369983155381740,0.098
1748369983163069279,0.11
1748369983170756818,0.117
1748369983178444357,0.127
1748369983186131896,0.139
1748369983193819435,0.149
1748369983201506974,0.153
1748369983209194581,0.151
1748369983216882120,0.132
1748369983224569659,0.096
1748369983232257198,0.052000000000000005
1748369983239944737,0.007
1748369983247632276,-0.04
1748369983255319815,-0.084
1748369983263007354,-0.11
1748369983270694893,-0.127
1748369983278382432,-0.139
1748369983286069971,-0.14100000000000001
1748369983293757510,-0.139
1748369983301445049,-0.137
1748369983309132588,-0.134
1748369983316820127,-0.134
1748369983324507666,-0.132
1748369983332195205,-0.129
1748369983339882744,-0.132
1748369983347570283,-0.134
1748369983355257822,-0.137
1748369983362945361,-0.139
1748369983370632900,-0.14100000000000001
1748369983378320439,-0.14100000000000001
1748369983386007978,-0.14100000000000001
1748369983393695517,-0.139
1748369983401383056,-0.139
1748369983409070595,-0.139
1748369983416758134,-0.137
1748369983424445673,-0.134
1748369983432133212,-0.132
1748369983439820751,-0.129
1748369983447508290,-0.129
1748369983455195829,-0.132
1748369983462883368,-0.137
1748369983470570907,-0.14100000000000001
1748369983478258446,-0.139
1748369983485945985,-0.129
1748369983493633524,-0.115
1748369983501321063,-0.108
1748369983509008602,-0.091
1748369983516696141,-0.064
1748369983524383680,-0.067
1748369983532071219,-0.091
1748369983539758758,-0.093
1748369983547446297,-0.088
1748369983555133836,-0.091
1748369983562821375,-0.088
1748369983570508914,-0.081
1748369983578196453,-0.081
1748369983585883992,-0.105
1748369983593571531,-0.146
1748369983601259070,-0.045
1748369983608946609,0.418
1748369983616634148,0.985
1748369983624321687,0.969
1748369983632009226,0.209
1748369983639696765,-0.464
1748369983647384304,-0.41600000000000004
1748369983655071843,-0.187
1748369983662759382,-0.216
1748369983670446921,-0.192
1748369983678134460,-0.093
1748369983685821999,-0.101
1748369983693509538,-0.115
1748369983701197077,-0.074
1748369983708884616,-0.057
1748369983716572155,-0.06
1748369983724259694,-0.048
1748369983731947233,-0.036000000000000004
1748369983739634772,-0.031
1748369983747322311,-0.024
1748369983755009850,-0.014
1748369983762697389,-0.007
1748369983770385000,0.0,97,625
1748369983778072539,0.007,,657
1748369983785760078,0.014
1748369983793447617,0.021
1748369983801135156,0.028
1748369983808822695,0.038
1748369983816510234,0.043000000000000003
1748369983824197773,0.05
1748369983831885312,0.055
1748369983839572851,0.057
1748369983847260390,0.057
1748369983854947929,0.06
1748369983862635468,0.062
1748369983870323007,0.067
1748369983878010546,0.07200000000000001
1748369983885698085,0.069
1748369983893385624,0.052000000000000005
1748369983901073163,0.024
1748369983908760702,-0.009000000000000001
1748369983916448241,-0.04
1748369983924135780,-0.069
1748369983931823319,-0.096
1748369983939510858,-0.113
1748369983947198397,-0.122
1748369983954885936,-0.125
1748369983962573475,-0.127
1748369983970261014,-0.127
1748369983977948553,-0.125
1748369983985636092,-0.125
1748369983993323631,-0.125
1748369984001011170,-0.125
1748369984008698709,-0.125
1748369984016386248,-0.125
1748369984024073787,-0.125
1748369984031761326,-0.125
1748369984039448865,-0.125
1748369984047136404,-0.125
1748369984054823943,-0.125
1748369984062511482,-0.125
1748369984070199021,-0.125
1748369984077886560,-0.122
1748369984085574099,-0.12
1748369984093261638,-0.117
1748369984100949177,-0.117
1748369984108636716,-0.115
1748369984116324255,-0.11
1748369984124011794,-0.108
1748369984131699333,-0.10300000000000001
1748369984139386872,-0.10300000000000001
1748369984147074411,-0.101
1748369984154761950,-0.098
1748369984162449489,-0.093
1748369984170137028,-0.093
1748369984177824567,-0.091
1748369984185512106,-0.088
1748369984193199645,-0.08600000000000001
1748369984200887184,-0.088
1748369984208574723,-0.093
1748369984216262262,-0.101
1748369984223949801,-0.10300000000000001
1748369984231637340,-0.101
1748369984239324879,-0.08600000000000001
1748369984247012418,-0.074
1748369984254699957,-0.064
1748369984262387496,-0.043000000000000003
1748369984270075035,-0.026000000000000002
1748369984277762574,-0.043000000000000003
1748369984285450113,-0.064
1748369984293137652,-0.064
1748369984300825191,-0.062
1748369984308512730,-0.064
1748369984316200269,-0.06
1748369984323887808,-0.055
1748369984331575415,-0.064
1748369984339262954,-0.105
1748369984346950493,-0.127
1748369984354638032,0.108
1748369984362325571,0.678
1748369984370013110,1.072
1748369984377700649,0.721
1748369984385388188,-0.10300000000000001
1748369984393075727,-0.47800000000000004
1748369984400763266,-0.259
1748369984408450805,-0.146
1748369984416138344,-0.20400000000000001
1748369984423825883,-0.127
1748369984431513422,-0.069
1748369984439200961,-0.101
1748369984446888500,-0.088
1748369984454576039,-0.052000000000000005
1748369984462263578,-0.052000000000000005
1748369984469951117,-0.048
1748369984477638656,-0.031
1748369984485326195,-0.024
1748369984493013734,-0.021
1748369984500701273,-0.014
1748369984508388812,-0.007
1748369984516076351,-0.002
1748369984523763890,0.004
1748369984531451429,0.009000000000000001
1748369984539138968,0.014
1748369984546826507,0.021
1748369984554514046,0.028
1748369984562201585,0.033
1748369984569889124,0.036000000000000004
1748369984577576663,0.04
1748369984585264202,0.043000000000000003
1748369984592951741,0.043000000000000003
1748369984600639280,0.04
1748369984608326819,0.043000000000000003
1748369984616014358,0.048
1748369984623701897,0.052000000000000005
1748369984631389436,0.06
1748369984639076975,0.06
1748369984646764514,0.048
1748369984654452053,0.026000000000000002
1748369984662139592,0.004
1748369984669827131,-0.021
1748369984677514670,-0.05
1748369984685202209,-0.074
1748369984692889748,-0.091
1748369984700577287,-0.10300000000000001
1748369984708264826,-0.11
1748369984715952365,-0.11
1748369984723639904,-0.113
1748369984731327443,-0.113
1748369984739014982,-0.108
1748369984746702521,-0.108
1748369984754390060,-0.108
1748369984762077599,-0.108
1748369984769765138,-0.108
1748369984777452677,-0.11
1748369984785140216,-0.113
1748369984792827755,-0.115
1748369984800515294,-0.115
1748369984808202833,-0.113
1748369984815890372,-0.113
1748369984823577911,-0.113
1748369984831265450,-0.113
1748369984838952989,-0.11
1748369984846640528,-0.108
1748369984854328067,-0.105
1748369984862015606,-0.10300000000000001
1748369984869703145,-0.101
1748369984877390684,-0.098
1748369984885078223,-0.098
1748369984892765830,-0.096,96,662
1748369984900453648,-0.093
1748369984908141466,-0.091
1748369984915829284,-0.088
1748369984923517102,-0.08600000000000001
1748369984931204920,-0.08600000000000001
1748369984938892738,-0.081
1748369984946580556,-0.079
1748369984954268374,-0.079
1748369984961956192,-0.079
1748369984969644010,-0.081
1748369984977331828,-0.088
1748369984985019646,-0.096
1748369984992707464,-0.093
1748369985000395282,-0.081
1748369985008083100,-0.069
1748369985015770918,-0.06
1748369985023458736,-0.045
1748369985031146554,-0.024
1748369985038834372,-0.026000000000000002
1748369985046522190,-0.048
1748369985054210008,-0.062
1748369985061897826,-0.06
1748369985069585644,-0.057
1748369985077273462,-0.055
1748369985084961280,-0.052000000000000005
1748369985092649098,-0.052000000000000005
1748369985100336916,-0.074
1748369985108024734,-0.117
1748369985115712552,-0.019
1748369985123400370,0.435
1748369985131088188,0.969
1748369985138776006,0.909
1748369985146463824,0.165
1748369985154151642,-0.447
1748369985161839460,-0.372
1748369985169527278,-0.161
1748369985177215096,-0.194
1748369985184902914,-0.158
1748369985192590732,-0.06
1748369985200278550,-0.074
1748369985207966368,-0.088
1748369985215654186,-0.05
1748369985223342004,-0.038
1748369985231029822,-0.04
1748369985238717640,-0.026000000000000002
1748369985246405458,-0.014
1748369985254093276,-0.012
1748369985261781094,-0.004
1748369985269468912,0.004
1748369985277156730,0.009000000000000001
1748369985284844548,0.014
1748369985292532366,0.021
1748369985300220184,0.028
1748369985307908002,0.036000000000000004
1748369985315595820,0.043000000000000003
1748369985323283638,0.048
1748369985330971456,0.052000000000000005
1748369985338659274,0.057
1748369985346347092,0.062
1748369985354034910,0.062
1748369985361722728,0.064
1748369985369410546,0.067
1748369985377098364,0.069
1748369985384786182,0.076
1748369985392474000,0.081
1748369985400161818,0.081
1748369985407849636,0.069
1748369985415537454,0.045
1748369985423225272,0.016
1748369985430913090,-0.012
1748369985438600908,-0.043000000000000003
1748369985446288726,-0.07200000000000001
1748369985453976593,-0.088,95,671
1748369985461664202,-0.101
1748369985469351811,-0.11
1748369985477039420,-0.113
1748369985484727029,-0.113
1748369985492414638,-0.11
1748369985500102247,-0.11
1748369985507789856,-0.11
1748369985515477465,-0.11
1748369985523165074,-0.11
1748369985530852683,-0.11
1748369985538540292,-0.11
1748369985546227901,-0.113
1748369985553915510,-0.115
1748369985561603119,-0.117
1748369985569290728,-0.115
1748369985576978337,-0.115
1748369985584665946,-0.115
1748369985592353555,-0.115
1748369985600041164,-0.113
1748369985607728773,-0.113
1748369985615416382,-0.11
1748369985623103991,-0.11
1748369985630791600,-0.11
1748369985638479209,-0.11
1748369985646166818,-0.108
1748369985653854427,-0.105
1748369985661542036,-0.10300000000000001
1748369985669229645,-0.10300000000000001
1748369985676917254,-0.098
1748369985684604863,-0.096
1748369985692292472,-0.098
1748369985699980081,-0.096
1748369985707667690,-0.093
1748369985715355299,-0.093
1748369985723042908,-0.093
1748369985730730517,-0.091
1748369985738418126,-0.091
1748369985746105735,-0.088
1748369985753793344,-0.088
1748369985761480953,-0.088
1748369985769168562,-0.091
1748369985776856171,-0.091
1748369985784543780,-0.098
1748369985792231389,-0.108
1748369985799918998,-0.113
1748369985807606607,-0.113
1748369985815294216,-0.10300000000000001
1748369985822981825,-0.091
1748369985830669434,-0.088
1748369985838357043,-0.07200000000000001
1748369985846044652,-0.052000000000000005
1748369985853732261,-0.064
1748369985861419870,-0.091
1748369985869107479,-0.096
1748369985876795088,-0.093
1748369985884482697,-0.098
1748369985892170306,-0.098
1748369985899857915,-0.096
1748369985907545524,-0.10300000000000001
1748369985915233133,-0.134
1748369985922920742,-0.156
1748369985930608351,0.045
1748369985938295960,0.581
1748369985945983569,0.976
1748369985953671178,0.642
1748369985961358787,-0.163
1748369985969046396,-0.55
1748369985976734005,-0.34800000000000003
1748369985984421614,-0.223
1748369985992109223,-0.269
1748369985999796832,-0.187
1748369986007484441,-0.12
1748369986015172095,-0.153
1748369986022859704,-0.146
1748369986030547313,-0.113
1748369986038234922,-0.113
1748369986045922531,-0.113
1748369986053610140,-0.098
1748369986061297749,-0.091
1748369986068985358,-0.091
1748369986076672967,-0.084
1748369986084360576,-0.079
1748369986092048185,-0.074
1748369986099735794,-0.067
1748369986107423403,-0.062
1748369986115111012,-0.057
1748369986122798621,-0.05
1748369986130486230,-0.045
1748369986138173839,-0.043000000000000003
1748369986145861448,-0.038
1748369986153549057,-0.031
1748369986161236666,-0.028
1748369986168924275,-0.026000000000000002
1748369986176611884,-0.021
1748369986184299493,-0.016
1748369986191987102,-0.012
1748369986199674711,-0.002
1748369986207362320,0.002
1748369986215049929,0.0
1748369986222737538,-0.016
1748369986230425147,-0.043000000000000003
1748369986238112756,-0.074
1748369986245800365,-0.105
1748369986253487974,-0.134
1748369986261175583,-0.161
1748369986268863192,-0.182
1748369986276550801,-0.197
1748369986284238410,-0.20400000000000001
1748369986291926019,-0.20600000000000002
1748369986299613628,-0.209
1748369986307301237,-0.20600000000000002
1748369986314988846,-0.20400000000000001
1748369986322676455,-0.20400000000000001
1748369986330364064,-0.20400000000000001
1748369986338051673,-0.20400000000000001
1748369986345739282,-0.20400000000000001
1748369986353426891,-0.20400000000000001
1748369986361114500,-0.20600000000000002
1748369986368802109,-0.20600000000000002
1748369986376489718,-0.20600000000000002
1748369986384177327,-0.20600000000000002
1748369986391864936,-0.20400000000000001
1748369986399552545,-0.20400000000000001
1748369986407240154,-0.202
1748369986414927763,-0.202
1748369986422615372,-0.199
1748369986430302981,-0.197
1748369986437990590,-0.192
1748369986445678199,-0.189
1748369986453365808,-0.187
1748369986461053417,-0.185
1748369986468741026,-0.18
1748369986476428635,-0.177
1748369986484116244,-0.17500000000000002
1748369986491803853,-0.17300000000000001
1748369986499491462,-0.17
1748369986507179071,-0.168
1748369986514866680,-0.163
1748369986522554289,-0.158
1748369986530241898,-0.156
1748369986537929507,-0.153
1748369986545617116,-0.153
1748369986553304725,-0.151
1748369986560992334,-0.151
1748369986568679943,-0.153
1748369986576367597,-0.161,93,750
1748369986584055136,-0.165,,764
1748369986591742675,-0.161
1748369986599430214,-0.149
1748369986607117753,-0.137
1748369986614805292,-0.127
1748369986622492831,-0.11
1748369986630180370,-0.088
1748369986637867909,-0.093
1748369986645555448,-0.115
1748369986653242987,-0.122
1748369986660930526,-0.117
1748369986668618065,-0.117
1748369986676305604,-0.113
1748369986683993143,-0.108
1748369986691680682,-0.11
1748369986699368221,-0.132
1748369986707055760,-0.158
1748369986714743299,-0.007
1748369986722430838,0.497
1748369986730118377,0.964
1748369986737805916,0.723
1748369986745493455,-0.093
1748369986753180994,-0.5740000000000001
1748369986760868533,-0.401
1748369986768556072,-0.23
1748369986776243611,-0.262
1748369986783931150,-0.185
1748369986791618689,-0.096
1748369986799306228,-0.117
1748369986806993767,-0.12
1748369986814681306,-0.084
1748369986822368845,-0.076
1748369986830056384,-0.074
1748369986837743923,-0.057
1748369986845431462,-0.045
1748369986853119001,-0.04
1748369986860806540,-0.033
1748369986868494079,-0.026000000000000002
1748369986876181618,-0.016
1748369986883869157,-0.007
1748369986891556696,0.0
1748369986899244235,0.009000000000000001
1748369986906931774,0.019
1748369986914619313,0.028
1748369986922306852,0.038
1748369986929994391,0.05
1748369986937681930,0.06
1748369986945369469,0.064
1748369986953057008,0.069
1748369986960744547,0.079
1748369986968432086,0.084
1748369986976119625,0.08600000000000001
1748369986983807164,0.093
1748369986991494703,0.101
1748369986999182242,0.096
1748369987006869781,0.079
1748369987014557320,0.045
1748369987022244859,0.004
1748369987029932398,-0.036000000000000004
1748369987037619937,-0.074
1748369987045307476,-0.10300000000000001
1748369987052995015,-0.12
1748369987060682554,-0.132
1748369987068370093,-0.137
1748369987076057632,-0.139
1748369987083745171,-0.137
1748369987091432710,-0.134
1748369987099120249,-0.134
1748369987106807788,-0.132
1748369987114495327,-0.127
1748369987122182866,-0.122
1748369987129870405,-0.127
1748369987137558012,-0.127
1748369987145245551,-0.127
1748369987152933090,-0.129
1748369987160620629,-0.127
1748369987168308168,-0.127
1748369987175995707,-0.125
1748369987183683246,-0.125
1748369987191370785,-0.122
1748369987199058324,-0.12
1748369987206745863,-0.117
1748369987214433402,-0.117
1748369987222120941,-0.113
1748369987229808480,-0.108
1748369987237496019,-0.105
1748369987245183558,-0.10300000000000001
1748369987252871097,-0.101
1748369987260558636,-0.096
1748369987268246175,-0.093
1748369987275933714,-0.091
1748369987283621253,-0.088
1748369987291308792,-0.084
1748369987298996331,-0.081
1748369987306683870,-0.084
1748369987314371409,-0.091
1748369987322058948,-0.093
1748369987329746487,-0.091
1748369987337434026,-0.081
1748369987345121565,-0.069
1748369987352809104,-0.062
1748369987360496643,-0.052000000000000005
1748369987368184182,-0.026000000000000002
1748369987375871721,-0.019
1748369987383559260,-0.038
1748369987391246799,-0.05
1748369987398934338,-0.045
1748369987406621877,-0.048
1748369987414309416,-0.045
1748369987421996955,-0.04
1748369987429684494,-0.04
1748369987437372033,-0.05
1748369987445059572,-0.069
1748369987452747111,0.009000000000000001
1748369987460434650,0.41600000000000004
1748369987468122189,0.973
1748369987475809728,0.9590000000000001
1748369987483497267,0.17300000000000001
1748369987491184806,-0.521
1748369987498872345,-0.47100000000000003
1748369987506559884,-0.221
1748369987514247423,-0.218
1748369987521934962,-0.168
1748369987529622501,-0.038
1748369987537310040,-0.028
1748369987544997579,-0.048
1748369987552685118,-0.014
1748369987560372657,0.004
1748369987568060196,0.002
1748369987575747735,0.014
1748369987583435274,0.028
1748369987591122813,0.033
1748369987598810352,0.04
1748369987606497891,0.052000000000000005
1748369987614185430,0.06
1748369987621872969,0.067
1748369987629560508,0.079
1748369987637248047,0.08600000000000001
1748369987644935586,0.096
1748369987652623125,0.105
1748369987660310664,0.115
1748369987667998203,0.127
1748369987675685742,0.139
1748369987683373281,0.149
1748369987691060820,0.158
1748369987698748427,0.165,90,813
1748369987706435966,0.17300000000000001
1748369987714123505,0.18
1748369987721811044,0.185
1748369987729498583,0.187
1748369987737186122,0.18
1748369987744873661,0.156
1748369987752561200,0.117
1748369987760248739,0.067
1748369987767936278,0.014
1748369987775623817,-0.031
1748369987783311356,-0.064
1748369987790998895,-0.08600000000000001
1748369987798686434,-0.101
1748369987806373973,-0.105
1748369987814061512,-0.105
1748369987821749051,-0.10300000000000001
1748369987829436590,-0.096
1748369987837124129,-0.091
1748369987844811668,-0.08600000000000001
1748369987852499207,-0.084
1748369987860186746,-0.081
1748369987867874285,-0.079
1748369987875561824,-0.081
1748369987883249363,-0.084
1748369987890936902,-0.084
1748369987898624441,-0.084
1748369987906311980,-0.08600000000000001
1748369987913999519,-0.08600000000000001
1748369987921687058,-0.08600000000000001
1748369987929374597,-0.08600000000000001
1748369987937062136,-0.08600000000000001
1748369987944749675,-0.084
1748369987952437214,-0.081
1748369987960124753,-0.081
1748369987967812292,-0.079
1748369987975499831,-0.076
1748369987983187370,-0.074
1748369987990874909,-0.07200000000000001
1748369987998562448,-0.067
1748369988006249987,-0.067
1748369988013937526,-0.062
1748369988021625065,-0.06
1748369988029312604,-0.057
1748369988037000143,-0.055
1748369988044687682,-0.052000000000000005
1748369988052375221,-0.057
1748369988060062760,-0.067
1748369988067750299,-0.069
1748369988075437838,-0.067
1748369988083125377,-0.06
1748369988090812916,-0.045
1748369988098500455,-0.036000000000000004
1748369988106187994,-0.021
1748369988113875533,0.002
1748369988121563072,-0.002
1748369988129250611,-0.026000000000000002
1748369988136938150,-0.033
1748369988144625689,-0.028
1748369988152313228,-0.031
1748369988160000767,-0.031
1748369988167688306,-0.026000000000000002
1748369988175375845,-0.026000000000000002
1748369988183063384,-0.05
1748369988190750923,-0.096
1748369988198438462,0.007
1748369988206126001,0.483
1748369988213813540,1.031
1748369988221501079,0.983
1748369988229188618,0.23500000000000001
1748369988236876157,-0.396
1748369988244563696,-0.339
1748369988252251235,-0.134
1748369988259938842,-0.168
1748369988267626381,-0.137
1748369988275313920,-0.043000000000000003
1748369988283001459,-0.052000000000000005
1748369988290688998,-0.067
1748369988298376537,-0.033
1748369988306064076,-0.019
1748369988313751615,-0.021
1748369988321439154,-0.007
1748369988329126693,0.004
1748369988336814232,0.007
1748369988344501771,0.014
1748369988352189310,0.024
1748369988359876849,0.031
1748369988367564388,0.036000000000000004
1748369988375251927,0.043000000000000003
1748369988382939466,0.052000000000000005
1748369988390627005,0.062
1748369988398314544,0.07200000000000001
1748369988406002083,0.081
1748369988413689622,0.088
1748369988421377161,0.098
1748369988429064700,0.105
1748369988436752239,0.108
1748369988444439778,0.108
1748369988452127317,0.108
1748369988459814856,0.108
1748369988467502395,0.108
1748369988475189934,0.108
1748369988482877473,0.10300000000000001
1748369988490565012,0.088
1748369988498252551,0.064
1748369988505940090,0.028
1748369988513627629,-0.009000000000000001
1748369988521315168,-0.043000000000000003
1748369988529002707,-0.067
1748369988536690246,-0.084
1748369988544377785,-0.096
1748369988552065324,-0.101
1748369988559752863,-0.101
1748369988567440402,-0.101
1748369988575127941,-0.098
1748369988582815480,-0.096
1748369988590503019,-0.096
1748369988598190558,-0.093
1748369988605878097,-0.093
1748369988613565636,-0.093
1748369988621253175,-0.093
1748369988628940714,-0.093
1748369988636628253,-0.093
1748369988644315792,-0.096
1748369988652003331,-0.096
1748369988659690870,-0.096
1748369988667378409,-0.093
1748369988675065948,-0.093
1748369988682753487,-0.091
1748369988690441026,-0.091
1748369988698128565,-0.088
1748369988705816104,-0.088
1748369988713503643,-0.08600000000000001
1748369988721191182,-0.08600000000000001
1748369988728878721,-0.081
1748369988736566260,-0.079
1748369988744253799,-0.076
1748369988751941338,-0.074
1748369988759628877,-0.074
1748369988767316416,-0.079
1748369988775003955,-0.088
1748369988782691494,-0.093
1748369988790379033,-0.088
1748369988798066572,-0.079
1748369988805754111,-0.064
1748369988813441650,-0.057
1748369988821129257,-0.04,88,785
1748369988828816796,-0.019
1748369988836504335,-0.024
1748369988844191874,-0.048
1748369988851879413,-0.055
1748369988859566952,-0.048
1748369988867254491,-0.05
1748369988874942030,-0.05
1748369988882629569,-0.043000000000000003
1748369988890317108,-0.048
1748369988898004647,-0.067
1748369988905692186,-0.108
1748369988913379725,-0.016
1748369988921067264,0.428
1748369988928754803,0.981
1748369988936442342,0.964
1748369988944129881,0.23800000000000002
1748369988951817420,-0.41600000000000004
1748369988959504959,-0.396
1748369988967192498,-0.182
1748369988974880037,-0.194
1748369988982567576,-0.165
1748369988990255115,-0.064
1748369988997942654,-0.067
1748369989005630193,-0.084
1748369989013317732,-0.048
1748369989021005271,-0.033
1748369989028692810,-0.038
1748369989036380349,-0.024
1748369989044067888,-0.009000000000000001
1748369989051755427,-0.004
1748369989059442966,0.0
1748369989067130505,0.012
1748369989074818044,0.019
1748369989082505583,0.024
1748369989090193122,0.033
1748369989097880661,0.04
1748369989105568200,0.052000000000000005
1748369989113255739,0.064
1748369989120943278,0.07200000000000001
1748369989128630817,0.081
1748369989136318356,0.091
1748369989144005895,0.101
1748369989151693434,0.10300000000000001
1748369989159380973,0.105
1748369989167068512,0.108
1748369989174756051,0.108
1748369989182443590,0.11
1748369989190131129,0.11
1748369989197818668,0.101
1748369989205506207,0.081
1748369989213193746,0.05
1748369989220881285,0.009000000000000001
1748369989228568824,-0.031
1748369989236256363,-0.064
1748369989243943902,-0.093
1748369989251631441,-0.11
1748369989259318980,-0.12
1748369989267006519,-0.122
1748369989274694058,-0.125
1748369989282381597,-0.122
1748369989290069136,-0.12
1748369989297756675,-0.115
1748369989305444214,-0.113
1748369989313131753,-0.11
1748369989320819292,-0.11
1748369989328506831,-0.11
1748369989336194370,-0.11
1748369989343881909,-0.113
1748369989351569448,-0.113
1748369989359256987,-0.113
1748369989366944526,-0.113
1748369989374632065,-0.113
1748369989382319672,-0.113
1748369989390007211,-0.113
1748369989397694750,-0.113
1748369989405382289,-0.11
1748369989413069828,-0.11
1748369989420757367,-0.108
1748369989428444906,-0.10300000000000001
1748369989436132445,-0.101
1748369989443819984,-0.101
1748369989451507523,-0.098
1748369989459195062,-0.096
1748369989466882601,-0.096
1748369989474570140,-0.098
1748369989482257679,-0.105
1748369989489945218,-0.11
1748369989497632757,-0.113
1748369989505320296,-0.105
1748369989513007835,-0.093
1748369989520695374,-0.084
1748369989528382913,-0.07200000000000001
1748369989536070452,-0.045
1748369989543757991,-0.036000000000000004
1748369989551445530,-0.06
1748369989559133069,-0.076
1748369989566820608,-0.074
1748369989574508147,-0.07200000000000001
1748369989582195686,-0.07200000000000001
1748369989589883225,-0.067
1748369989597570764,-0.067
1748369989605258303,-0.076
1748369989612945842,-0.113
1748369989620633381,-0.105
1748369989628320920,0.182
1748369989636008459,0.762
1748369989643695998,1.038
1748369989651383537,0.538
1748369989659071076,-0.254
1748369989666758615,-0.497
1748369989674446154,-0.274
1748369989682133693,-0.199
1748369989689821232,-0.218
1748369989697508771,-0.12
1748369989705196310,-0.074
1748369989712883849,-0.10300000000000001
1748369989720571388,-0.08600000000000001
1748369989728258927,-0.06
1748369989735946466,-0.06
1748369989743634005,-0.05
1748369989751321544,-0.036000000000000004
1748369989759009083,-0.028
1748369989766696622,-0.024
1748369989774384161,-0.014
1748369989782071700,-0.007
1748369989789759239,0.0
1748369989797446778,0.009000000000000001
1748369989805134317,0.019
1748369989812821856,0.028
1748369989820509395,0.038
1748369989828196934,0.048
1748369989835884473,0.06
1748369989843572012,0.069
1748369989851259551,0.079
1748369989858947090,0.08600000000000001
1748369989866634629,0.091
1748369989874322168,0.091
1748369989882009707,0.096
1748369989889697246,0.10300000000000001
1748369989897384785,0.105
1748369989905072324,0.101
1748369989912759863,0.084
1748369989920447402,0.055
1748369989928134941,0.014
1748369989935822480,-0.028
1748369989943510087,-0.069,85,740
1748369989951197696,-0.101,,745
1748369989958885305,-0.122
1748369989966572914,-0.134
1748369989974260523,-0.139
1748369989981948132,-0.14400000000000002
1748369989989635741,-0.14100000000000001
1748369989997323350,-0.139
1748369990005010959,-0.137
1748369990012698568,-0.134
1748369990020386177,-0.132
1748369990028073786,-0.129
1748369990035761395,-0.129
1748369990043449004,-0.129
1748369990051136613,-0.129
1748369990058824222,-0.129
1748369990066511831,-0.132
1748369990074199440,-0.134
1748369990081887049,-0.132
1748369990089574658,-0.129
1748369990097262267,-0.129
1748369990104949876,-0.127
1748369990112637485,-0.125
1748369990120325094,-0.125
1748369990128012703,-0.122
1748369990135700312,-0.122
1748369990143387921,-0.12
1748369990151075530,-0.117
1748369990158763139,-0.113
1748369990166450748,-0.108
1748369990174138357,-0.105
1748369990181825966,-0.10300000000000001
1748369990189513575,-0.105
1748369990197201184,-0.113
1748369990204888793,-0.117
1748369990212576402,-0.115
1748369990220264011,-0.11
1748369990227951620,-0.101
1748369990235639229,-0.088
1748369990243326838,-0.081
1748369990251014447,-0.062
1748369990258702056,-0.04
1748369990266389665,-0.055
1748369990274077274,-0.076
1748369990281764883,-0.076
1748369990289452492,-0.07200000000000001
1748369990297140101,-0.076
1748369990304827710,-0.074
1748369990312515319,-0.069
1748369990320202928,-0.07200000000000001
1748369990327890537,-0.096
1748369990335578146,-0.11
1748369990343265755,0.084
1748369990350953364,0.63
1748369990358640973,1.06
1748369990366328582,0.723
1748369990374016191,-0.12
1748369990381703800,-0.543
1748369990389391409,-0.355
1748369990397079018,-0.209
1748369990404766627,-0.23500000000000001
1748369990412454236,-0.149
1748369990420141845,-0.064
1748369990427829454,-0.088
1748369990435517063,-0.088
1748369990443204672,-0.055
1748369990450892281,-0.048
1748369990458579890,-0.045
1748369990466267499,-0.026000000000000002
1748369990473955108,-0.014
1748369990481642717,-0.012
1748369990489330326,-0.002
1748369990497017935,0.007
1748369990504705593,0.014,85,715
1748369990512393202,0.024
1748369990520080811,0.036000000000000004
1748369990527768420,0.043000000000000003
1748369990535456029,0.052000000000000005
1748369990543143638,0.064
1748369990550831247,0.076
1748369990558518856,0.091
1748369990566206465,0.101
1748369990573894074,0.108
1748369990581581683,0.115
1748369990589269292,0.122
1748369990596956901,0.129
1748369990604644510,0.134
1748369990612332119,0.139
1748369990620019728,0.137
1748369990627707337,0.125
1748369990635394946,0.096
1748369990643082555,0.05
1748369990650770164,0.002
1748369990658457773,-0.045
1748369990666145382,-0.084
1748369990673832991,-0.108
1748369990681520600,-0.122
1748369990689208209,-0.132
1748369990696895818,-0.137
1748369990704583427,-0.134
1748369990712271036,-0.132
1748369990719958645,-0.127
1748369990727646254,-0.122
1748369990735333863,-0.122
1748369990743021472,-0.117
1748369990750709081,-0.115
1748369990758396690,-0.117
1748369990766084299,-0.12
1748369990773771908,-0.12
1748369990781459517,-0.12
1748369990789147126,-0.12
1748369990796834735,-0.12
1748369990804522344,-0.12
1748369990812209953,-0.12
1748369990819897562,-0.12
1748369990827585171,-0.117
1748369990835272780,-0.115
1748369990842960389,-0.113
1748369990850647998,-0.11
1748369990858335607,-0.108
1748369990866023216,-0.105
1748369990873710825,-0.10300000000000001
1748369990881398434,-0.101
1748369990889086043,-0.101
1748369990896773652,-0.10300000000000001
1748369990904461261,-0.108
1748369990912148870,-0.11
1748369990919836479,-0.108
1748369990927524088,-0.098
1748369990935211697,-0.08600000000000001
1748369990942899306,-0.081
1748369990950586915,-0.067
1748369990958274524,-0.04
1748369990965962133,-0.04
1748369990973649742,-0.064
1748369990981337351,-0.07200000000000001
1748369990989024960,-0.064
1748369990996712569,-0.067
1748369991004400178,-0.067
1748369991012087787,-0.062
1748369991019775396,-0.062
1748369991027463005,-0.074
1748369991035150614,-0.098
1748369991042838223,-0.007
1748369991050525832,0.428
1748369991058213441,0.995
1748369991065901095,0.9590000000000001
1748369991073588704,0.158
1748369991081276313,-0.529
1748369991088963922,-0.485
1748369991096651531,-0.245
1748369991104339140,-0.242
1748369991112026749,-0.192
1748369991119714358,-0.067
1748369991127401967,-0.06
1748369991135089576,-0.076
1748369991142777185,-0.04
1748369991150464794,-0.024
1748369991158152403,-0.026000000000000002
1748369991165840012,-0.014
1748369991173527621,-0.002
1748369991181215230,0.002
1748369991188902839,0.012
1748369991196590448,0.021
1748369991204278057,0.028
1748369991211965666,0.038
1748369991219653275,0.05
1748369991227340884,0.06
1748369991235028493,0.069
1748369991242716102,0.081
1748369991250403711,0.096
1748369991258091320,0.108
1748369991265778929,0.12
1748369991273466538,0.132
1748369991281154147,0.139
1748369991288841756,0.14400000000000002
1748369991296529365,0.151
1748369991304216974,0.156
1748369991311904583,0.158
1748369991319592192,0.156
1748369991327279801,0.14400000000000002
1748369991334967410,0.117
1748369991342655019,0.076
1748369991350342628,0.026000000000000002
1748369991358030237,-0.026000000000000002
1748369991365717846,-0.074
1748369991373405455,-0.108
1748369991381093064,-0.125
1748369991388780673,-0.134
1748369991396468282,-0.139
1748369991404155891,-0.137
1748369991411843500,-0.132
1748369991419531109,-0.125
1748369991427218718,-0.12
1748369991434906327,-0.117
1748369991442593936,-0.115
1748369991450281545,-0.113
1748369991457969154,-0.113
1748369991465656763,-0.11
1748369991473344372,-0.11
1748369991481031981,-0.11
1748369991488719590,-0.113
1748369991496407199,-0.115
1748369991504094808,-0.115
1748369991511782417,-0.115
1748369991519470026,-0.115
1748369991527157635,-0.115
1748369991534845244,-0.115
1748369991542532853,-0.113
1748369991550220462,-0.108
1748369991557908071,-0.108
1748369991565595680,-0.105
1748369991573283289,-0.10300000000000001
1748369991580970898,-0.101
1748369991588658507,-0.098
1748369991596346116,-0.093
1748369991604033725,-0.091
1748369991611721334,-0.088
1748369991619408943,-0.088
1748369991627096597,-0.088,84,710
1748369991634783927,-0.091
1748369991642471257,-0.098
1748369991650158587,-0.101
1748369991657845917,-0.098
1748369991665533247,-0.084
1748369991673220577,-0.07200000000000001
1748369991680907907,-0.069
1748369991688595237,-0.05
1748369991696282567,-0.026000000000000002
1748369991703969897,-0.036000000000000004
1748369991711657227,-0.06
1748369991719344557,-0.062
1748369991727031887,-0.06
1748369991734719217,-0.062
1748369991742406547,-0.06
1748369991750093877,-0.055
1748369991757781207,-0.06
1748369991765468537,-0.084
1748369991773155867,-0.129
1748369991780843197,-0.031
1748369991788530527,0.437
1748369991796217857,1.0050000000000001
1748369991803905187,0.983
1748369991811592517,0.245
1748369991819279847,-0.40800000000000003
1748369991826967177,-0.382
1748369991834654507,-0.177
1748369991842341837,-0.199
1748369991850029167,-0.17500000000000002
1748369991857716497,-0.081
1748369991865403827,-0.08600000000000001
1748369991873091157,-0.101
1748369991880778487,-0.067
1748369991888465817,-0.052000000000000005
1748369991896153147,-0.052000000000000005
1748369991903840477,-0.038
1748369991911527807,-0.026000000000000002
1748369991919215137,-0.024
1748369991926902467,-0.016
1748369991934589797,-0.007
1748369991942277127,-0.002
1748369991949964457,0.007
1748369991957651787,0.016
1748369991965339117,0.026000000000000002
1748369991973026447,0.036000000000000004
1748369991980713777,0.045
1748369991988401107,0.057
1748369991996088437,0.069
1748369992003775767,0.079
1748369992011463097,0.088
1748369992019150427,0.093
1748369992026837757,0.098
1748369992034525087,0.098
1748369992042212417,0.098
1748369992049899747,0.098
1748369992057587077,0.096
1748369992065274407,0.088
1748369992072961737,0.07200000000000001
1748369992080649067,0.045
1748369992088336397,0.012
1748369992096023727,-0.026000000000000002
1748369992103711057,-0.062
1748369992111398387,-0.088
1748369992119085717,-0.108
1748369992126773047,-0.115
1748369992134460377,-0.12
1748369992142147707,-0.122
1748369992149835037,-0.122
1748369992157522367,-0.12
1748369992165209697,-0.117
1748369992172897027,-0.115
1748369992180584357,-0.113
1748369992188271751,-0.11
1748369992195959290,-0.11
1748369992203646829,-0.11
1748369992211334368,-0.11
1748369992219021907,-0.113
1748369992226709446,-0.113
1748369992234396985,-0.113
1748369992242084524,-0.11
1748369992249772063,-0.11
1748369992257459602,-0.11
1748369992265147141,-0.11
1748369992272834680,-0.11
1748369992280522219,-0.108
1748369992288209758,-0.105
1748369992295897297,-0.10300000000000001
1748369992303584836,-0.098
1748369992311272375,-0.098
1748369992318959914,-0.096
1748369992326647453,-0.093
1748369992334334992,-0.093
1748369992342022531,-0.091
1748369992349710070,-0.088
1748369992357397609,-0.08600000000000001
1748369992365085148,-0.084
1748369992372772687,-0.084
1748369992380460226,-0.093
1748369992388147765,-0.098
1748369992395835304,-0.098
1748369992403522843,-0.093
1748369992411210382,-0.081
1748369992418897921,-0.069
1748369992426585460,-0.062
1748369992434272999,-0.038
1748369992441960538,-0.026000000000000002
1748369992449648077,-0.045
1748369992457335616,-0.064
1748369992465023155,-0.062
1748369992472710694,-0.062
1748369992480398233,-0.064
1748369992488085772,-0.06
1748369992495773311,-0.057
1748369992503460850,-0.064
1748369992511148389,-0.098
1748369992518835928,-0.125
1748369992526523467,0.081
1748369992534211006,0.642
1748369992541898545,1.067
1748369992549586084,0.755
1748369992557273623,-0.052000000000000005
1748369992564961162,-0.47800000000000004
1748369992572648701,-0.305
1748369992580336240,-0.17300000000000001
1748369992588023779,-0.214
1748369992595711318,-0.14100000000000001
1748369992603398857,-0.069
1748369992611086396,-0.093
1748369992618773935,-0.088
1748369992626461474,-0.055
1748369992634149013,-0.05
1748369992641836552,-0.048
1748369992649524091,-0.033
1748369992657211630,-0.024
1748369992664899169,-0.019
1748369992672586708,-0.009000000000000001
1748369992680274247,-0.002
1748369992687961786,0.004
1748369992695649325,0.014
1748369992703336864,0.024
1748369992711024403,0.031
1748369992718711942,0.043000000000000003
1748369992726399481,0.052000000000000005
1748369992734087020,0.067
1748369992741774559,0.076
1748369992749462166,0.088,84,717
1748369992757149705,0.096,,702
1748369992764837244,0.101
1748369992772524783,0.10300000000000001
1748369992780212322,0.10300000000000001
1748369992787899861,0.101
1748369992795587400,0.098
1748369992803274939,0.096
1748369992810962478,0.084
1748369992818650017,0.06
1748369992826337556,0.031
1748369992834025095,-0.007
1748369992841712634,-0.048
1748369992849400173,-0.081
1748369992857087712,-0.105
1748369992864775251,-0.12
1748369992872462790,-0.127
1748369992880150329,-0.132
1748369992887837868,-0.129
1748369992895525407,-0.127
1748369992903212946,-0.125
1748369992910900485,-0.122
1748369992918588024,-0.117
1748369992926275563,-0.115
1748369992933963102,-0.115
1748369992941650641,-0.115
1748369992949338180,-0.115
1748369992957025719,-0.115
1748369992964713258,-0.115
1748369992972400797,-0.115
1748369992980088336,-0.115
1748369992987775875,-0.115
1748369992995463414,-0.115
1748369993003150953,-0.115
1748369993010838492,-0.113
1748369993018526031,-0.113
1748369993026213570,-0.11
1748369993033901109,-0.108
1748369993041588648,-0.108
1748369993049276187,-0.105
1748369993056963726,-0.101
1748369993064651265,-0.098
1748369993072338804,-0.096
1748369993080026343,-0.093
1748369993087713882,-0.091
1748369993095401421,-0.091
1748369993103088960,-0.093
1748369993110776499,-0.098
1748369993118464038,-0.10300000000000001
1748369993126151577,-0.105
1748369993133839116,-0.101
1748369993141526655,-0.088
1748369993149214194,-0.079
1748369993156901733,-0.07200000000000001
1748369993164589272,-0.05
1748369993172276811,-0.031
1748369993179964350,-0.048
1748369993187651889,-0.07200000000000001
1748369993195339428,-0.07200000000000001
1748369993203026967,-0.067
1748369993210714506,-0.069
1748369993218402045,-0.067
1748369993226089584,-0.062
1748369993233777123,-0.067
1748369993241464662,-0.091
1748369993249152201,-0.127
1748369993256839740,-0.002
1748369993264527279,0.49
1748369993272214818,1.0050000000000001
1748369993279902357,0.87
1748369993287589896,0.101
1748369993295277435,-0.464
1748369993302964974,-0.372
1748369993310652581,-0.189
1748369993318340120,-0.221
1748369993326027659,-0.17
1748369993333715198,-0.074
1748369993341402737,-0.08600000000000001
1748369993349090276,-0.096
1748369993356777815,-0.062
1748369993364465354,-0.05
1748369993372152893,-0.052000000000000005
1748369993379840432,-0.036000000000000004
1748369993387527971,-0.024
1748369993395215510,-0.019
1748369993402903049,-0.012
1748369993410590588,-0.004
1748369993418278127,0.002
1748369993425965666,0.012
1748369993433653205,0.024
1748369993441340744,0.033
1748369993449028283,0.043000000000000003
1748369993456715822,0.055
1748369993464403361,0.069
1748369993472090900,0.079
1748369993479778439,0.088
1748369993487465978,0.098
1748369993495153517,0.105
1748369993502841056,0.108
1748369993510528595,0.11
1748369993518216134,0.11
1748369993525903673,0.11
1748369993533591212,0.108
1748369993541278751,0.098
1748369993548966290,0.076
1748369993556653829,0.043000000000000003
1748369993564341368,0.004
1748369993572028907,-0.04
1748369993579716446,-0.079
1748369993587403985,-0.105
1748369993595091524,-0.122
1748369993602779063,-0.132
1748369993610466602,-0.137
1748369993618154141,-0.137
1748369993625841680,-0.132
1748369993633529219,-0.129
1748369993641216758,-0.127
1748369993648904297,-0.125
1748369993656591836,-0.12
1748369993664279375,-0.117
1748369993671966914,-0.117
1748369993679654453,-0.117
1748369993687341992,-0.115
1748369993695029531,-0.117
1748369993702717070,-0.12
1748369993710404609,-0.12
1748369993718092148,-0.117
1748369993725779687,-0.117
1748369993733467226,-0.117
1748369993741154765,-0.117
1748369993748842304,-0.115
1748369993756529843,-0.113
1748369993764217382,-0.113
1748369993771904921,-0.108
1748369993779592460,-0.105
1748369993787279999,-0.10300000000000001
1748369993794967538,-0.10300000000000001
1748369993802655077,-0.101
1748369993810342616,-0.096
1748369993818030155,-0.093
1748369993825717694,-0.091
1748369993833405233,-0.091
1748369993841092772,-0.088
1748369993848780311,-0.084
1748369993856467850,-0.081
1748369993864155389,-0.079
1748369993871843000,-0.076,84,738
1748369993879530539,-0.079
1748369993887218078,-0.08600000000000001
1748369993894905617,-0.093
1748369993902593156,-0.093
1748369993910280695,-0.088
1748369993917968234,-0.076
1748369993925655773,-0.067
1748369993933343312,-0.062
1748369993941030851,-0.043000000000000003
1748369993948718390,-0.026000000000000002
1748369993956405929,-0.038
1748369993964093468,-0.06
1748369993971781007,-0.06
1748369993979468546,-0.057
1748369993987156085,-0.06
1748369993994843624,-0.057
1748369994002531163,-0.052000000000000005
1748369994010218702,-0.057
1748369994017906241,-0.084
1748369994025593780,-0.12
1748369994033281319,0.014
1748369994040968858,0.514
1748369994048656397,1.012
1748369994056343936,0.834
1748369994064031475,0.05
1748369994071719014,-0.48
1748369994079406553,-0.37
1748369994087094092,-0.192
1748369994094781631,-0.218
1748369994102469170,-0.163
1748369994110156709,-0.067
1748369994117844248,-0.081
1748369994125531787,-0.091
1748369994133219326,-0.055
1748369994140906865,-0.043000000000000003
1748369994148594404,-0.043000000000000003
1748369994156281943,-0.031
1748369994163969482,-0.019
1748369994171657021,-0.016
1748369994179344560,-0.009000000000000001
1748369994187032099,0.0
1748369994194719638,0.009000000000000001
1748369994202407177,0.019
1748369994210094716,0.026000000000000002
1748369994217782255,0.036000000000000004
1748369994225469794,0.045
1748369994233157333,0.057
1748369994240844872,0.067
1748369994248532411,0.079
1748369994256219950,0.093
1748369994263907489,0.10300000000000001
1748369994271595028,0.108
1748369994279282567,0.113
1748369994286970106,0.113
1748369994294657645,0.115
1748369994302345184,0.12
1748369994310032723,0.12
1748369994317720262,0.113
1748369994325407801,0.096
1748369994333095340,0.069
1748369994340782879,0.031
1748369994348470418,-0.012
1748369994356157957,-0.052000000000000005
1748369994363845496,-0.08600000000000001
1748369994371533035,-0.105
1748369994379220574,-0.117
1748369994386908113,-0.125
1748369994394595652,-0.127
1748369994402283191,-0.125
1748369994409970730,-0.12
1748369994417658269,-0.117
1748369994425345808,-0.115
1748369994433033415,-0.113
1748369994440720745,-0.113
1748369994448408075,-0.113
1748369994456095405,-0.113
1748369994463782735,-0.113
1748369994471470065,-0.113
1748369994479157395,-0.115
1748369994486844725,-0.117
1748369994494532055,-0.12
1748369994502219385,-0.117
1748369994509906715,-0.117
1748369994517594045,-0.115
1748369994525281375,-0.115
1748369994532968705,-0.113
1748369994540656035,-0.11
1748369994548343365,-0.11
1748369994556030695,-0.108
1748369994563718025,-0.105
1748369994571405355,-0.10300000000000001
1748369994579092685,-0.10300000000000001
1748369994586780015,-0.098
1748369994594467345,-0.096
1748369994602154675,-0.096
1748369994609842005,-0.093
1748369994617529335,-0.091
1748369994625216665,-0.091
1748369994632903995,-0.093
1748369994640591325,-0.098
1748369994648278655,-0.10300000000000001
1748369994655965985,-0.10300000000000001
1748369994663653315,-0.096
1748369994671340645,-0.084
1748369994679027975,-0.074
1748369994686715305,-0.069
1748369994694402635,-0.045
1748369994702089965,-0.028
1748369994709777295,-0.048
1748369994717464625,-0.069
1748369994725151955,-0.067
1748369994732839285,-0.064
1748369994740526615,-0.069
1748369994748213945,-0.064
1748369994755901275,-0.06
1748369994763588605,-0.064
1748369994771275935,-0.091
1748369994778963265,-0.115
1748369994786650595,0.052000000000000005
1748369994794337925,0.581
1748369994802025255,1.034
1748369994809712585,0.752
1748369994817399915,-0.064
1748369994825087245,-0.524
1748369994832774575,-0.363
1748369994840461905,-0.20400000000000001
1748369994848149235,-0.233
1748369994855836565,-0.153
1748369994863523895,-0.064
1748369994871211225,-0.084
1748369994878898555,-0.08600000000000001
1748369994886585885,-0.052000000000000005
1748369994894273215,-0.043000000000000003
1748369994901960545,-0.043000000000000003
1748369994909647875,-0.026000000000000002
1748369994917335205,-0.016
1748369994925022535,-0.014
1748369994932709865,-0.007
1748369994940397195,0.002
1748369994948084525,0.009000000000000001
1748369994955771855,0.019
1748369994963459185,0.028
1748369994971146515,0.04
1748369994978833845,0.05
1748369994986521175,0.062
1748369994994208573,0.074,84,743
1748369995001896182,0.08600000000000001
1748369995009583791,0.098
1748369995017271400,0.108
1748369995024959009,0.115
1748369995032646618,0.12
1748369995040334227,0.12
1748369995048021836,0.12
1748369995055709445,0.122
1748369995063397054,0.12
1748369995071084663,0.108
1748369995078772272,0.088
1748369995086459881,0.055
1748369995094147490,0.012
1748369995101835099,-0.036000000000000004
1748369995109522708,-0.074
1748369995117210317,-0.10300000000000001
1748369995124897926,-0.122
1748369995132585535,-0.132
1748369995140273144,-0.134
1748369995147960753,-0.134
1748369995155648362,-0.132
1748369995163335971,-0.125
1748369995171023580,-0.122
1748369995178711189,-0.12
1748369995186398798,-0.115
1748369995194086407,-0.113
1748369995201774016,-0.11
1748369995209461625,-0.11
1748369995217149234,-0.11
1748369995224836843,-0.113
1748369995232524452,-0.113
1748369995240212061,-0.115
1748369995247899670,-0.115
1748369995255587279,-0.115
1748369995263274888,-0.115
1748369995270962497,-0.113
1748369995278650106,-0.11
1748369995286337715,-0.11
1748369995294025324,-0.108
1748369995301712933,-0.105
1748369995309400542,-0.10300000000000001
1748369995317088151,-0.101
1748369995324775760,-0.098
1748369995332463369,-0.096
1748369995340150978,-0.093
1748369995347838587,-0.091
1748369995355526196,-0.091
1748369995363213805,-0.088
1748369995370901414,-0.08600000000000001
1748369995378589023,-0.084
1748369995386276632,-0.084
1748369995393964241,-0.079
1748369995401651850,-0.076
1748369995409339459,-0.076
1748369995417027068,-0.079
1748369995424714677,-0.08600000000000001
1748369995432402286,-0.091
1748369995440089895,-0.091
1748369995447777504,-0.08600000000000001
1748369995455465113,-0.07200000000000001
1748369995463152722,-0.062
1748369995470840331,-0.055
1748369995478527940,-0.033
1748369995486215549,-0.019
1748369995493903158,-0.038
1748369995501590767,-0.06
1748369995509278376,-0.055
1748369995516965985,-0.052000000000000005
1748369995524653594,-0.057
1748369995532341203,-0.052000000000000005
1748369995540028812,-0.05
1748369995547716421,-0.057
1748369995555404075,-0.088,84,731
1748369995563091684,-0.122,,776
1748369995570779293,0.055
1748369995578466902,0.596
1748369995586154511,1.048
1748369995593842120,0.795
1748369995601529729,0.014
1748369995609217338,-0.44
1748369995616904947,-0.295
1748369995624592556,-0.163
1748369995632280165,-0.211
1748369995639967774,-0.14400000000000002
1748369995647655383,-0.069
1748369995655342992,-0.093
1748369995663030601,-0.091
1748369995670718210,-0.057
1748369995678405819,-0.052000000000000005
1748369995686093428,-0.05
1748369995693781037,-0.033
1748369995701468646,-0.024
1748369995709156255,-0.021
1748369995716843864,-0.014
1748369995724531473,-0.004
1748369995732219082,0.002
1748369995739906691,0.012
1748369995747594300,0.019
1748369995755281909,0.028
1748369995762969518,0.04
1748369995770657127,0.05
1748369995778344736,0.06
1748369995786032345,0.074
1748369995793719954,0.084
1748369995801407563,0.091
1748369995809095172,0.096
1748369995816782781,0.098
1748369995824470390,0.101
1748369995832157999,0.101
1748369995839845608,0.101
1748369995847533217,0.098
1748369995855220826,0.088
1748369995862908435,0.07200000000000001
1748369995870596044,0.048
1748369995878283653,0.014
1748369995885971262,-0.024
1748369995893658871,-0.06
1748369995901346480,-0.088
1748369995909034089,-0.108
1748369995916721698,-0.117
1748369995924409307,-0.122
1748369995932096916,-0.125
1748369995939784525,-0.122
1748369995947472134,-0.12
1748369995955159743,-0.117
1748369995962847352,-0.113
1748369995970534961,-0.11
1748369995978222570,-0.11
1748369995985910179,-0.108
1748369995993597788,-0.108
1748369996001285397,-0.11
1748369996008973006,-0.113
1748369996016660615,-0.11
1748369996024348224,-0.113
1748369996032035833,-0.113
1748369996039723442,-0.113
1748369996047411051,-0.113
1748369996055098660,-0.115
1748369996062786269,-0.113
1748369996070473878,-0.11
1748369996078161487,-0.108
1748369996085849096,-0.11
1748369996093536705,-0.108
1748369996101224314,-0.10300000000000001
1748369996108911923,-0.10300000000000001
1748369996116599577,-0.10300000000000001
1748369996124287186,-0.101
1748369996131974795,-0.098
1748369996139662404,-0.096
1748369996147350013,-0.091
1748369996155037622,-0.088
1748369996162725231,-0.088
1748369996170412840,-0.08600000000000001
1748369996178100449,-0.084
1748369996185788058,-0.084
1748369996193475667,-0.088
1748369996201163276,-0.096
1748369996208850885,-0.098
1748369996216538494,-0.098
1748369996224226103,-0.091
1748369996231913712,-0.079
1748369996239601321,-0.07200000000000001
1748369996247288930,-0.06
1748369996254976539,-0.036000000000000004
1748369996262664148,-0.031
1748369996270351757,-0.055
1748369996278039366,-0.069
1748369996285726975,-0.064
1748369996293414584,-0.064
1748369996301102193,-0.067
1748369996308789802,-0.06
1748369996316477411,-0.057
1748369996324165020,-0.069
1748369996331852629,-0.11
1748369996339540238,-0.12
1748369996347227847,0.134
1748369996354915456,0.709
1748369996362603065,1.038
1748369996370290674,0.61
1748369996377978283,-0.17
1748369996385665892,-0.464
1748369996393353501,-0.264
1748369996401041110,-0.182
1748369996408728719,-0.218
1748369996416416328,-0.127
1748369996424103937,-0.07200000000000001
1748369996431791546,-0.10300000000000001
1748369996439479155,-0.088
1748369996447166764,-0.057
1748369996454854373,-0.055
1748369996462541982,-0.052000000000000005
1748369996470229591,-0.036000000000000004
1748369996477917200,-0.031
1748369996485604809,-0.026000000000000002
1748369996493292418,-0.016
1748369996500980027,-0.007
1748369996508667636,0.0
1748369996516355245,0.009000000000000001
1748369996524042854,0.019
1748369996531730463,0.028
1748369996539418072,0.038
1748369996547105681,0.05
1748369996554793290,0.062
1748369996562480899,0.074
1748369996570168508,0.08600000000000001
1748369996577856117,0.093
1748369996585543726,0.101
1748369996593231335,0.10300000000000001
1748369996600918944,0.101
1748369996608606553,0.098
1748369996616294162,0.098
1748369996623981771,0.093
1748369996631669380,0.081
1748369996639356989,0.062
1748369996647044598,0.033
1748369996654732207,-0.004
1748369996662419816,-0.045
1748369996670107425,-0.081
1748369996677795079,-0.108,83,753
1748369996685482270,-0.122
1748369996693169461,-0.129
1748369996700856652,-0.132
1748369996708543843,-0.132
1748369996716231034,-0.132
1748369996723918225,-0.127
1748369996731605416,-0.125
1748369996739292607,-0.122
1748369996746979798,-0.12
1748369996754666989,-0.115
1748369996762354180,-0.115
1748369996770041371,-0.115
1748369996777728562,-0.113
1748369996785415753,-0.113
1748369996793102944,-0.115
1748369996800790135,-0.115
1748369996808477326,-0.115
1748369996816164517,-0.115
1748369996823851708,-0.115
1748369996831538899,-0.115
1748369996839226090,-0.113
1748369996846913281,-0.113
1748369996854600472,-0.11
1748369996862287663,-0.108
1748369996869974854,-0.10300000000000001
1748369996877662045,-0.10300000000000001
1748369996885349236,-0.101
1748369996893036427,-0.098
1748369996900723618,-0.096
1748369996908410809,-0.096
1748369996916098000,-0.093
1748369996923785191,-0.091
1748369996931472382,-0.08600000000000001
1748369996939159573,-0.08600000000000001
1748369996946846764,-0.084
1748369996954533955,-0.079
1748369996962221146,-0.079
1748369996969908337,-0.079
1748369996977595528,-0.081
1748369996985282719,-0.088
1748369996992969910,-0.093
1748369997000657101,-0.096
1748369997008344292,-0.088
1748369997016031483,-0.07200000000000001
1748369997023718674,-0.064
1748369997031405865,-0.055
1748369997039093056,-0.031
1748369997046780247,-0.024
1748369997054467438,-0.045
1748369997062154629,-0.062
1748369997069841820,-0.057
1748369997077529011,-0.057
1748369997085216202,-0.062
1748369997092903393,-0.057
1748369997100590584,-0.052000000000000005
1748369997108277775,-0.062
1748369997115964966,-0.096
1748369997123652157,-0.12
1748369997131339348,0.079
1748369997139026539,0.625
1748369997146713730,1.031
1748369997154400921,0.711
1748369997162088112,-0.064
1748369997169775303,-0.454
1748369997177462494,-0.28300000000000003
1748369997185149685,-0.17
1748369997192836876,-0.214
1748369997200524067,-0.134
1748369997208211258,-0.064
1748369997215898449,-0.093
1748369997223585640,-0.088
1748369997231272831,-0.055
1748369997238960063,-0.05
1748369997246647533,-0.048
1748369997254335003,-0.031
1748369997262022473,-0.021
1748369997269709943,-0.014
1748369997277397413,-0.007
1748369997285084883,0.0
1748369997292772353,0.007
1748369997300459823,0.016
1748369997308147293,0.026000000000000002
1748369997315834763,0.033
1748369997323522233,0.043000000000000003
1748369997331209703,0.055
1748369997338897173,0.067
1748369997346584643,0.079
1748369997354272113,0.091
1748369997361959583,0.10300000000000001
1748369997369647053,0.108
1748369997377334523,0.113
1748369997385021993,0.113
1748369997392709463,0.11
1748369997400396933,0.108
1748369997408084403,0.108
1748369997415771873,0.096
1748369997423459343,0.079
1748369997431146813,0.055
1748369997438834283,0.019
1748369997446521753,-0.021
1748369997454209223,-0.06
1748369997461896693,-0.088
1748369997469584163,-0.108
1748369997477271633,-0.12
1748369997484959103,-0.125
1748369997492646573,-0.122
1748369997500334043,-0.12
1748369997508021513,-0.117
1748369997515708983,-0.113
1748369997523396453,-0.11
1748369997531083923,-0.108
1748369997538771393,-0.108
1748369997546458863,-0.105
1748369997554146333,-0.10300000000000001
1748369997561833803,-0.10300000000000001
1748369997569521273,-0.105
1748369997577208743,-0.105
1748369997584896213,-0.105
1748369997592583683,-0.108
1748369997600271153,-0.108
1748369997607958623,-0.108
1748369997615646093,-0.108
1748369997623333563,-0.108
1748369997631021033,-0.105
1748369997638708503,-0.10300000000000001
1748369997646395973,-0.10300000000000001
1748369997654083443,-0.101
1748369997661770913,-0.098
1748369997669458383,-0.096
1748369997677145853,-0.093
1748369997684833323,-0.091
1748369997692520793,-0.088
1748369997700208263,-0.08600000000000001
1748369997707895733,-0.091
1748369997715583203,-0.098
1748369997723270673,-0.10300000000000001
1748369997730958143,-0.101
1748369997738645613,-0.093
1748369997746333083,-0.079
1748369997754020553,-0.069
1748369997761708023,-0.052000000000000005
1748369997769395493,-0.026000000000000002
1748369997777082963,-0.031
1748369997784770433,-0.06
1748369997792457903,-0.064
1748369997800145391,-0.057,83,784
1748369997807832930,-0.06
1748369997815520469,-0.062
1748369997823208008,-0.055
1748369997830895547,-0.055
1748369997838583086,-0.069
1748369997846270625,-0.108
1748369997853958164,-0.088
1748369997861645703,0.24
1748369997869333242,0.839
1748369997877020781,1.06
1748369997884708320,0.488
1748369997892395859,-0.28800000000000003
1748369997900083398,-0.468
1748369997907770937,-0.24
1748369997915458476,-0.192
1748369997923146015,-0.20400000000000001
1748369997930833554,-0.098
1748369997938521093,-0.064
1748369997946208632,-0.093
1748369997953896171,-0.07200000000000001
1748369997961583710,-0.043000000000000003
1748369997969271249,-0.04
1748369997976958788,-0.033
1748369997984646327,-0.021
1748369997992333866,-0.014
1748369998000021405,-0.002
1748369998007708944,0.004
1748369998015396483,0.009000000000000001
1748369998023084022,0.021
1748369998030771561,0.036000000000000004
1748369998038459100,0.048
1748369998046146639,0.057
1748369998053834178,0.07200000000000001
1748369998061521717,0.084
1748369998069209256,0.096
1748369998076896795,0.113
1748369998084584334,0.129
1748369998092271873,0.137
1748369998099959412,0.139
1748369998107646951,0.14100000000000001
1748369998115334490,0.139
1748369998123022029,0.134
1748369998130709568,0.129
1748369998138397107,0.117
1748369998146084646,0.098
1748369998153772185,0.07200000000000001
1748369998161459724,0.033
1748369998169147263,-0.012
1748369998176834802,-0.06
1748369998184522341,-0.098
1748369998192209880,-0.122
1748369998199897419,-0.134
1748369998207584958,-0.139
1748369998215272497,-0.14100000000000001
1748369998222960036,-0.139
1748369998230647575,-0.134
1748369998238335114,-0.132
1748369998246022653,-0.127
1748369998253710192,-0.12
1748369998261397731,-0.117
1748369998269085270,-0.122
1748369998276772809,-0.117
1748369998284460348,-0.113
1748369998292147887,-0.115
1748369998299835426,-0.115
1748369998307522965,-0.115
1748369998315210504,-0.117
1748369998322898043,-0.12
1748369998330585582,-0.12
1748369998338273121,-0.122
1748369998345960660,-0.117
1748369998353648199,-0.113
1748369998361335806,-0.11
1748369998369023206,-0.115
1748369998376710606,-0.115
1748369998384398006,-0.113
1748369998392085406,-0.117
1748369998399772806,-0.12
1748369998407460206,-0.117
1748369998415147606,-0.113
1748369998422835006,-0.105
1748369998430522406,-0.098
1748369998438209806,-0.088
1748369998445897206,-0.067
1748369998453584606,-0.05
1748369998461272006,-0.064
1748369998468959406,-0.081
1748369998476646806,-0.079
1748369998484334206,-0.079
1748369998492021606,-0.084
1748369998499709006,-0.079
1748369998507396406,-0.074
1748369998515083806,-0.079
1748369998522771206,-0.096
1748369998530458606,-0.108
1748369998538146006,0.067
1748369998545833406,0.622
1748369998553520806,1.113
1748369998561208206,0.81
1748369998568895606,-0.101
1748369998576583006,-0.627
1748369998584270406,-0.449
1748369998591957806,-0.257
1748369998599645206,-0.278
1748369998607332606,-0.187
1748369998615020006,-0.069
1748369998622707406,-0.079
1748369998630394806,-0.084
1748369998638082206,-0.048
1748369998645769606,-0.043000000000000003
1748369998653457006,-0.043000000000000003
1748369998661144406,-0.021
1748369998668831806,-0.007
1748369998676519206,-0.004
1748369998684206606,0.007
1748369998691894006,0.019
1748369998699581406,0.028
1748369998707268806,0.038
1748369998714956206,0.055
1748369998722643606,0.07200000000000001
1748369998730331006,0.08600000000000001
1748369998738018406,0.098
1748369998745705806,0.11
1748369998753393206,0.132
1748369998761080606,0.153
1748369998768768006,0.17
1748369998776455406,0.18
1748369998784142806,0.182
1748369998791830206,0.185
1748369998799517606,0.18
1748369998807205006,0.177
1748369998814892406,0.168
1748369998822579806,0.14100000000000001
1748369998830267206,0.105
1748369998837954606,0.06
1748369998845642006,0.0
1748369998853329406,-0.062
1748369998861016806,-0.115
1748369998868704206,-0.151
1748369998876391606,-0.168
1748369998884079006,-0.17500000000000002
1748369998891766406,-0.177
1748369998899453806,-0.17300000000000001
1748369998907141206,-0.165
1748369998914828606,-0.156
1748369998922516051,-0.149,82,774
1748369998930203312,-0.14100000000000001,,785
1748369998937890573,-0.137
1748369998945577834,-0.132
1748369998953265095,-0.127
1748369998960952356,-0.125
1748369998968639617,-0.129
1748369998976326878,-0.134
1748369998984014139,-0.134
1748369998991701400,-0.134
1748369998999388661,-0.137
1748369999007075922,-0.137
1748369999014763183,-0.134
1748369999022450444,-0.134
1748369999030137705,-0.137
1748369999037824966,-0.137
1748369999045512227,-0.139
1748369999053199488,-0.14100000000000001
1748369999060886749,-0.14100000000000001
1748369999068574010,-0.139
1748369999076261271,-0.129
1748369999083948532,-0.12
1748369999091635793,-0.117
1748369999099323054,-0.096
1748369999107010315,-0.069
1748369999114697576,-0.079
1748369999122384837,-0.10300000000000001
1748369999130072098,-0.10300000000000001
1748369999137759359,-0.098
1748369999145446620,-0.101
1748369999153133881,-0.096
1748369999160821142,-0.091
1748369999168508403,-0.091
1748369999176195664,-0.108
1748369999183882925,-0.14400000000000002
1748369999191570186,-0.06
1748369999199257447,0.404
1748369999206944708,1.022
1748369999214631969,1.031
1748369999222319230,0.23
1748369999230006491,-0.519
1748369999237693752,-0.521
1748369999245381013,-0.262
1748369999253068274,-0.254
1748369999260755535,-0.233
1748369999268442796,-0.113
1748369999276130057,-0.096
1748369999283817318,-0.117
1748369999291504579,-0.084
1748369999299191840,-0.062
1748369999306879101,-0.067
1748369999314566362,-0.055
1748369999322253623,-0.04
1748369999329940884,-0.033
1748369999337628145,-0.026000000000000002
1748369999345315406,-0.014
1748369999353002667,-0.004
1748369999360689928,0.004
1748369999368377189,0.016
1748369999376064450,0.031
1748369999383751711,0.045
1748369999391438972,0.06
1748369999399126233,0.074
1748369999406813494,0.091
1748369999414500755,0.11
1748369999422188016,0.125
1748369999429875277,0.137
1748369999437562538,0.146
1748369999445249799,0.151
1748369999452937060,0.149
1748369999460624321,0.146
1748369999468311582,0.139
1748369999475998843,0.122
1748369999483686118,0.091,81,728
1748369999491373657,0.052000000000000005
1748369999499061196,0.002
1748369999506748735,-0.05
1748369999514436274,-0.098
1748369999522123813,-0.132
1748369999529811352,-0.151
1748369999537498891,-0.161
1748369999545186430,-0.163
1748369999552873969,-0.161
1748369999560561508,-0.156
1748369999568249047,-0.149
1748369999575936586,-0.14100000000000001
1748369999583624125,-0.137
1748369999591311664,-0.132
1748369999598999203,-0.129
1748369999606686742,-0.127
1748369999614374281,-0.122
1748369999622061820,-0.122
1748369999629749359,-0.125
1748369999637436898,-0.125
1748369999645124437,-0.125
1748369999652811976,-0.125
1748369999660499515,-0.127
1748369999668187054,-0.125
1748369999675874593,-0.122
1748369999683562132,-0.122
1748369999691249671,-0.122
1748369999698937210,-0.127
1748369999706624749,-0.132
1748369999714312288,-0.134
1748369999721999827,-0.134
1748369999729687366,-0.127
1748369999737374905,-0.113
1748369999745062444,-0.105
1748369999752749983,-0.088
1748369999760437522,-0.062
1748369999768125061,-0.057
1748369999775812600,-0.079
1748369999783500139,-0.093
1748369999791187678,-0.08600000000000001
1748369999798875217,-0.08600000000000001
1748369999806562756,-0.08600000000000001
1748369999814250295,-0.081
1748369999821937834,-0.076
1748369999829625373,-0.084
1748369999837312912,-0.12
1748369999845000451,-0.161
1748369999852687990,0.009000000000000001
1748369999860375529,0.5740000000000001
1748369999868063068,1.137
1748369999875750607,1.014
1748369999883438146,0.199
1748369999891125685,-0.41600000000000004
1748369999898813224,-0.331
1748369999906500763,-0.163
1748369999914188302,-0.23
1748369999921875841,-0.194
1748369999929563380,-0.10300000000000001
1748369999937250919,-0.122
1748369999944938458,-0.132
1748369999952625997,-0.091
1748369999960313536,-0.079
1748369999968001075,-0.081
1748369999975688614,-0.064
1748369999983376153,-0.052000000000000005
1748369999991063692,-0.048
1748369999998751231,-0.036000000000000004
1748370000006438770,-0.026000000000000002
1748370000014126309,-0.016
1748370000021813848,-0.007
1748370000029501387,0.004
1748370000037188926,0.016
1748370000044876533,0.028
1748370000052564072,0.043000000000000003
1748370000060251611,0.06
1748370000067939150,0.076
1748370000075626689,0.093
1748370000083314228,0.108
1748370000091001767,0.117
1748370000098689306,0.122
1748370000106376845,0.125
1748370000114064384,0.122
1748370000121751923,0.12
1748370000129439462,0.11
1748370000137127001,0.091
1748370000144814540,0.062
1748370000152502079,0.026000000000000002
1748370000160189618,-0.012
1748370000167877157,-0.055
1748370000175564696,-0.091
1748370000183252235,-0.115
1748370000190939774,-0.129
1748370000198627313,-0.134
1748370000206314852,-0.137
1748370000214002391,-0.134
1748370000221689930,-0.132
1748370000229377469,-0.129
1748370000237065008,-0.127
1748370000244752547,-0.125
1748370000252440086,-0.12
1748370000260127625,-0.12
1748370000267815164,-0.12
1748370000275502703,-0.117
1748370000283190242,-0.115
1748370000290877781,-0.115
1748370000298565320,-0.117
1748370000306252859,-0.117
1748370000313940398,-0.117
1748370000321627937,-0.115
1748370000329315476,-0.115
1748370000337003015,-0.115
1748370000344690554,-0.113
1748370000352378093,-0.11
1748370000360065632,-0.108
1748370000367753171,-0.105
1748370000375440710,-0.10300000000000001
1748370000383128249,-0.101
1748370000390815788,-0.098
1748370000398503327,-0.096
1748370000406190866,-0.091
1748370000413878405,-0.091
1748370000421565944,-0.08600000000000001
1748370000429253483,-0.08600000000000001
1748370000436941022,-0.084
1748370000444628561,-0.081
1748370000452316100,-0.079
1748370000460003639,-0.076
1748370000467691178,-0.074
1748370000475378717,-0.07200000000000001
1748370000483066256,-0.07200000000000001
1748370000490753795,-0.076
1748370000498441334,-0.084
1748370000506128873,-0.088
1748370000513816412,-0.088
1748370000521503951,-0.079
1748370000529191490,-0.064
1748370000536879029,-0.057
1748370000544566568,-0.043000000000000003
1748370000552254107,-0.024
1748370000559941646,-0.024
1748370000567629185,-0.045
1748370000575316724,-0.057
1748370000583004263,-0.057
1748370000590691802,-0.055
1748370000598379341,-0.055
1748370000606066952,-0.052000000000000005,81,680
1748370000613754491,-0.05,,656
1748370000621442030,-0.055
1748370000629129569,-0.096
1748370000636817108,-0.146
1748370000644504647,0.019
1748370000652192186,0.5690000000000001
1748370000659879725,1.108
1748370000667567264,0.976
1748370000675254803,0.189
1748370000682942342,-0.391
1748370000690629881,-0.3
1748370000698317420,-0.14400000000000002
1748370000706004959,-0.211
1748370000713692498,-0.17300000000000001
1748370000721380037,-0.088
1748370000729067576,-0.11
1748370000736755115,-0.117
1748370000744442654,-0.079
1748370000752130193,-0.069
1748370000759817732,-0.07200000000000001
1748370000767505271,-0.057
1748370000775192810,-0.045
1748370000782880349,-0.043000000000000003
1748370000790567888,-0.036000000000000004
1748370000798255427,-0.026000000000000002
1748370000805942966,-0.019
1748370000813630505,-0.012
1748370000821318044,0.0
1748370000829005583,0.009000000000000001
1748370000836693122,0.019
1748370000844380661,0.031
1748370000852068200,0.043000000000000003
1748370000859755739,0.055
1748370000867443278,0.069
1748370000875130817,0.084
1748370000882818356,0.091
1748370000890505895,0.098
1748370000898193434,0.10300000000000001
1748370000905880973,0.10300000000000001
1748370000913568512,0.10300000000000001
1748370000921256051,0.101
1748370000928943590,0.093
1748370000936631129,0.079
1748370000944318668,0.055
1748370000952006207,0.026000000000000002
1748370000959693746,-0.007
1748370000967381285,-0.043000000000000003
1748370000975068824,-0.07200000000000001
1748370000982756363,-0.091
1748370000990443902,-0.105
1748370000998131441,-0.115
1748370001005818980,-0.117
1748370001013506519,-0.117
1748370001021194058,-0.115
1748370001028881597,-0.113
1748370001036569136,-0.11
1748370001044256675,-0.11
1748370001051944214,-0.11
1748370001059631753,-0.11
1748370001067319292,-0.108
1748370001075006831,-0.11
1748370001082694370,-0.113
1748370001090381909,-0.11
1748370001098069448,-0.11
1748370001105756987,-0.113
1748370001113444526,-0.11
1748370001121132065,-0.11
1748370001128819604,-0.11
1748370001136507143,-0.11
1748370001144194682,-0.108
1748370001151882221,-0.108
1748370001159569760,-0.105
1748370001167257367,-0.105
1748370001174944906,-0.10300000000000001
1748370001182632445,-0.101
1748370001190319984,-0.098
1748370001198007523,-0.096
1748370001205695062,-0.093
1748370001213382601,-0.091
1748370001221070140,-0.088
1748370001228757679,-0.08600000000000001
1748370001236445218,-0.084
1748370001244132757,-0.081
1748370001251820296,-0.079
1748370001259507835,-0.079
1748370001267195374,-0.076
1748370001274882913,-0.076
1748370001282570452,-0.074
1748370001290257991,-0.07200000000000001
1748370001297945530,-0.069
1748370001305633069,-0.067
1748370001313320608,-0.067
1748370001321008147,-0.064
1748370001328695686,-0.062
1748370001336383225,-0.062
1748370001344070764,-0.062
1748370001351758303,-0.06
1748370001359445842,-0.06
1748370001367133381,-0.057
1748370001374820920,-0.057
1748370001382508459,-0.055
1748370001390195998,-0.055
1748370001397883537,-0.052000000000000005
1748370001405571076,-0.052000000000000005
1748370001413258615,-0.052000000000000005
1748370001420946154,-0.05
1748370001428633693,-0.05
1748370001436321232,-0.048
1748370001444008771,-0.045
1748370001451696310,-0.045
1748370001459383849,-0.045
1748370001467071388,-0.045
1748370001474758927,-0.043000000000000003
1748370001482446466,-0.043000000000000003
1748370001490134005,-0.04
1748370001497821544,-0.04
1748370001505509083,-0.04
1748370001513196622,-0.043000000000000003
1748370001520884161,-0.043000000000000003
1748370001528571700,-0.05
1748370001536259239,-0.06
1748370001543946778,-0.062
1748370001551634317,-0.057
1748370001559321856,-0.048
1748370001567009395,-0.033
1748370001574696934,-0.026000000000000002
1748370001582384473,-0.012
1748370001590072012,0.0
1748370001597759551,-0.014
1748370001605447090,-0.033
1748370001613134629,-0.038
1748370001620822168,-0.036000000000000004
1748370001628509707,-0.036000000000000004
1748370001636197246,-0.036000000000000004
1748370001643884785,-0.033
1748370001651572324,-0.038
1748370001659259863,-0.067
1748370001666947402,-0.132
1748370001674634941,-0.067
1748370001682322480,0.379
1748370001690010019,0.997
1748370001697697558,1.1320000000000001
1748370001705385097,0.507
1748370001713072636,-0.23800000000000002
1748370001720760175,-0.35100000000000003
1748370001728447782,-0.149,82,660
1748370001736135321,-0.177
1748370001743822860,-0.20600000000000002
1748370001751510399,-0.11
1748370001759197938,-0.101
1748370001766885477,-0.127
1748370001774573016,-0.096
1748370001782260555,-0.074
1748370001789948094,-0.079
1748370001797635633,-0.069
1748370001805323172,-0.055
1748370001813010711,-0.052000000000000005
1748370001820698250,-0.045
1748370001828385789,-0.036000000000000004
1748370001836073328,-0.031
1748370001843760867,-0.024
1748370001851448406,-0.014
1748370001859135945,-0.007
