time,ecg,hr,rr,marker
1747251087939585712,-0.189
1747251087947272833,-0.199
1747251087954959954,-0.201
1747251087962647075,-0.189
1747251087970334196,-0.194
1747251087978021317,-0.184
1747251087985708438,-0.145
1747251087993395559,-0.14200000000000002
1747251088001082680,-0.169
1747251088008769801,-0.177
1747251088016456922,-0.184
1747251088024144043,-0.187
1747251088031831164,-0.16
1747251088039518285,-0.147
1747251088047205406,-0.152
1747251088054892527,-0.152
1747251088062579648,-0.157
1747251088070266769,-0.16
1747251088077953890,-0.135
1747251088085641011,-0.115
1747251088093328132,-0.12
1747251088101015253,-0.12
1747251088108702374,-0.096
1747251088116389495,-0.08600000000000001
1747251088124076616,-0.1
1747251088131763737,-0.115
1747251088139450858,-0.132
1747251088147137979,-0.15
1747251088154825100,-0.14
1747251088162512221,-0.12
1747251088170199342,-0.128
1747251088177886463,-0.123
1747251088185573584,-0.10300000000000001
1747251088193260705,-0.11800000000000001
1747251088200947826,-0.157
1747251088208634947,-0.221
1747251088216322068,-0.275
1747251088224009189,-0.002
1747251088231696310,0.8190000000000001
1747251088239383431,1.708
1747251088247070552,1.861
1747251088254757673,0.844
1747251088262444794,-0.482
1747251088270131915,-0.637
1747251088277819036,-0.147
1747251088285506157,-0.167
1747251088293193278,-0.28
1747251088300880399,-0.169
1747251088308567520,-0.155
1747251088316254641,-0.187
1747251088323941762,-0.13
1747251088331628883,-0.091
1747251088339316004,-0.088
1747251088347003125,-0.056
1747251088354690246,-0.027
1747251088362377367,-0.007
1747251088370064488,0.019
1747251088377751609,0.041
1747251088385438730,0.07100000000000001
1747251088393125851,0.11
1747251088400812972,0.145
1747251088408500093,0.194
1747251088416187214,0.265
1747251088423874335,0.322
1747251088431561456,0.356
1747251088439248577,0.396
1747251088446935698,0.42
1747251088454622819,0.41300000000000003
1747251088462309940,0.398
1747251088469997061,0.388
1747251088477684182,0.354
1747251088485371303,0.258
1747251088493058424,0.123
1747251088500745609,-0.012,89,708
1747251088508432730,-0.128,,719
1747251088516119851,-0.221
1747251088523806972,-0.28800000000000003
1747251088531494093,-0.32
1747251088539181214,-0.324
1747251088546868335,-0.317
1747251088554555456,-0.31
1747251088562242577,-0.3
1747251088569929698,-0.3
1747251088577616819,-0.295
1747251088585303940,-0.263
1747251088592991061,-0.241
1747251088600678182,-0.246
1747251088608365303,-0.23600000000000002
1747251088616052424,-0.211
1747251088623739545,-0.20600000000000002
1747251088631426666,-0.216
1747251088639113787,-0.211
1747251088646800908,-0.196
1747251088654488029,-0.189
1747251088662175150,-0.189
1747251088669862271,-0.192
1747251088677549392,-0.189
1747251088685236513,-0.182
1747251088692923634,-0.177
1747251088700610755,-0.182
1747251088708297876,-0.182
1747251088715984997,-0.17400000000000002
1747251088723672118,-0.17400000000000002
1747251088731359239,-0.179
1747251088739046360,-0.164
1747251088746733481,-0.16
1747251088754420602,-0.17200000000000001
1747251088762107723,-0.17200000000000001
1747251088769794844,-0.15
1747251088777481965,-0.123
1747251088785169086,-0.12
1747251088792856207,-0.132
1747251088800543328,-0.12
1747251088808230449,-0.1
1747251088815917570,-0.11
1747251088823604691,-0.145
1747251088831291812,-0.167
1747251088838978933,-0.16
1747251088846666054,-0.15
1747251088854353175,-0.145
1747251088862040296,-0.14
1747251088869727417,-0.14
1747251088877414538,-0.137
1747251088885101659,-0.145
1747251088892788780,-0.187
1747251088900475901,-0.28300000000000003
1747251088908163022,-0.251
1747251088915850143,0.28300000000000003
1747251088923537264,1.189
1747251088931224385,1.752
1747251088938911506,1.3880000000000001
1747251088946598627,0.15
1747251088954285748,-0.706
1747251088961972869,-0.43
1747251088969659990,-0.113
1747251088977347111,-0.248
1747251088985034232,-0.248
1747251088992721353,-0.14
1747251089000408474,-0.162
1747251089008095595,-0.162
1747251089015782716,-0.105
1747251089023469837,-0.091
1747251089031156958,-0.081
1747251089038844079,-0.049
1747251089046531200,-0.034
1747251089054218321,-0.014
1747251089061905506,0.019,88,728
1747251089069592627,0.049
1747251089077279748,0.076
1747251089084966869,0.115
1747251089092653990,0.16
1747251089100341111,0.20600000000000002
1747251089108028232,0.256
1747251089115715353,0.3
1747251089123402474,0.34400000000000003
1747251089131089595,0.381
1747251089138776716,0.388
1747251089146463837,0.376
1747251089154150958,0.359
1747251089161838079,0.324
1747251089169525200,0.263
1747251089177212321,0.164
1747251089184899442,0.029
1747251089192586563,-0.10300000000000001
1747251089200273684,-0.196
1747251089207960805,-0.265
1747251089215647926,-0.315
1747251089223335047,-0.334
1747251089231022168,-0.339
1747251089238709289,-0.337
1747251089246396410,-0.322
1747251089254083531,-0.307
1747251089261770652,-0.29
1747251089269457773,-0.275
1747251089277144894,-0.26
1747251089284832015,-0.246
1747251089292519136,-0.23600000000000002
1747251089300206257,-0.231
1747251089307893378,-0.221
1747251089315580499,-0.20600000000000002
1747251089323267620,-0.201
1747251089330954741,-0.20600000000000002
1747251089338641862,-0.211
1747251089346328983,-0.20600000000000002
1747251089354016104,-0.192
1747251089361703225,-0.179
1747251089369390346,-0.177
1747251089377077467,-0.182
1747251089384764588,-0.187
1747251089392451709,-0.182
1747251089400138830,-0.177
1747251089407825951,-0.17400000000000002
1747251089415513072,-0.169
1747251089423200193,-0.164
1747251089430887314,-0.162
1747251089438574435,-0.164
1747251089446261556,-0.17200000000000001
1747251089453948677,-0.169
1747251089461635798,-0.125
1747251089469322919,-0.093
1747251089477010040,-0.125
1747251089484697161,-0.135
1747251089492384282,-0.10300000000000001
1747251089500071403,-0.108
1747251089507758524,-0.152
1747251089515445645,-0.169
1747251089523132766,-0.16
1747251089530819887,-0.155
1747251089538507008,-0.15
1747251089546194129,-0.14
1747251089553881250,-0.135
1747251089561568371,-0.135
1747251089569255492,-0.14
1747251089576942613,-0.162
1747251089584629734,-0.241
1747251089592316855,-0.27
1747251089600003976,0.152
1747251089607691097,1.046
1747251089615378218,1.725
1747251089623065403,1.536
1747251089630752873,0.366
1747251089638440343,-0.669
1747251089646127813,-0.519
1747251089653815283,-0.115
1747251089661502753,-0.224
1747251089669190223,-0.265
1747251089676877693,-0.145
1747251089684565163,-0.17200000000000001
1747251089692252633,-0.20400000000000001
1747251089699940103,-0.125
1747251089707627573,-0.093
1747251089715315043,-0.10300000000000001
1747251089723002513,-0.073
1747251089730689983,-0.029
1747251089738377453,-0.004
1747251089746064923,0.014
1747251089753752393,0.029
1747251089761439863,0.041
1747251089769127333,0.07100000000000001
1747251089776814803,0.113
1747251089784502273,0.16
1747251089792189743,0.209
1747251089799877213,0.27
1747251089807564683,0.32
1747251089815252153,0.329
1747251089822939623,0.334
1747251089830627093,0.356
1747251089838314563,0.334
1747251089846002033,0.273
1747251089853689503,0.233
1747251089861376973,0.179
1747251089869064443,0.056
1747251089876751913,-0.083
1747251089884439383,-0.179
1747251089892126853,-0.246
1747251089899814323,-0.302
1747251089907501793,-0.329
1747251089915189263,-0.324
1747251089922876733,-0.322
1747251089930564203,-0.32
1747251089938251673,-0.305
1747251089945939143,-0.28800000000000003
1747251089953626613,-0.273
1747251089961314083,-0.251
1747251089969001553,-0.23800000000000002
1747251089976689023,-0.231
1747251089984376493,-0.211
1747251089992063963,-0.20600000000000002
1747251089999751433,-0.221
1747251090007438903,-0.211
1747251090015126373,-0.192
1747251090022813843,-0.187
1747251090030501313,-0.184
1747251090038188783,-0.182
1747251090045876253,-0.177
1747251090053563723,-0.177
1747251090061251193,-0.199
1747251090068938663,-0.199
1747251090076626133,-0.177
1747251090084313603,-0.187
1747251090092001073,-0.192
1747251090099688543,-0.157
1747251090107376013,-0.147
1747251090115063483,-0.164
1747251090122750953,-0.157
1747251090130438423,-0.15
1747251090138125893,-0.164
1747251090145813363,-0.164
1747251090153500833,-0.125
1747251090161188303,-0.10300000000000001
1747251090168875773,-0.12
1747251090176563243,-0.11800000000000001
1747251090184250735,-0.08600000000000001,87,718
1747251090191937926,-0.093,,688
1747251090199625117,-0.14200000000000002
1747251090207312308,-0.162
1747251090214999499,-0.147
1747251090222686690,-0.137
1747251090230373881,-0.137
1747251090238061072,-0.128
1747251090245748263,-0.11800000000000001
1747251090253435454,-0.123
1747251090261122645,-0.152
1747251090268809836,-0.189
1747251090276497027,-0.258
1747251090284184218,-0.263
1747251090291871409,0.177
1747251090299558600,1.061
1747251090307245791,1.723
1747251090314932982,1.5090000000000001
1747251090322620173,0.327
1747251090330307364,-0.669
1747251090337994555,-0.487
1747251090345681746,-0.105
1747251090353368937,-0.23600000000000002
1747251090361056128,-0.28300000000000003
1747251090368743319,-0.157
1747251090376430510,-0.164
1747251090384117701,-0.182
1747251090391804892,-0.11800000000000001
1747251090399492083,-0.093
1747251090407179274,-0.091
1747251090414866465,-0.061
1747251090422553656,-0.039
1747251090430240847,-0.032
1747251090437928038,-0.009000000000000001
1747251090445615229,0.024
1747251090453302420,0.046
1747251090460989611,0.068
1747251090468676802,0.11800000000000001
1747251090476363993,0.17200000000000001
1747251090484051184,0.216
1747251090491738375,0.26
1747251090499425566,0.307
1747251090507112757,0.342
1747251090514799948,0.352
1747251090522487139,0.34700000000000003
1747251090530174330,0.329
1747251090537861521,0.297
1747251090545548712,0.251
1747251090553235903,0.169
1747251090560923094,0.056
1747251090568610285,-0.059000000000000004
1747251090576297476,-0.17400000000000002
1747251090583984667,-0.268
1747251090591671858,-0.305
1747251090599359049,-0.315
1747251090607046240,-0.337
1747251090614733431,-0.337
1747251090622420622,-0.31
1747251090630107813,-0.29
1747251090637795004,-0.28500000000000003
1747251090645482195,-0.273
1747251090653169386,-0.253
1747251090660856577,-0.241
1747251090668543768,-0.231
1747251090676230959,-0.221
1747251090683918150,-0.214
1747251090691605341,-0.20400000000000001
1747251090699292532,-0.199
1747251090706979723,-0.199
1747251090714666914,-0.201
1747251090722354105,-0.201
1747251090730041296,-0.187
1747251090737728487,-0.179
1747251090745415715,-0.189
1747251090753102836,-0.194
1747251090760789957,-0.177
1747251090768477078,-0.167
1747251090776164199,-0.17400000000000002
1747251090783851320,-0.164
1747251090791538441,-0.155
1747251090799225562,-0.177
1747251090806912683,-0.187
1747251090814599804,-0.162
1747251090822286925,-0.155
1747251090829974046,-0.137
1747251090837661167,-0.115
1747251090845348288,-0.125
1747251090853035409,-0.115
1747251090860722530,-0.091
1747251090868409651,-0.123
1747251090876096772,-0.17200000000000001
1747251090883783893,-0.162
1747251090891471014,-0.135
1747251090899158135,-0.15
1747251090906845256,-0.15
1747251090914532377,-0.128
1747251090922219498,-0.132
1747251090929906619,-0.137
1747251090937593740,-0.14200000000000002
1747251090945280861,-0.192
1747251090952967982,-0.27
1747251090960655103,-0.145
1747251090968342224,0.494
1747251090976029345,1.331
1747251090983716466,1.637
1747251090991403587,1.006
1747251090999090708,-0.196
1747251091006777829,-0.681
1747251091014464950,-0.268
1747251091022152071,-0.108
1747251091029839192,-0.26
1747251091037526313,-0.20600000000000002
1747251091045213434,-0.123
1747251091052900555,-0.152
1747251091060587676,-0.128
1747251091068274797,-0.07100000000000001
1747251091075961918,-0.07100000000000001
1747251091083649039,-0.073
1747251091091336160,-0.039
1747251091099023281,0.0
1747251091106710402,0.019
1747251091114397523,0.032
1747251091122084644,0.044
1747251091129771765,0.076
1747251091137458886,0.125
1747251091145146007,0.169
1747251091152833128,0.201
1747251091160520249,0.241
1747251091168207370,0.295
1747251091175894491,0.329
1747251091183581612,0.34400000000000003
1747251091191268733,0.354
1747251091198955854,0.337
1747251091206642975,0.302
1747251091214330096,0.28
1747251091222017217,0.226
1747251091229704338,0.11
1747251091237391459,-0.017
1747251091245078580,-0.123
1747251091252765701,-0.20600000000000002
1747251091260452822,-0.256
1747251091268139943,-0.28800000000000003
1747251091275827064,-0.307
1747251091283514185,-0.3
1747251091291201306,-0.295
1747251091298888427,-0.297
1747251091306575616,-0.278,87,686
1747251091314262737,-0.256
1747251091321949858,-0.243
1747251091329636979,-0.228
1747251091337324100,-0.216
1747251091345011221,-0.209
1747251091352698342,-0.209
1747251091360385463,-0.209
1747251091368072584,-0.192
1747251091375759705,-0.184
1747251091383446826,-0.182
1747251091391133947,-0.169
1747251091398821068,-0.169
1747251091406508189,-0.179
1747251091414195310,-0.177
1747251091421882431,-0.177
1747251091429569552,-0.177
1747251091437256673,-0.16
1747251091444943794,-0.155
1747251091452630915,-0.169
1747251091460318036,-0.17200000000000001
1747251091468005157,-0.167
1747251091475692278,-0.16
1747251091483379399,-0.14200000000000002
1747251091491066520,-0.13
1747251091498753641,-0.128
1747251091506440762,-0.115
1747251091514127883,-0.1
1747251091521815004,-0.11
1747251091529502125,-0.13
1747251091537189246,-0.155
1747251091544876367,-0.164
1747251091552563488,-0.152
1747251091560250609,-0.15
1747251091567937730,-0.152
1747251091575624851,-0.137
1747251091583311972,-0.135
1747251091590999093,-0.15
1747251091598686214,-0.162
1747251091606373335,-0.194
1747251091614060456,-0.258
1747251091621747577,-0.132
1747251091629434698,0.47700000000000004
1747251091637121819,1.216
1747251091644808940,1.42
1747251091652496061,0.841
1747251091660183182,-0.20400000000000001
1747251091667870303,-0.667
1747251091675557424,-0.312
1747251091683244545,-0.125
1747251091690931666,-0.243
1747251091698618787,-0.20400000000000001
1747251091706305908,-0.128
1747251091713993029,-0.145
1747251091721680150,-0.135
1747251091729367271,-0.10300000000000001
1747251091737054392,-0.08600000000000001
1747251091744741513,-0.07100000000000001
1747251091752428634,-0.051000000000000004
1747251091760115755,-0.032
1747251091767802876,-0.002
1747251091775489997,0.019
1747251091783177118,0.024
1747251091790864239,0.046
1747251091798551360,0.098
1747251091806238481,0.135
1747251091813925602,0.164
1747251091821612723,0.20600000000000002
1747251091829299844,0.248
1747251091836986965,0.273
1747251091844674086,0.28500000000000003
1747251091852361207,0.28
1747251091860048328,0.268
1747251091867735513,0.256
1747251091875422843,0.224
1747251091883110173,0.16
1747251091890797503,0.068
1747251091898484833,-0.039
1747251091906172163,-0.135
1747251091913859493,-0.20600000000000002
1747251091921546823,-0.268
1747251091929234153,-0.312
1747251091936921483,-0.32
1747251091944608813,-0.312
1747251091952296143,-0.312
1747251091959983473,-0.3
1747251091967670803,-0.278
1747251091975358133,-0.258
1747251091983045463,-0.248
1747251091990732793,-0.233
1747251091998420123,-0.219
1747251092006107453,-0.219
1747251092013794783,-0.219
1747251092021482113,-0.20400000000000001
1747251092029169443,-0.199
1747251092036856773,-0.192
1747251092044544103,-0.187
1747251092052231433,-0.196
1747251092059918763,-0.192
1747251092067606093,-0.177
1747251092075293423,-0.182
1747251092082980753,-0.184
1747251092090668083,-0.177
1747251092098355413,-0.179
1747251092106042743,-0.179
1747251092113730073,-0.169
1747251092121417403,-0.164
1747251092129104733,-0.167
1747251092136792063,-0.177
1747251092144479393,-0.179
1747251092152166723,-0.15
1747251092159854053,-0.128
1747251092167541383,-0.125
1747251092175228713,-0.113
1747251092182916043,-0.108
1747251092190603373,-0.11800000000000001
1747251092198290703,-0.14
1747251092205978033,-0.169
1747251092213665363,-0.17200000000000001
1747251092221352693,-0.157
1747251092229040023,-0.155
1747251092236727353,-0.152
1747251092244414683,-0.14
1747251092252102013,-0.132
1747251092259789343,-0.145
1747251092267476673,-0.179
1747251092275164003,-0.248
1747251092282851333,-0.246
1747251092290538663,0.17400000000000002
1747251092298225993,1.016
1747251092305913323,1.651
1747251092313600653,1.42
1747251092321287983,0.253
1747251092328975313,-0.681
1747251092336662643,-0.465
1747251092344349973,-0.08600000000000001
1747251092352037303,-0.20600000000000002
1747251092359724633,-0.256
1747251092367411963,-0.15
1747251092375099293,-0.155
1747251092382786623,-0.164
1747251092390473953,-0.113
1747251092398161283,-0.08600000000000001
1747251092405848613,-0.078
1747251092413535943,-0.044
1747251092421223273,-0.027
1747251092428910671,-0.017,87,691
1747251092436597862,0.014,,673
1747251092444285053,0.036000000000000004
1747251092451972244,0.056
1747251092459659435,0.10300000000000001
1747251092467346626,0.14200000000000002
1747251092475033817,0.17400000000000002
1747251092482721008,0.216
1747251092490408199,0.248
1747251092498095390,0.28300000000000003
1747251092505782581,0.31
1747251092513469772,0.305
1747251092521156963,0.302
1747251092528844154,0.297
1747251092536531345,0.263
1747251092544218536,0.20400000000000001
1747251092551905727,0.12
1747251092559592918,0.019
1747251092567280109,-0.08600000000000001
1747251092574967300,-0.184
1747251092582654491,-0.256
1747251092590341682,-0.28500000000000003
1747251092598028873,-0.302
1747251092605716064,-0.322
1747251092613403255,-0.315
1747251092621090446,-0.28300000000000003
1747251092628777637,-0.263
1747251092636464828,-0.263
1747251092644152019,-0.258
1747251092651839210,-0.23800000000000002
1747251092659526401,-0.219
1747251092667213592,-0.219
1747251092674900783,-0.219
1747251092682587974,-0.201
1747251092690275165,-0.194
1747251092697962356,-0.209
1747251092705649547,-0.20400000000000001
1747251092713336738,-0.196
1747251092721023929,-0.196
1747251092728711120,-0.182
1747251092736398311,-0.169
1747251092744085502,-0.187
1747251092751772693,-0.192
1747251092759459884,-0.17400000000000002
1747251092767147075,-0.177
1747251092774834266,-0.187
1747251092782521457,-0.177
1747251092790208648,-0.162
1747251092797895839,-0.167
1747251092805583030,-0.17400000000000002
1747251092813270221,-0.164
1747251092820957412,-0.152
1747251092828644603,-0.13
1747251092836331794,-0.115
1747251092844018985,-0.12
1747251092851706176,-0.12
1747251092859393367,-0.1
1747251092867080558,-0.113
1747251092874767749,-0.164
1747251092882454940,-0.179
1747251092890142131,-0.152
1747251092897829322,-0.147
1747251092905516513,-0.157
1747251092913203704,-0.147
1747251092920890895,-0.13
1747251092928578086,-0.125
1747251092936265277,-0.155
1747251092943952468,-0.23600000000000002
1747251092951639659,-0.302
1747251092959326850,-0.061
1747251092967014041,0.6940000000000001
1747251092974701232,1.5330000000000001
1747251092982388423,1.718
1747251092990075655,0.8
1747251092997762916,-0.47700000000000004
1747251093005450177,-0.662
1747251093013137438,-0.162
1747251093020824699,-0.152
1747251093028511960,-0.28500000000000003
1747251093036199221,-0.17200000000000001
1747251093043886482,-0.125
1747251093051573743,-0.164
1747251093059261004,-0.135
1747251093066948265,-0.105
1747251093074635526,-0.098
1747251093082322787,-0.064
1747251093090010048,-0.027
1747251093097697309,-0.014
1747251093105384570,0.002
1747251093113071831,0.034
1747251093120759092,0.059000000000000004
1747251093128446353,0.07100000000000001
1747251093136133614,0.108
1747251093143820875,0.16
1747251093151508136,0.201
1747251093159195397,0.251
1747251093166882658,0.295
1747251093174569919,0.305
1747251093182257180,0.317
1747251093189944441,0.322
1747251093197631702,0.292
1747251093205318963,0.26
1747251093213006224,0.243
1747251093220693485,0.182
1747251093228380746,0.068
1747251093236068007,-0.039
1747251093243755268,-0.13
1747251093251442529,-0.20400000000000001
1747251093259129790,-0.265
1747251093266817051,-0.3
1747251093274504312,-0.297
1747251093282191573,-0.29
1747251093289878834,-0.28800000000000003
1747251093297566095,-0.27
1747251093305253356,-0.258
1747251093312940617,-0.241
1747251093320627878,-0.228
1747251093328315139,-0.226
1747251093336002400,-0.211
1747251093343689661,-0.192
1747251093351376922,-0.194
1747251093359064183,-0.189
1747251093366751444,-0.17400000000000002
1747251093374438705,-0.179
1747251093382125966,-0.194
1747251093389813227,-0.184
1747251093397500488,-0.169
1747251093405187749,-0.169
1747251093412875010,-0.17400000000000002
1747251093420562271,-0.179
1747251093428249532,-0.167
1747251093435936793,-0.157
1747251093443624054,-0.164
1747251093451311315,-0.162
1747251093458998576,-0.155
1747251093466685837,-0.157
1747251093474373098,-0.17200000000000001
1747251093482060359,-0.17400000000000002
1747251093489747620,-0.152
1747251093497434881,-0.125
1747251093505122142,-0.108
1747251093512809403,-0.098
1747251093520496664,-0.093
1747251093528183925,-0.096
1747251093535871186,-0.108
1747251093543558447,-0.14200000000000002
1747251093551245722,-0.167,87,661
1747251093558932843,-0.16
1747251093566619964,-0.14
1747251093574307085,-0.13
1747251093581994206,-0.128
1747251093589681327,-0.13
1747251093597368448,-0.132
1747251093605055569,-0.147
1747251093612742690,-0.192
1747251093620429811,-0.273
1747251093628116932,-0.187
1747251093635804053,0.418
1747251093643491174,1.287
1747251093651178295,1.661
1747251093658865416,1.048
1747251093666552537,-0.187
1747251093674239658,-0.7010000000000001
1747251093681926779,-0.278
1747251093689613900,-0.098
1747251093697301021,-0.253
1747251093704988142,-0.201
1747251093712675263,-0.11800000000000001
1747251093720362384,-0.145
1747251093728049505,-0.128
1747251093735736626,-0.073
1747251093743423747,-0.076
1747251093751110868,-0.076
1747251093758797989,-0.034
1747251093766485110,-0.002
1747251093774172231,0.004
1747251093781859352,0.027
1747251093789546473,0.056
1747251093797233594,0.088
1747251093804920715,0.128
1747251093812607836,0.152
1747251093820294957,0.179
1747251093827982078,0.231
1747251093835669199,0.27
1747251093843356320,0.29
1747251093851043441,0.307
1747251093858730562,0.31
1747251093866417683,0.297
1747251093874104804,0.268
1747251093881791925,0.228
1747251093889479046,0.182
1747251093897166167,0.098
1747251093904853288,-0.029
1747251093912540409,-0.135
1747251093920227530,-0.201
1747251093927914651,-0.251
1747251093935601772,-0.28500000000000003
1747251093943288893,-0.31
1747251093950976014,-0.322
1747251093958663135,-0.297
1747251093966350256,-0.273
1747251093974037377,-0.273
1747251093981724498,-0.256
1747251093989411619,-0.231
1747251093997098740,-0.224
1747251094004785861,-0.226
1747251094012472982,-0.219
1747251094020160103,-0.20600000000000002
1747251094027847224,-0.189
1747251094035534345,-0.182
1747251094043221466,-0.194
1747251094050908587,-0.189
1747251094058595708,-0.17400000000000002
1747251094066282829,-0.179
1747251094073969950,-0.189
1747251094081657071,-0.177
1747251094089344192,-0.17400000000000002
1747251094097031313,-0.177
1747251094104718434,-0.17200000000000001
1747251094112405619,-0.17200000000000001,88,665
1747251094120092810,-0.179,,672
1747251094127780001,-0.177
1747251094135467192,-0.169
1747251094143154383,-0.164
1747251094150841574,-0.164
1747251094158528765,-0.17400000000000002
1747251094166215956,-0.162
1747251094173903147,-0.125
1747251094181590338,-0.113
1747251094189277529,-0.13
1747251094196964720,-0.125
1747251094204651911,-0.105
1747251094212339102,-0.113
1747251094220026293,-0.145
1747251094227713484,-0.167
1747251094235400675,-0.17200000000000001
1747251094243087866,-0.16
1747251094250775057,-0.145
1747251094258462248,-0.137
1747251094266149439,-0.14
1747251094273836630,-0.145
1747251094281523821,-0.152
1747251094289211012,-0.182
1747251094296898203,-0.26
1747251094304585394,-0.23600000000000002
1747251094312272585,0.253
1747251094319959776,1.1440000000000001
1747251094327646967,1.728
1747251094335334158,1.341
1747251094343021349,0.091
1747251094350708540,-0.713
1747251094358395731,-0.396
1747251094366082922,-0.091
1747251094373770113,-0.246
1747251094381457304,-0.241
1747251094389144495,-0.12
1747251094396831686,-0.137
1747251094404518877,-0.157
1747251094412206068,-0.115
1747251094419893259,-0.083
1747251094427580450,-0.064
1747251094435267641,-0.044
1747251094442954832,-0.019
1747251094450642023,0.004
1747251094458329214,0.019
1747251094466016405,0.039
1747251094473703596,0.076
1747251094481390787,0.12
1747251094489077978,0.16
1747251094496765169,0.192
1747251094504452360,0.224
1747251094512139551,0.268
1747251094519826742,0.307
1747251094527513933,0.324
1747251094535201124,0.332
1747251094542888315,0.337
1747251094550575506,0.317
1747251094558262697,0.28
1747251094565949888,0.224
1747251094573637079,0.14200000000000002
1747251094581324270,0.027
1747251094589011461,-0.093
1747251094596698652,-0.182
1747251094604385843,-0.23800000000000002
1747251094612073034,-0.273
1747251094619760225,-0.295
1747251094627447416,-0.312
1747251094635134607,-0.297
1747251094642821798,-0.27
1747251094650508989,-0.256
1747251094658196180,-0.251
1747251094665883371,-0.23800000000000002
1747251094673570607,-0.226
1747251094681258077,-0.224
1747251094688945547,-0.211
1747251094696633017,-0.189
1747251094704320487,-0.184
1747251094712007957,-0.187
1747251094719695427,-0.179
1747251094727382897,-0.169
1747251094735070367,-0.182
1747251094742757837,-0.189
1747251094750445307,-0.17200000000000001
1747251094758132777,-0.162
1747251094765820247,-0.169
1747251094773507717,-0.167
1747251094781195187,-0.155
1747251094788882657,-0.17400000000000002
1747251094796570127,-0.184
1747251094804257597,-0.14
1747251094811945067,-0.13
1747251094819632537,-0.16
1747251094827320007,-0.164
1747251094835007477,-0.15
1747251094842694947,-0.125
1747251094850382417,-0.105
1747251094858069887,-0.1
1747251094865757357,-0.088
1747251094873444827,-0.10300000000000001
1747251094881132297,-0.145
1747251094888819767,-0.157
1747251094896507237,-0.147
1747251094904194707,-0.147
1747251094911882177,-0.137
1747251094919569647,-0.14
1747251094927257117,-0.155
1747251094934944587,-0.11800000000000001
1747251094942632057,-0.108
1747251094950319527,-0.157
1747251094958006997,-0.224
1747251094965694467,-0.233
1747251094973381937,0.137
1747251094981069407,0.908
1747251094988756877,1.314
1747251094996444347,0.937
1747251095004131817,0.125
1747251095011819287,-0.502
1747251095019506757,-0.455
1747251095027194227,-0.177
1747251095034881697,-0.155
1747251095042569167,-0.145
1747251095050256637,-0.088
1747251095057944107,-0.096
1747251095065631577,-0.093
1747251095073319047,-0.059000000000000004
1747251095081006517,-0.034
1747251095088693987,-0.009000000000000001
1747251095096381457,0.007
1747251095104068927,0.0
1747251095111756397,0.027
1747251095119443867,0.073
1747251095127131337,0.076
1747251095134818807,0.096
1747251095142506277,0.162
1747251095150193747,0.20600000000000002
1747251095157881217,0.214
1747251095165568687,0.23800000000000002
1747251095173256157,0.28
1747251095180943627,0.315
1747251095188631097,0.339
1747251095196318567,0.337
1747251095204006037,0.322
1747251095211693507,0.307
1747251095219380977,0.273
1747251095227068447,0.209
1747251095234755935,0.11,88,671
1747251095242443056,0.0
1747251095250130177,-0.091
1747251095257817298,-0.164
1747251095265504419,-0.226
1747251095273191540,-0.27
1747251095280878661,-0.292
1747251095288565782,-0.3
1747251095296252903,-0.3
1747251095303940024,-0.29
1747251095311627145,-0.256
1747251095319314266,-0.228
1747251095327001387,-0.246
1747251095334688508,-0.246
1747251095342375629,-0.20400000000000001
1747251095350062750,-0.182
1747251095357749871,-0.189
1747251095365436992,-0.182
1747251095373124113,-0.169
1747251095380811234,-0.164
1747251095388498355,-0.157
1747251095396185476,-0.147
1747251095403872597,-0.152
1747251095411559718,-0.155
1747251095419246839,-0.15
1747251095426933960,-0.15
1747251095434621081,-0.15
1747251095442308202,-0.152
1747251095449995323,-0.157
1747251095457682444,-0.169
1747251095465369565,-0.162
1747251095473056686,-0.125
1747251095480743807,-0.108
1747251095488430928,-0.108
1747251095496118049,-0.108
1747251095503805170,-0.137
1747251095511492291,-0.17400000000000002
1747251095519179412,-0.167
1747251095526866533,-0.14200000000000002
1747251095534553654,-0.145
1747251095542240775,-0.16
1747251095549927896,-0.15
1747251095557615017,-0.147
1747251095565302138,-0.15
1747251095572989259,-0.155
1747251095580676380,-0.169
1747251095588363501,-0.221
1747251095596050622,-0.214
1747251095603737743,0.179
1747251095611424864,0.878
1747251095619111985,1.1
1747251095626799106,0.598
1747251095634486227,-0.1
1747251095642173348,-0.484
1747251095649860469,-0.396
1747251095657547590,-0.219
1747251095665234711,-0.194
1747251095672921832,-0.152
1747251095680608953,-0.096
1747251095688296074,-0.096
1747251095695983195,-0.076
1747251095703670316,-0.039
1747251095711357437,-0.049
1747251095719044558,-0.051000000000000004
1747251095726731679,-0.012
1747251095734418800,0.012
1747251095742105921,0.029
1747251095749793042,0.049
1747251095757480163,0.064
1747251095765167284,0.096
1747251095772854405,0.135
1747251095780541526,0.155
1747251095788228647,0.179
1747251095795915832,0.224
1747251095803602953,0.27
1747251095811290074,0.28800000000000003
1747251095818977195,0.275
1747251095826664316,0.273
1747251095834351437,0.28300000000000003
1747251095842038558,0.256
1747251095849725679,0.20600000000000002
1747251095857412800,0.14
1747251095865099921,0.051000000000000004
1747251095872787042,-0.054
1747251095880474163,-0.145
1747251095888161284,-0.216
1747251095895848405,-0.268
1747251095903535526,-0.295
1747251095911222647,-0.305
1747251095918909768,-0.31
1747251095926596889,-0.3
1747251095934284010,-0.292
1747251095941971131,-0.28300000000000003
1747251095949658252,-0.263
1747251095957345373,-0.243
1747251095965032494,-0.221
1747251095972719615,-0.214
1747251095980406736,-0.20400000000000001
1747251095988093857,-0.187
1747251095995780978,-0.182
1747251096003468099,-0.17400000000000002
1747251096011155220,-0.152
1747251096018842341,-0.155
1747251096026529462,-0.164
1747251096034216583,-0.152
1747251096041903704,-0.147
1747251096049590825,-0.167
1747251096057277946,-0.169
1747251096064965067,-0.157
1747251096072652188,-0.157
1747251096080339309,-0.157
1747251096088026430,-0.162
1747251096095713551,-0.182
1747251096103400672,-0.179
1747251096111087793,-0.145
1747251096118774914,-0.12
1747251096126462035,-0.128
1747251096134149156,-0.132
1747251096141836277,-0.11800000000000001
1747251096149523398,-0.125
1747251096157210519,-0.157
1747251096164897640,-0.182
1747251096172584761,-0.182
1747251096180271882,-0.167
1747251096187959003,-0.167
1747251096195646124,-0.167
1747251096203333245,-0.155
1747251096211020366,-0.157
1747251096218707487,-0.17200000000000001
1747251096226394608,-0.192
1747251096234081729,-0.23800000000000002
1747251096241768850,-0.15
1747251096249455971,0.364
1747251096257143092,0.969
1747251096264830213,1.046
1747251096272517334,0.622
1747251096280204455,-0.078
1747251096287891576,-0.5710000000000001
1747251096295578697,-0.41300000000000003
1747251096303265818,-0.155
1747251096310952939,-0.184
1747251096318640060,-0.189
1747251096326327181,-0.128
1747251096334014302,-0.13
1747251096341701423,-0.128
1747251096349388544,-0.091
1747251096357075729,-0.081,88,679
1747251096364763547,-0.076,,661
1747251096372451365,-0.051000000000000004
1747251096380139183,-0.036000000000000004
1747251096387827001,-0.024
1747251096395514819,0.002
1747251096403202637,0.024
1747251096410890455,0.046
1747251096418578273,0.076
1747251096426266091,0.1
1747251096433953909,0.12
1747251096441641727,0.155
1747251096449329545,0.192
1747251096457017363,0.211
1747251096464705181,0.219
1747251096472392999,0.209
1747251096480080817,0.196
1747251096487768635,0.184
1747251096495456453,0.162
1747251096503144271,0.113
1747251096510832089,0.039
1747251096518519907,-0.046
1747251096526207725,-0.14
1747251096533895543,-0.221
1747251096541583361,-0.251
1747251096549271179,-0.258
1747251096556958997,-0.275
1747251096564646815,-0.28500000000000003
1747251096572334633,-0.268
1747251096580022451,-0.248
1747251096587710269,-0.243
1747251096595398087,-0.243
1747251096603085905,-0.221
1747251096610773723,-0.199
1747251096618461541,-0.20400000000000001
1747251096626149359,-0.20400000000000001
1747251096633837177,-0.182
1747251096641524995,-0.164
1747251096649212813,-0.169
1747251096656900631,-0.182
1747251096664588449,-0.184
1747251096672276267,-0.169
1747251096679964085,-0.162
1747251096687651903,-0.17200000000000001
1747251096695339721,-0.17200000000000001
1747251096703027539,-0.157
1747251096710715357,-0.162
1747251096718403175,-0.17200000000000001
1747251096726090993,-0.164
1747251096733778811,-0.167
1747251096741466629,-0.17400000000000002
1747251096749154447,-0.162
1747251096756842265,-0.135
1747251096764530083,-0.12
1747251096772217901,-0.123
1747251096779905719,-0.13
1747251096787593537,-0.123
1747251096795281355,-0.12
1747251096802969173,-0.145
1747251096810656991,-0.17200000000000001
1747251096818344809,-0.167
1747251096826032627,-0.16
1747251096833720445,-0.157
1747251096841408263,-0.152
1747251096849096081,-0.15
1747251096856783899,-0.152
1747251096864471717,-0.164
1747251096872159535,-0.177
1747251096879847353,-0.214
1747251096887535171,-0.169
1747251096895222989,0.26
1747251096902910807,0.891
1747251096910598625,1.125
1747251096918286491,0.787
1747251096925973334,0.004
1747251096933660177,-0.605
1747251096941347020,-0.42
1747251096949033863,-0.08600000000000001
1747251096956720706,-0.16
1747251096964407549,-0.209
1747251096972094392,-0.115
1747251096979781235,-0.108
1747251096987468078,-0.13
1747251096995154921,-0.096
1747251097002841764,-0.066
1747251097010528607,-0.059000000000000004
1747251097018215450,-0.039
1747251097025902293,-0.009000000000000001
1747251097033589136,0.007
1747251097041275979,0.014
1747251097048962822,0.036000000000000004
1747251097056649665,0.076
1747251097064336508,0.098
1747251097072023351,0.113
1747251097079710194,0.15
1747251097087397037,0.194
1747251097095083880,0.224
1747251097102770723,0.253
1747251097110457566,0.275
1747251097118144409,0.273
1747251097125831252,0.256
1747251097133518095,0.246
1747251097141204938,0.224
1747251097148891781,0.17400000000000002
1747251097156578624,0.08600000000000001
1747251097164265467,-0.027
1747251097171952310,-0.13
1747251097179639153,-0.201
1747251097187325996,-0.248
1747251097195012839,-0.28
1747251097202699682,-0.297
1747251097210386525,-0.292
1747251097218073368,-0.273
1747251097225760211,-0.268
1747251097233447054,-0.27
1747251097241133897,-0.256
1747251097248820740,-0.23800000000000002
1747251097256507583,-0.231
1747251097264194426,-0.221
1747251097271881269,-0.211
1747251097279568112,-0.211
1747251097287254955,-0.20600000000000002
1747251097294941798,-0.201
1747251097302628641,-0.196
1747251097310315484,-0.192
1747251097318002327,-0.196
1747251097325689170,-0.199
1747251097333376013,-0.192
1747251097341062856,-0.182
1747251097348749699,-0.179
1747251097356436542,-0.177
1747251097364123385,-0.179
1747251097371810228,-0.187
1747251097379497071,-0.187
1747251097387183914,-0.169
1747251097394870757,-0.164
1747251097402557600,-0.164
1747251097410244443,-0.169
1747251097417931286,-0.17200000000000001
1747251097425618129,-0.162
1747251097433304972,-0.14
1747251097440991815,-0.132
1747251097448678658,-0.135
1747251097456365501,-0.125
1747251097464052344,-0.115
1747251097471739187,-0.135
1747251097479426041,-0.167,88,629
1747251097487113232,-0.17400000000000002
1747251097494800423,-0.16
1747251097502487614,-0.15
1747251097510174805,-0.155
1747251097517861996,-0.16
1747251097525549187,-0.152
1747251097533236378,-0.145
1747251097540923569,-0.152
1747251097548610760,-0.194
1747251097556297951,-0.268
1747251097563985142,-0.192
1747251097571672333,0.352
1747251097579359524,1.1520000000000001
1747251097587046715,1.5330000000000001
1747251097594733906,1.033
1747251097602421097,-0.1
1747251097610108288,-0.686
1747251097617795479,-0.332
1747251097625482670,-0.098
1747251097633169861,-0.243
1747251097640857052,-0.224
1747251097648544243,-0.13
1747251097656231434,-0.15
1747251097663918625,-0.145
1747251097671605816,-0.093
1747251097679293007,-0.081
1747251097686980198,-0.07100000000000001
1747251097694667389,-0.036000000000000004
1747251097702354580,-0.024
1747251097710041771,-0.022
1747251097717728962,0.017
1747251097725416153,0.054
1747251097733103344,0.068
1747251097740790535,0.10300000000000001
1747251097748477726,0.152
1747251097756164917,0.187
1747251097763852108,0.226
1747251097771539299,0.27
1747251097779226490,0.305
1747251097786913681,0.329
1747251097794600872,0.334
1747251097802288063,0.315
1747251097809975254,0.28800000000000003
1747251097817662445,0.26
1747251097825349636,0.209
1747251097833036827,0.11800000000000001
1747251097840724018,-0.004
1747251097848411209,-0.12
1747251097856098400,-0.20400000000000001
1747251097863785591,-0.268
1747251097871472782,-0.297
1747251097879159973,-0.295
1747251097886847164,-0.3
1747251097894534355,-0.3
1747251097902221546,-0.28
1747251097909908737,-0.27
1747251097917595928,-0.256
1747251097925283119,-0.23600000000000002
1747251097932970310,-0.224
1747251097940657501,-0.219
1747251097948344692,-0.20600000000000002
1747251097956031883,-0.194
1747251097963719074,-0.189
1747251097971406265,-0.182
1747251097979093456,-0.179
1747251097986780647,-0.17400000000000002
1747251097994467838,-0.17400000000000002
1747251098002155029,-0.182
1747251098009842220,-0.182
1747251098017529411,-0.177
1747251098025216602,-0.17200000000000001
1747251098032903793,-0.164
1747251098040591029,-0.164,90,646
1747251098048278220,-0.167,,647
1747251098055965411,-0.155
1747251098063652602,-0.152
1747251098071339793,-0.167
1747251098079026984,-0.162
1747251098086714175,-0.145
1747251098094401366,-0.152
1747251098102088557,-0.167
1747251098109775748,-0.16
1747251098117462939,-0.132
1747251098125150130,-0.11
1747251098132837321,-0.105
1747251098140524512,-0.11
1747251098148211703,-0.1
1747251098155898894,-0.091
1747251098163586085,-0.11
1747251098171273276,-0.145
1747251098178960467,-0.162
1747251098186647658,-0.155
1747251098194334849,-0.137
1747251098202022040,-0.135
1747251098209709231,-0.13
1747251098217396422,-0.123
1747251098225083613,-0.13
1747251098232770804,-0.152
1747251098240457995,-0.20400000000000001
1747251098248145186,-0.28800000000000003
1747251098255832377,-0.155
1747251098263519568,0.516
1747251098271206759,1.373
1747251098278893950,1.661
1747251098286581141,0.9570000000000001
1747251098294268332,-0.278
1747251098301955523,-0.7010000000000001
1747251098309642714,-0.246
1747251098317329905,-0.1
1747251098325017096,-0.258
1747251098332704287,-0.211
1747251098340391478,-0.137
1747251098348078669,-0.157
1747251098355765860,-0.128
1747251098363453051,-0.076
1747251098371140242,-0.073
1747251098378827433,-0.064
1747251098386514624,-0.032
1747251098394201815,-0.014
1747251098401889006,0.002
1747251098409576197,0.027
1747251098417263388,0.051000000000000004
1747251098424950579,0.088
1747251098432637770,0.132
1747251098440324961,0.17400000000000002
1747251098448012152,0.209
1747251098455699343,0.251
1747251098463386534,0.297
1747251098471073725,0.32
1747251098478760916,0.327
1747251098486448107,0.342
1747251098494135298,0.332
1747251098501822489,0.295
1747251098509509680,0.258
1747251098517196871,0.20400000000000001
1747251098524884062,0.093
1747251098532571253,-0.034
1747251098540258444,-0.137
1747251098547945635,-0.221
1747251098555632826,-0.28
1747251098563320017,-0.312
1747251098571007208,-0.324
1747251098578694399,-0.317
1747251098586381590,-0.295
1747251098594068781,-0.29
1747251098601756013,-0.297
1747251098609443413,-0.28300000000000003
1747251098617130813,-0.256
1747251098624818213,-0.23800000000000002
1747251098632505613,-0.228
1747251098640193013,-0.224
1747251098647880413,-0.219
1747251098655567813,-0.20400000000000001
1747251098663255213,-0.192
1747251098670942613,-0.194
1747251098678630013,-0.199
1747251098686317413,-0.194
1747251098694004813,-0.189
1747251098701692213,-0.194
1747251098709379613,-0.189
1747251098717067013,-0.187
1747251098724754413,-0.192
1747251098732441813,-0.192
1747251098740129213,-0.189
1747251098747816613,-0.189
1747251098755504013,-0.17400000000000002
1747251098763191413,-0.169
1747251098770878813,-0.17400000000000002
1747251098778566213,-0.167
1747251098786253613,-0.157
1747251098793941013,-0.17400000000000002
1747251098801628413,-0.189
1747251098809315813,-0.17400000000000002
1747251098817003213,-0.157
1747251098824690613,-0.14
1747251098832378013,-0.115
1747251098840065413,-0.108
1747251098847752813,-0.11
1747251098855440213,-0.105
1747251098863127613,-0.11800000000000001
1747251098870815013,-0.155
1747251098878502413,-0.17400000000000002
1747251098886189813,-0.164
1747251098893877213,-0.15
1747251098901564613,-0.145
1747251098909252013,-0.147
1747251098916939413,-0.135
1747251098924626813,-0.13
1747251098932314213,-0.157
1747251098940001613,-0.209
1747251098947689013,-0.29
1747251098955376413,-0.248
1747251098963063813,0.307
1747251098970751213,1.2530000000000001
1747251098978438613,1.804
1747251098986126013,1.314
1747251098993813413,-0.002
1747251099001500813,-0.745
1747251099009188213,-0.379
1747251099016875613,-0.10300000000000001
1747251099024563013,-0.26
1747251099032250413,-0.253
1747251099039937813,-0.14
1747251099047625213,-0.147
1747251099055312613,-0.152
1747251099063000013,-0.11
1747251099070687413,-0.10300000000000001
1747251099078374813,-0.088
1747251099086062213,-0.049
1747251099093749613,-0.029
1747251099101437013,-0.017
1747251099109124413,0.012
1747251099116811813,0.051000000000000004
1747251099124499213,0.078
1747251099132186613,0.096
1747251099139874013,0.137
1747251099147561413,0.194
1747251099155248813,0.233
1747251099162936254,0.27,90,676
1747251099170623375,0.322
1747251099178310496,0.354
1747251099185997617,0.34700000000000003
1747251099193684738,0.322
1747251099201371859,0.302
1747251099209058980,0.273
1747251099216746101,0.211
1747251099224433222,0.115
1747251099232120343,0.0
1747251099239807464,-0.123
1747251099247494585,-0.214
1747251099255181706,-0.26
1747251099262868827,-0.31
1747251099270555948,-0.354
1747251099278243069,-0.34400000000000003
1747251099285930190,-0.31
1747251099293617311,-0.305
1747251099301304432,-0.307
1747251099308991553,-0.29
1747251099316678674,-0.265
1747251099324365795,-0.248
1747251099332052916,-0.233
1747251099339740037,-0.23600000000000002
1747251099347427158,-0.23800000000000002
1747251099355114279,-0.221
1747251099362801400,-0.199
1747251099370488521,-0.201
1747251099378175642,-0.20400000000000001
1747251099385862763,-0.194
1747251099393549884,-0.192
1747251099401237005,-0.194
1747251099408924126,-0.187
1747251099416611247,-0.192
1747251099424298368,-0.20600000000000002
1747251099431985489,-0.199
1747251099439672610,-0.184
1747251099447359731,-0.187
1747251099455046852,-0.182
1747251099462733973,-0.179
1747251099470421094,-0.184
1747251099478108215,-0.177
1747251099485795336,-0.164
1747251099493482457,-0.167
1747251099501169578,-0.17200000000000001
1747251099508856699,-0.164
1747251099516543820,-0.157
1747251099524230941,-0.164
1747251099531918062,-0.169
1747251099539605183,-0.157
1747251099547292304,-0.125
1747251099554979425,-0.105
1747251099562666546,-0.105
1747251099570353667,-0.105
1747251099578040788,-0.11
1747251099585727909,-0.128
1747251099593415030,-0.155
1747251099601102151,-0.167
1747251099608789272,-0.162
1747251099616476393,-0.162
1747251099624163514,-0.152
1747251099631850635,-0.137
1747251099639537756,-0.13
1747251099647224877,-0.14200000000000002
1747251099654911998,-0.17200000000000001
1747251099662599119,-0.23600000000000002
1747251099670286240,-0.305
1747251099677973361,-0.078
1747251099685660482,0.706
1747251099693347603,1.568
1747251099701034724,1.71
1747251099708721845,0.763
1747251099716408966,-0.484
1747251099724096151,-0.647
1747251099731783272,-0.162
1747251099739470393,-0.157
1747251099747157514,-0.297
1747251099754844635,-0.20400000000000001
1747251099762531756,-0.155
1747251099770218877,-0.17400000000000002
1747251099777905998,-0.135
1747251099785593119,-0.1
1747251099793280240,-0.093
1747251099800967361,-0.073
1747251099808654482,-0.056
1747251099816341603,-0.034
1747251099824028724,-0.002
1747251099831715845,0.022
1747251099839402966,0.049
1747251099847090087,0.08600000000000001
1747251099854777208,0.113
1747251099862464329,0.152
1747251099870151450,0.20600000000000002
1747251099877838571,0.251
1747251099885525692,0.292
1747251099893212813,0.329
1747251099900899934,0.339
1747251099908587055,0.327
1747251099916274176,0.322
1747251099923961297,0.3
1747251099931648418,0.251
1747251099939335539,0.184
1747251099947022660,0.078
1747251099954709781,-0.054
1747251099962396902,-0.162
1747251099970084023,-0.233
1747251099977771144,-0.295
1747251099985458265,-0.342
1747251099993145386,-0.34700000000000003
1747251100000832507,-0.329
1747251100008519628,-0.322
1747251100016206749,-0.32
1747251100023893870,-0.3
1747251100031580991,-0.278
1747251100039268112,-0.27
1747251100046955233,-0.26
1747251100054642354,-0.241
1747251100062329475,-0.233
1747251100070016596,-0.224
1747251100077703717,-0.211
1747251100085390838,-0.219
1747251100093077959,-0.216
1747251100100765080,-0.196
1747251100108452201,-0.196
1747251100116139322,-0.20600000000000002
1747251100123826443,-0.192
1747251100131513564,-0.182
1747251100139200685,-0.196
1747251100146887806,-0.20400000000000001
1747251100154574927,-0.184
1747251100162262048,-0.184
1747251100169949169,-0.196
1747251100177636290,-0.184
1747251100185323411,-0.17400000000000002
1747251100193010532,-0.179
1747251100200697653,-0.169
1747251100208384774,-0.157
1747251100216071895,-0.162
1747251100223759016,-0.167
1747251100231446137,-0.167
1747251100239133258,-0.157
1747251100246820379,-0.147
1747251100254507500,-0.155
1747251100262194621,-0.152
1747251100269881742,-0.145
1747251100277568863,-0.155
1747251100285256048,-0.152,90,690
1747251100292943587,-0.12
1747251100300631126,-0.113
1747251100308318665,-0.125
1747251100316006204,-0.10300000000000001
1747251100323693743,-0.081
1747251100331381282,-0.10300000000000001
1747251100339068821,-0.14200000000000002
1747251100346756360,-0.16
1747251100354443899,-0.152
1747251100362131438,-0.145
1747251100369818977,-0.15
1747251100377506516,-0.15
1747251100385194055,-0.137
1747251100392881594,-0.135
1747251100400569133,-0.15
1747251100408256672,-0.187
1747251100415944211,-0.265
1747251100423631750,-0.263
1747251100431319289,0.20600000000000002
1747251100439006828,1.12
1747251100446694367,1.7670000000000001
1747251100454381906,1.445
1747251100462069445,0.189
1747251100469756984,-0.704
1747251100477444523,-0.433
1747251100485132062,-0.1
1747251100492819601,-0.248
1747251100500507140,-0.268
1747251100508194679,-0.155
1747251100515882218,-0.164
1747251100523569757,-0.169
1747251100531257296,-0.115
1747251100538944835,-0.10300000000000001
1747251100546632374,-0.10300000000000001
1747251100554319913,-0.07100000000000001
1747251100562007452,-0.036000000000000004
1747251100569694991,-0.014
1747251100577382530,0.0
1747251100585070069,0.019
1747251100592757608,0.064
1747251100600445147,0.098
1747251100608132686,0.123
1747251100615820225,0.17400000000000002
1747251100623507764,0.224
1747251100631195303,0.265
1747251100638882842,0.312
1747251100646570381,0.34400000000000003
1747251100654257920,0.352
1747251100661945459,0.332
1747251100669632998,0.302
1747251100677320537,0.292
1747251100685008076,0.248
1747251100692695615,0.152
1747251100700383154,0.046
1747251100708070693,-0.07100000000000001
1747251100715758232,-0.187
1747251100723445771,-0.258
1747251100731133310,-0.3
1747251100738820849,-0.329
1747251100746508388,-0.339
1747251100754195927,-0.329
1747251100761883466,-0.32
1747251100769571005,-0.302
1747251100777258544,-0.28500000000000003
1747251100784946083,-0.275
1747251100792633622,-0.263
1747251100800321161,-0.258
1747251100808008700,-0.246
1747251100815696239,-0.224
1747251100823383778,-0.214
1747251100831071317,-0.214
1747251100838758856,-0.196
1747251100846446467,-0.182
1747251100854133588,-0.196
1747251100861820709,-0.214
1747251100869507830,-0.199
1747251100877194951,-0.187
1747251100884882072,-0.194
1747251100892569193,-0.187
1747251100900256314,-0.179
1747251100907943435,-0.187
1747251100915630556,-0.182
1747251100923317677,-0.184
1747251100931004798,-0.194
1747251100938691919,-0.187
1747251100946379040,-0.17400000000000002
1747251100954066161,-0.17200000000000001
1747251100961753282,-0.167
1747251100969440403,-0.155
1747251100977127524,-0.157
1747251100984814645,-0.167
1747251100992501766,-0.162
1747251101000188887,-0.15
1747251101007876008,-0.147
1747251101015563129,-0.145
1747251101023250250,-0.15
1747251101030937371,-0.167
1747251101038624492,-0.162
1747251101046311613,-0.125
1747251101053998734,-0.093
1747251101061685855,-0.098
1747251101069372976,-0.10300000000000001
1747251101077060097,-0.083
1747251101084747218,-0.088
1747251101092434339,-0.13
1747251101100121460,-0.155
1747251101107808581,-0.145
1747251101115495702,-0.135
1747251101123182823,-0.132
1747251101130869944,-0.128
1747251101138557065,-0.13
1747251101146244186,-0.135
1747251101153931307,-0.135
1747251101161618428,-0.157
1747251101169305549,-0.226
1747251101176992670,-0.265
1747251101184679791,0.061
1747251101192366912,0.891
1747251101200054033,1.639
1747251101207741154,1.573
1747251101215428275,0.497
1747251101223115396,-0.588
1747251101230802517,-0.534
1747251101238489638,-0.10300000000000001
1747251101246176759,-0.184
1747251101253863880,-0.275
1747251101261551001,-0.155
1747251101269238122,-0.128
1747251101276925243,-0.157
1747251101284612364,-0.12
1747251101292299485,-0.078
1747251101299986606,-0.07100000000000001
1747251101307673727,-0.059000000000000004
1747251101315360848,-0.027
1747251101323047969,0.0
1747251101330735090,0.024
1747251101338422211,0.054
1747251101346109332,0.081
1747251101353796453,0.098
1747251101361483574,0.135
1747251101369170695,0.20600000000000002
1747251101376857816,0.248
1747251101384544937,0.275
1747251101392232058,0.337
1747251101399919179,0.374
1747251101407606364,0.374,89,701
1747251101415293485,0.386,,720
1747251101422980606,0.379
1747251101430667727,0.332
1747251101438354848,0.29
1747251101446041969,0.231
1747251101453729090,0.108
1747251101461416211,-0.027
1747251101469103332,-0.145
1747251101476790453,-0.233
1747251101484477574,-0.28300000000000003
1747251101492164695,-0.312
1747251101499851816,-0.329
1747251101507538937,-0.324
1747251101515226058,-0.307
1747251101522913179,-0.302
1747251101530600300,-0.292
1747251101538287421,-0.263
1747251101545974542,-0.258
1747251101553661663,-0.26
1747251101561348784,-0.228
1747251101569035905,-0.209
1747251101576723026,-0.219
1747251101584410147,-0.201
1747251101592097268,-0.184
1747251101599784389,-0.182
1747251101607471510,-0.179
1747251101615158631,-0.182
1747251101622845752,-0.182
1747251101630532873,-0.177
1747251101638219994,-0.169
1747251101645907115,-0.169
1747251101653594236,-0.17200000000000001
1747251101661281357,-0.16
1747251101668968478,-0.16
1747251101676655599,-0.169
1747251101684342720,-0.164
1747251101692029841,-0.162
1747251101699716962,-0.162
1747251101707404083,-0.155
1747251101715091204,-0.147
1747251101722778325,-0.14
1747251101730465446,-0.135
1747251101738152567,-0.135
1747251101745839688,-0.14
1747251101753526809,-0.135
1747251101761213930,-0.125
1747251101768901051,-0.135
1747251101776588172,-0.132
1747251101784275293,-0.096
1747251101791962414,-0.07100000000000001
1747251101799649535,-0.083
1747251101807336656,-0.081
1747251101815023777,-0.066
1747251101822710898,-0.091
1747251101830398019,-0.132
1747251101838085140,-0.15
1747251101845772261,-0.14200000000000002
1747251101853459382,-0.12
1747251101861146503,-0.108
1747251101868833624,-0.128
1747251101876520745,-0.128
1747251101884207866,-0.096
1747251101891894987,-0.105
1747251101899582108,-0.196
1747251101907269229,-0.263
1747251101914956350,-0.024
1747251101922643471,0.684
1747251101930330592,1.319
1747251101938017713,1.25
1747251101945704834,0.497
1747251101953391955,-0.364
1747251101961079076,-0.531
1747251101968766261,-0.194
1747251101976453382,-0.125
1747251101984140503,-0.196
1747251101991827624,-0.132
1747251101999514745,-0.10300000000000001
1747251102007201866,-0.128
1747251102014888987,-0.096
1747251102022576108,-0.054
1747251102030263229,-0.039
1747251102037950350,-0.036000000000000004
1747251102045637471,-0.029
1747251102053324592,0.007
1747251102061011713,0.044
1747251102068698834,0.054
1747251102076385955,0.07100000000000001
1747251102084073076,0.11
1747251102091760197,0.14
1747251102099447318,0.17400000000000002
1747251102107134439,0.221
1747251102114821560,0.265
1747251102122508681,0.292
1747251102130195802,0.315
1747251102137882923,0.342
1747251102145570044,0.342
1747251102153257165,0.31
1747251102160944286,0.28500000000000003
1747251102168631407,0.26
1747251102176318528,0.182
1747251102184005649,0.056
1747251102191692770,-0.056
1747251102199379891,-0.15
1747251102207067012,-0.231
1747251102214754133,-0.28500000000000003
1747251102222441254,-0.32
1747251102230128375,-0.332
1747251102237815496,-0.324
1747251102245502617,-0.31
1747251102253189738,-0.307
1747251102260876859,-0.307
1747251102268563980,-0.295
1747251102276251101,-0.268
1747251102283938222,-0.243
1747251102291625343,-0.233
1747251102299312464,-0.224
1747251102306999585,-0.221
1747251102314686706,-0.209
1747251102322373827,-0.189
1747251102330060948,-0.189
1747251102337748069,-0.192
1747251102345435190,-0.179
1747251102353122311,-0.17400000000000002
1747251102360809432,-0.177
1747251102368496553,-0.179
1747251102376183674,-0.182
1747251102383870795,-0.17200000000000001
1747251102391557916,-0.164
1747251102399245037,-0.177
1747251102406932158,-0.189
1747251102414619279,-0.182
1747251102422306400,-0.17400000000000002
1747251102429993521,-0.164
1747251102437680642,-0.155
1747251102445367763,-0.164
1747251102453054884,-0.179
1747251102460742005,-0.177
1747251102468429126,-0.17200000000000001
1747251102476116247,-0.167
1747251102483803368,-0.14
1747251102491490489,-0.115
1747251102499177610,-0.123
1747251102506864731,-0.128
1747251102514551852,-0.105
1747251102522238973,-0.108
1747251102529926158,-0.147,89,750
1747251102537613279,-0.182
1747251102545300400,-0.17400000000000002
1747251102552987521,-0.157
1747251102560674642,-0.157
1747251102568361763,-0.157
1747251102576048884,-0.152
1747251102583736005,-0.152
1747251102591423126,-0.157
1747251102599110247,-0.184
1747251102606797368,-0.27
1747251102614484489,-0.243
1747251102622171610,0.253
1747251102629858731,1.058
1747251102637545852,1.504
1747251102645232973,1.154
1747251102652920094,0.08600000000000001
1747251102660607215,-0.674
1747251102668294336,-0.428
1747251102675981457,-0.108
1747251102683668578,-0.233
1747251102691355699,-0.258
1747251102699042820,-0.14200000000000002
1747251102706729941,-0.147
1747251102714417062,-0.16
1747251102722104183,-0.11
1747251102729791304,-0.098
1747251102737478425,-0.098
1747251102745165546,-0.066
1747251102752852667,-0.027
1747251102760539788,-0.012
1747251102768226909,-0.009000000000000001
1747251102775914030,0.022
1747251102783601151,0.064
1747251102791288272,0.08600000000000001
1747251102798975393,0.123
1747251102806662514,0.167
1747251102814349635,0.199
1747251102822036756,0.248
1747251102829723877,0.312
1747251102837410998,0.332
1747251102845098119,0.317
1747251102852785240,0.315
1747251102860472361,0.312
1747251102868159482,0.28500000000000003
1747251102875846603,0.221
1747251102883533724,0.125
1747251102891220845,0.004
1747251102898907966,-0.113
1747251102906595087,-0.199
1747251102914282208,-0.263
1747251102921969329,-0.312
1747251102929656450,-0.329
1747251102937343571,-0.329
1747251102945030692,-0.329
1747251102952717813,-0.312
1747251102960404934,-0.28800000000000003
1747251102968092055,-0.28500000000000003
1747251102975779176,-0.278
1747251102983466297,-0.248
1747251102991153418,-0.233
1747251102998840539,-0.241
1747251103006527660,-0.231
1747251103014214781,-0.209
1747251103021901902,-0.20600000000000002
1747251103029589023,-0.209
1747251103037276144,-0.199
1747251103044963265,-0.194
1747251103052650386,-0.194
1747251103060337507,-0.192
1747251103068024628,-0.182
1747251103075711749,-0.177
1747251103083398870,-0.187
1747251103091086055,-0.189,87,755
1747251103098773873,-0.17400000000000002,,730
1747251103106461691,-0.179
1747251103114149509,-0.192
1747251103121837327,-0.17400000000000002
1747251103129525145,-0.157
1747251103137212963,-0.164
1747251103144900781,-0.177
1747251103152588599,-0.169
1747251103160276417,-0.152
1747251103167964235,-0.15
1747251103175652053,-0.16
1747251103183339871,-0.157
1747251103191027689,-0.152
1747251103198715507,-0.16
1747251103206403325,-0.15
1747251103214091143,-0.125
1747251103221778961,-0.108
1747251103229466779,-0.10300000000000001
1747251103237154597,-0.1
1747251103244842415,-0.098
1747251103252530233,-0.108
1747251103260218051,-0.145
1747251103267905869,-0.164
1747251103275593687,-0.147
1747251103283281505,-0.14200000000000002
1747251103290969323,-0.145
1747251103298657141,-0.14
1747251103306344959,-0.132
1747251103314032777,-0.135
1747251103321720595,-0.152
1747251103329408413,-0.194
1747251103337096231,-0.273
1747251103344784049,-0.196
1747251103352471867,0.388
1747251103360159685,1.2770000000000001
1747251103367847503,1.74
1747251103375535321,1.223
1747251103383223139,-0.049
1747251103390910957,-0.723
1747251103398598775,-0.34400000000000003
1747251103406286593,-0.093
1747251103413974411,-0.26
1747251103421662229,-0.246
1747251103429350047,-0.14200000000000002
1747251103437037865,-0.162
1747251103444725683,-0.16
1747251103452413501,-0.11
1747251103460101319,-0.093
1747251103467789137,-0.081
1747251103475476955,-0.054
1747251103483164773,-0.034
1747251103490852591,-0.017
1747251103498540409,0.017
1747251103506228227,0.054
1747251103513916045,0.066
1747251103521603863,0.093
1747251103529291681,0.155
1747251103536979499,0.201
1747251103544667317,0.233
1747251103552355135,0.28500000000000003
1747251103560042953,0.332
1747251103567730771,0.352
1747251103575418589,0.359
1747251103583106407,0.356
1747251103590794225,0.34400000000000003
1747251103598482043,0.315
1747251103606169861,0.243
1747251103613857679,0.132
1747251103621545497,0.017
1747251103629233315,-0.093
1747251103636921133,-0.199
1747251103644608951,-0.27
1747251103652296817,-0.305
1747251103659983660,-0.327
1747251103667670503,-0.339
1747251103675357346,-0.332
1747251103683044189,-0.32
1747251103690731032,-0.307
1747251103698417875,-0.28800000000000003
1747251103706104718,-0.27
1747251103713791561,-0.263
1747251103721478404,-0.253
1747251103729165247,-0.23600000000000002
1747251103736852090,-0.224
1747251103744538933,-0.216
1747251103752225776,-0.216
1747251103759912619,-0.219
1747251103767599462,-0.20600000000000002
1747251103775286305,-0.192
1747251103782973148,-0.187
1747251103790659991,-0.192
1747251103798346834,-0.192
1747251103806033677,-0.189
1747251103813720520,-0.184
1747251103821407363,-0.187
1747251103829094206,-0.187
1747251103836781049,-0.182
1747251103844467892,-0.182
1747251103852154735,-0.182
1747251103859841578,-0.167
1747251103867528421,-0.157
1747251103875215264,-0.162
1747251103882902107,-0.157
1747251103890588950,-0.157
1747251103898275793,-0.167
1747251103905962636,-0.16
1747251103913649479,-0.157
1747251103921336322,-0.147
1747251103929023165,-0.135
1747251103936710008,-0.155
1747251103944396851,-0.17400000000000002
1747251103952083694,-0.15
1747251103959770537,-0.1
1747251103967457380,-0.088
1747251103975144223,-0.105
1747251103982831066,-0.1
1747251103990517909,-0.08600000000000001
1747251103998204752,-0.091
1747251104005891595,-0.128
1747251104013578438,-0.167
1747251104021265281,-0.155
1747251104028952124,-0.132
1747251104036638967,-0.14
1747251104044325810,-0.14200000000000002
1747251104052012653,-0.13
1747251104059699496,-0.125
1747251104067386339,-0.14
1747251104075073182,-0.184
1747251104082760025,-0.26
1747251104090446868,-0.179
1747251104098133711,0.41100000000000003
1747251104105820554,1.309
1747251104113507397,1.7890000000000001
1747251104121194240,1.233
1747251104128881083,-0.088
1747251104136567926,-0.711
1747251104144254769,-0.28800000000000003
1747251104151941612,-0.083
1747251104159628455,-0.258
1747251104167315298,-0.216
1747251104175002141,-0.128
1747251104182688984,-0.162
1747251104190375827,-0.14200000000000002
1747251104198062670,-0.091
1747251104205749513,-0.083
1747251104213436367,-0.054,86,704
1747251104221123488,-0.017
1747251104228810609,-0.004
1747251104236497730,0.004
1747251104244184851,0.034
1747251104251871972,0.066
1747251104259559093,0.10300000000000001
1747251104267246214,0.14
1747251104274933335,0.17200000000000001
1747251104282620456,0.233
1747251104290307577,0.297
1747251104297994698,0.332
1747251104305681819,0.371
1747251104313368940,0.41300000000000003
1747251104321056061,0.42
1747251104328743182,0.40800000000000003
1747251104336430303,0.393
1747251104344117424,0.366
1747251104351804545,0.307
1747251104359491666,0.194
1747251104367178787,0.049
1747251104374865908,-0.083
1747251104382553029,-0.187
1747251104390240150,-0.26
1747251104397927271,-0.302
1747251104405614392,-0.327
1747251104413301513,-0.337
1747251104420988634,-0.334
1747251104428675755,-0.322
1747251104436362876,-0.305
1747251104444049997,-0.29
1747251104451737118,-0.278
1747251104459424239,-0.265
1747251104467111360,-0.251
1747251104474798481,-0.228
1747251104482485602,-0.211
1747251104490172723,-0.209
1747251104497859844,-0.214
1747251104505546965,-0.214
1747251104513234086,-0.20400000000000001
1747251104520921207,-0.194
1747251104528608328,-0.192
1747251104536295449,-0.187
1747251104543982570,-0.192
1747251104551669691,-0.194
1747251104559356812,-0.189
1747251104567043933,-0.179
1747251104574731054,-0.17400000000000002
1747251104582418175,-0.177
1747251104590105296,-0.17400000000000002
1747251104597792417,-0.17400000000000002
1747251104605479538,-0.187
1747251104613166659,-0.192
1747251104620853780,-0.169
1747251104628540901,-0.155
1747251104636228022,-0.167
1747251104643915143,-0.17200000000000001
1747251104651602264,-0.164
1747251104659289385,-0.164
1747251104666976506,-0.147
1747251104674663627,-0.115
1747251104682350748,-0.105
1747251104690037869,-0.108
1747251104697724990,-0.10300000000000001
1747251104705412111,-0.108
1747251104713099232,-0.14
1747251104720786353,-0.162
1747251104728473474,-0.155
1747251104736160595,-0.164
1747251104743847716,-0.169
1747251104751534837,-0.147
1747251104759221958,-0.14
1747251104766909079,-0.145
1747251104774596268,-0.147
1747251104782283389,-0.169
1747251104789970510,-0.233
1747251104797657631,-0.302
1747251104805344752,-0.091
1747251104813031873,0.669
1747251104820718994,1.506
1747251104828406115,1.6440000000000001
1747251104836093236,0.758
1747251104843780357,-0.455
1747251104851467478,-0.669
1747251104859154599,-0.199
1747251104866841720,-0.164
1747251104874528841,-0.28300000000000003
1747251104882215962,-0.184
1747251104889903083,-0.145
1747251104897590204,-0.177
1747251104905277325,-0.14200000000000002
1747251104912964446,-0.098
1747251104920651567,-0.091
1747251104928338688,-0.076
1747251104936025809,-0.054
1747251104943712930,-0.024
1747251104951400051,0.002
1747251104959087172,0.019
1747251104966774293,0.046
1747251104974461414,0.081
1747251104982148535,0.108
1747251104989835656,0.15
1747251104997522777,0.209
1747251105005209898,0.256
1747251105012897019,0.28800000000000003
1747251105020584140,0.327
1747251105028271261,0.34900000000000003
1747251105035958382,0.339
1747251105043645503,0.327
1747251105051332624,0.312
1747251105059019745,0.27
1747251105066706866,0.199
1747251105074393987,0.081
1747251105082081108,-0.056
1747251105089768229,-0.167
1747251105097455350,-0.241
1747251105105142471,-0.28800000000000003
1747251105112829592,-0.322
1747251105120516713,-0.339
1747251105128203834,-0.337
1747251105135890955,-0.327
1747251105143578076,-0.307
1747251105151265197,-0.29
1747251105158952318,-0.28300000000000003
1747251105166639439,-0.27
1747251105174326560,-0.253
1747251105182013681,-0.241
1747251105189700802,-0.226
1747251105197387923,-0.219
1747251105205075044,-0.214
1747251105212762165,-0.201
1747251105220449286,-0.192
1747251105228136407,-0.189
1747251105235823528,-0.189
1747251105243510649,-0.184
1747251105251197770,-0.17200000000000001
1747251105258884891,-0.169
1747251105266572012,-0.17400000000000002
1747251105274259133,-0.182
1747251105281946254,-0.184
1747251105289633375,-0.179
1747251105297320496,-0.17400000000000002
1747251105305007617,-0.17200000000000001
1747251105312694738,-0.167
1747251105320381859,-0.167
1747251105328068980,-0.164
1747251105335756165,-0.162,86,729
1747251105343443495,-0.157
1747251105351130825,-0.15
1747251105358818155,-0.14200000000000002
1747251105366505485,-0.147
1747251105374192815,-0.164
1747251105381880145,-0.167
1747251105389567475,-0.152
1747251105397254805,-0.135
1747251105404942135,-0.11
1747251105412629465,-0.098
1747251105420316795,-0.10300000000000001
1747251105428004125,-0.10300000000000001
1747251105435691455,-0.108
1747251105443378785,-0.132
1747251105451066115,-0.16
1747251105458753445,-0.162
1747251105466440775,-0.15
1747251105474128105,-0.135
1747251105481815435,-0.137
1747251105489502765,-0.14
1747251105497190095,-0.135
1747251105504877425,-0.14
1747251105512564755,-0.164
1747251105520252085,-0.23800000000000002
1747251105527939415,-0.27
1747251105535626745,0.096
1747251105543314075,0.933
1747251105551001405,1.627
1747251105558688735,1.491
1747251105566376065,0.388
1747251105574063395,-0.632
1747251105581750725,-0.516
1747251105589438055,-0.1
1747251105597125385,-0.20400000000000001
1747251105604812715,-0.278
1747251105612500045,-0.15
1747251105620187375,-0.137
1747251105627874705,-0.17200000000000001
1747251105635562035,-0.128
1747251105643249365,-0.096
1747251105650936695,-0.093
1747251105658624025,-0.068
1747251105666311355,-0.036000000000000004
1747251105673998685,-0.022
1747251105681686015,-0.007
1747251105689373345,0.022
1747251105697060675,0.054
1747251105704748005,0.083
1747251105712435335,0.11800000000000001
1747251105720122665,0.157
1747251105727809995,0.20400000000000001
1747251105735497325,0.251
1747251105743184655,0.28800000000000003
1747251105750871985,0.312
1747251105758559315,0.332
1747251105766246645,0.337
1747251105773933975,0.32
1747251105781621305,0.292
1747251105789308635,0.248
1747251105796995965,0.169
1747251105804683295,0.061
1747251105812370625,-0.061
1747251105820057955,-0.169
1747251105827745285,-0.23800000000000002
1747251105835432615,-0.28500000000000003
1747251105843119945,-0.32
1747251105850807275,-0.334
1747251105858494605,-0.322
1747251105866181935,-0.312
1747251105873869265,-0.31
1747251105881556595,-0.292
1747251105889243925,-0.273
1747251105896931323,-0.265
1747251105904618514,-0.253
1747251105912305705,-0.23800000000000002
1747251105919992896,-0.228
1747251105927680087,-0.209
1747251105935367278,-0.201
1747251105943054469,-0.221
1747251105950741660,-0.219
1747251105958428851,-0.194
1747251105966116042,-0.196
1747251105973803233,-0.20400000000000001
1747251105981490424,-0.194
1747251105989177615,-0.189
1747251105996864806,-0.194
1747251106004551997,-0.194
1747251106012239188,-0.184
1747251106019926379,-0.182
1747251106027613570,-0.184
1747251106035300761,-0.179
1747251106042987952,-0.177
1747251106050675143,-0.182
1747251106058362334,-0.17400000000000002
1747251106066049525,-0.157
1747251106073736716,-0.152
1747251106081423907,-0.157
1747251106089111098,-0.164
1747251106096798289,-0.17200000000000001
1747251106104485480,-0.17200000000000001
1747251106112172671,-0.157
1747251106119859862,-0.13
1747251106127547053,-0.105
1747251106135234244,-0.11
1747251106142921435,-0.115
1747251106150608626,-0.1
1747251106158295817,-0.105
1747251106165983008,-0.145
1747251106173670199,-0.17200000000000001
1747251106181357390,-0.16
1747251106189044581,-0.145
1747251106196731772,-0.14
1747251106204418963,-0.14
1747251106212106154,-0.14
1747251106219793345,-0.137
1747251106227480536,-0.145
1747251106235167727,-0.184
1747251106242854918,-0.263
1747251106250542109,-0.256
1747251106258229300,0.194
1747251106265916491,1.068
1747251106273603682,1.715
1747251106281290873,1.464
1747251106288978064,0.243
1747251106296665255,-0.7010000000000001
1747251106304352446,-0.448
1747251106312039637,-0.078
1747251106319726828,-0.23600000000000002
1747251106327414019,-0.278
1747251106335101210,-0.147
1747251106342788401,-0.152
1747251106350475592,-0.169
1747251106358162783,-0.113
1747251106365849974,-0.093
1747251106373537165,-0.1
1747251106381224356,-0.07100000000000001
1747251106388911547,-0.034
1747251106396598738,-0.017
1747251106404285929,0.004
1747251106411973120,0.036000000000000004
1747251106419660311,0.066
1747251106427347502,0.098
1747251106435034693,0.135
1747251106442721884,0.177
1747251106450409075,0.219
1747251106458096307,0.263,85,745
1747251106465783498,0.302,,712
1747251106473470689,0.332
1747251106481157880,0.34700000000000003
1747251106488845071,0.34700000000000003
1747251106496532262,0.334
1747251106504219453,0.307
1747251106511906644,0.256
1747251106519593835,0.169
1747251106527281026,0.051000000000000004
1747251106534968217,-0.088
1747251106542655408,-0.20400000000000001
1747251106550342599,-0.268
1747251106558029790,-0.302
1747251106565716981,-0.332
1747251106573404172,-0.34900000000000003
1747251106581091363,-0.339
1747251106588778554,-0.322
1747251106596465745,-0.307
1747251106604152936,-0.292
1747251106611840127,-0.278
1747251106619527318,-0.268
1747251106627214509,-0.256
1747251106634901700,-0.241
1747251106642588891,-0.231
1747251106650276082,-0.224
1747251106657963273,-0.224
1747251106665650464,-0.219
1747251106673337655,-0.209
1747251106681024846,-0.20600000000000002
1747251106688712037,-0.20600000000000002
1747251106696399228,-0.201
1747251106704086419,-0.194
1747251106711773610,-0.189
1747251106719460801,-0.194
1747251106727147992,-0.194
1747251106734835183,-0.187
1747251106742522374,-0.187
1747251106750209565,-0.192
1747251106757896756,-0.187
1747251106765583947,-0.177
1747251106773271138,-0.17400000000000002
1747251106780958329,-0.179
1747251106788645520,-0.177
1747251106796332711,-0.16
1747251106804019902,-0.152
1747251106811707093,-0.16
1747251106819394284,-0.167
1747251106827081475,-0.169
1747251106834768666,-0.162
1747251106842455857,-0.135
1747251106850143048,-0.11
1747251106857830239,-0.11
1747251106865517430,-0.11
1747251106873204621,-0.1
1747251106880891812,-0.11800000000000001
1747251106888579003,-0.16
1747251106896266194,-0.17400000000000002
1747251106903953385,-0.155
1747251106911640576,-0.147
1747251106919327767,-0.15
1747251106927014958,-0.145
1747251106934702149,-0.14200000000000002
1747251106942389340,-0.14
1747251106950076531,-0.147
1747251106957763722,-0.199
1747251106965450913,-0.297
1747251106973138104,-0.23600000000000002
1747251106980825295,0.337
1747251106988512486,1.262
1747251106996199677,1.829
1747251107003886868,1.344
1747251107011574059,-0.027
1747251107019261291,-0.765
1747251107026948482,-0.337
1747251107034635673,-0.081
1747251107042322864,-0.28800000000000003
1747251107050010055,-0.263
1747251107057697246,-0.14200000000000002
1747251107065384437,-0.177
1747251107073071628,-0.17200000000000001
1747251107080758819,-0.108
1747251107088446010,-0.1
1747251107096133201,-0.105
1747251107103820392,-0.073
1747251107111507583,-0.039
1747251107119194774,-0.014
1747251107126881965,0.007
1747251107134569156,0.029
1747251107142256347,0.061
1747251107149943538,0.096
1747251107157630729,0.132
1747251107165317920,0.179
1747251107173005111,0.231
1747251107180692302,0.27
1747251107188379493,0.302
1747251107196066684,0.329
1747251107203753875,0.352
1747251107211441066,0.34400000000000003
1747251107219128257,0.31
1747251107226815448,0.28
1747251107234502639,0.23600000000000002
1747251107242189830,0.14200000000000002
1747251107249877021,0.012
1747251107257564212,-0.108
1747251107265251403,-0.209
1747251107272938594,-0.278
1747251107280625785,-0.307
1747251107288312976,-0.327
1747251107296000167,-0.337
1747251107303687358,-0.324
1747251107311374549,-0.317
1747251107319061740,-0.31
1747251107326748931,-0.28800000000000003
1747251107334436122,-0.27
1747251107342123313,-0.263
1747251107349810504,-0.248
1747251107357497695,-0.23600000000000002
1747251107365184886,-0.228
1747251107372872077,-0.214
1747251107380559268,-0.20600000000000002
1747251107388246459,-0.209
1747251107395933650,-0.20400000000000001
1747251107403620841,-0.201
1747251107411308032,-0.20400000000000001
1747251107418995223,-0.201
1747251107426682414,-0.201
1747251107434369605,-0.194
1747251107442056796,-0.189
1747251107449743987,-0.192
1747251107457431178,-0.184
1747251107465118369,-0.17200000000000001
1747251107472805560,-0.184
1747251107480492751,-0.187
1747251107488179942,-0.17400000000000002
1747251107495867133,-0.17400000000000002
1747251107503554324,-0.17400000000000002
1747251107511241515,-0.157
1747251107518928706,-0.155
1747251107526615897,-0.164
1747251107534303088,-0.16
1747251107541990279,-0.157
1747251107549677470,-0.169
1747251107557364661,-0.169
1747251107565051852,-0.135
1747251107572739043,-0.113
1747251107580426275,-0.115,85,729
1747251107588113396,-0.105
1747251107595800517,-0.091
1747251107603487638,-0.108
1747251107611174759,-0.147
1747251107618861880,-0.164
1747251107626549001,-0.162
1747251107634236122,-0.16
1747251107641923243,-0.152
1747251107649610364,-0.147
1747251107657297485,-0.14
1747251107664984606,-0.13
1747251107672671727,-0.147
1747251107680358848,-0.194
1747251107688045969,-0.273
1747251107695733090,-0.26
1747251107703420211,0.201
1747251107711107332,1.117
1747251107718794453,1.826
1747251107726481574,1.55
1747251107734168695,0.216
1747251107741855816,-0.745
1747251107749542937,-0.425
1747251107757230058,-0.07100000000000001
1747251107764917179,-0.263
1747251107772604300,-0.28300000000000003
1747251107780291421,-0.137
1747251107787978542,-0.16
1747251107795665663,-0.187
1747251107803352784,-0.123
1747251107811039905,-0.091
1747251107818727026,-0.091
1747251107826414147,-0.073
1747251107834101268,-0.041
1747251107841788389,-0.009000000000000001
1747251107849475510,0.009000000000000001
1747251107857162631,0.024
1747251107864849752,0.061
1747251107872536873,0.108
1747251107880223994,0.137
1747251107887911115,0.169
1747251107895598236,0.221
1747251107903285357,0.27
1747251107910972478,0.317
1747251107918659599,0.34900000000000003
1747251107926346720,0.352
1747251107934033841,0.34400000000000003
1747251107941720962,0.332
1747251107949408083,0.295
1747251107957095204,0.243
1747251107964782325,0.162
1747251107972469446,0.039
1747251107980156567,-0.08600000000000001
1747251107987843688,-0.189
1747251107995530809,-0.265
1747251108003217930,-0.307
1747251108010905051,-0.322
1747251108018592172,-0.332
1747251108026279293,-0.332
1747251108033966414,-0.324
1747251108041653535,-0.312
1747251108049340656,-0.295
1747251108057027777,-0.275
1747251108064714898,-0.263
1747251108072402019,-0.251
1747251108080089140,-0.23600000000000002
1747251108087776261,-0.224
1747251108095463382,-0.219
1747251108103150503,-0.219
1747251108110837624,-0.216
1747251108118524745,-0.20400000000000001
1747251108126211866,-0.196
1747251108133898987,-0.201
1747251108141586172,-0.201,84,722
1747251108149273293,-0.189
1747251108156960414,-0.192
1747251108164647535,-0.20600000000000002
1747251108172334656,-0.199
1747251108180021777,-0.182
1747251108187708898,-0.184
1747251108195396019,-0.187
1747251108203083140,-0.182
1747251108210770261,-0.179
1747251108218457382,-0.169
1747251108226144503,-0.162
1747251108233831624,-0.17400000000000002
1747251108241518745,-0.182
1747251108249205866,-0.167
1747251108256892987,-0.152
1747251108264580108,-0.16
1747251108272267229,-0.17400000000000002
1747251108279954350,-0.169
1747251108287641471,-0.132
1747251108295328592,-0.105
1747251108303015713,-0.10300000000000001
1747251108310702834,-0.105
1747251108318389955,-0.1
1747251108326077076,-0.115
1747251108333764197,-0.15
1747251108341451318,-0.169
1747251108349138439,-0.16
1747251108356825560,-0.147
1747251108364512681,-0.145
1747251108372199802,-0.14
1747251108379886923,-0.137
1747251108387574044,-0.14
1747251108395261165,-0.14200000000000002
1747251108402948286,-0.187
1747251108410635407,-0.29
1747251108418322528,-0.248
1747251108426009649,0.307
1747251108433696770,1.27
1747251108441383891,1.922
1747251108449071012,1.489
1747251108456758133,0.046
1747251108464445254,-0.795
1747251108472132375,-0.371
1747251108479819496,-0.07100000000000001
1747251108487506617,-0.273
1747251108495193738,-0.258
1747251108502880859,-0.145
1747251108510567980,-0.17200000000000001
1747251108518255101,-0.162
1747251108525942222,-0.115
1747251108533629343,-0.10300000000000001
1747251108541316464,-0.078
1747251108549003585,-0.046
1747251108556690706,-0.036000000000000004
1747251108564377827,-0.019
1747251108572064948,0.019
1747251108579752069,0.046
1747251108587439190,0.073
1747251108595126311,0.125
1747251108602813432,0.164
1747251108610500553,0.199
1747251108618187674,0.256
1747251108625874795,0.312
1747251108633561916,0.34400000000000003
1747251108641249037,0.366
1747251108648936158,0.381
1747251108656623279,0.381
1747251108664310400,0.371
1747251108671997521,0.329
1747251108679684642,0.253
1747251108687371763,0.167
1747251108695058884,0.051000000000000004
1747251108702746069,-0.093
1747251108710433190,-0.201
1747251108718120311,-0.26
1747251108725807432,-0.307
1747251108733494553,-0.329
1747251108741181674,-0.334
1747251108748868795,-0.334
1747251108756555916,-0.322
1747251108764243037,-0.31
1747251108771930158,-0.297
1747251108779617279,-0.278
1747251108787304400,-0.263
1747251108794991521,-0.246
1747251108802678642,-0.233
1747251108810365763,-0.228
1747251108818052884,-0.219
1747251108825740005,-0.20600000000000002
1747251108833427126,-0.196
1747251108841114247,-0.189
1747251108848801368,-0.187
1747251108856488489,-0.192
1747251108864175610,-0.192
1747251108871862731,-0.187
1747251108879549852,-0.179
1747251108887236973,-0.184
1747251108894924094,-0.189
1747251108902611215,-0.184
1747251108910298336,-0.182
1747251108917985457,-0.177
1747251108925672578,-0.169
1747251108933359699,-0.17200000000000001
1747251108941046820,-0.17200000000000001
1747251108948733941,-0.157
1747251108956421062,-0.155
1747251108964108183,-0.167
1747251108971795304,-0.179
1747251108979482425,-0.164
1747251108987169546,-0.137
1747251108994856667,-0.113
1747251109002543788,-0.105
1747251109010230909,-0.10300000000000001
1747251109017918030,-0.096
1747251109025605151,-0.108
1747251109033292272,-0.14200000000000002
1747251109040979393,-0.167
1747251109048666514,-0.164
1747251109056353635,-0.145
1747251109064040756,-0.14200000000000002
1747251109071727877,-0.155
1747251109079414998,-0.15
1747251109087102119,-0.132
1747251109094789240,-0.137
1747251109102476361,-0.17200000000000001
1747251109110163482,-0.23600000000000002
1747251109117850603,-0.275
1747251109125537724,0.049
1747251109133224845,0.908
1747251109140911966,1.6320000000000001
1747251109148599087,1.467
1747251109156286208,0.376
1747251109163973329,-0.62
1747251109171660450,-0.529
1747251109179347571,-0.125
1747251109187034692,-0.201
1747251109194721813,-0.253
1747251109202408934,-0.135
1747251109210096055,-0.13
1747251109217783176,-0.152
1747251109225470297,-0.098
1747251109233157418,-0.064
1747251109240844539,-0.061
1747251109248531660,-0.039
1747251109256218781,-0.014
1747251109263905966,0.009000000000000001,84,721
1747251109271593087,0.051000000000000004,,724
1747251109279280208,0.076
1747251109286967329,0.088
1747251109294654450,0.14
1747251109302341571,0.196
1747251109310028692,0.228
1747251109317715813,0.28500000000000003
1747251109325402934,0.366
1747251109333090055,0.41600000000000004
1747251109340777176,0.428
1747251109348464297,0.428
1747251109356151418,0.43
1747251109363838539,0.43
1747251109371525660,0.384
1747251109379212781,0.312
1747251109386899902,0.226
1747251109394587023,0.091
1747251109402274144,-0.061
1747251109409961265,-0.187
1747251109417648386,-0.273
1747251109425335507,-0.324
1747251109433022628,-0.356
1747251109440709749,-0.371
1747251109448396870,-0.359
1747251109456083991,-0.324
1747251109463771112,-0.32
1747251109471458233,-0.322
1747251109479145354,-0.302
1747251109486832475,-0.28300000000000003
1747251109494519596,-0.27
1747251109502206717,-0.263
1747251109509893838,-0.248
1747251109517580959,-0.221
1747251109525268080,-0.209
1747251109532955201,-0.211
1747251109540642322,-0.199
1747251109548329443,-0.192
1747251109556016564,-0.20400000000000001
1747251109563703685,-0.187
1747251109571390806,-0.169
1747251109579077927,-0.196
1747251109586765048,-0.209
1747251109594452169,-0.184
1747251109602139290,-0.17400000000000002
1747251109609826411,-0.187
1747251109617513532,-0.187
1747251109625200653,-0.177
1747251109632887774,-0.187
1747251109640574895,-0.192
1747251109648262016,-0.169
1747251109655949137,-0.147
1747251109663636258,-0.14200000000000002
1747251109671323379,-0.14
1747251109679010500,-0.128
1747251109686697621,-0.123
1747251109694384742,-0.15
1747251109702071863,-0.189
1747251109709758984,-0.192
1747251109717446105,-0.17400000000000002
1747251109725133226,-0.177
1747251109732820347,-0.179
1747251109740507468,-0.167
1747251109748194589,-0.162
1747251109755881710,-0.17200000000000001
1747251109763568831,-0.187
1747251109771255952,-0.23600000000000002
1747251109778943073,-0.32
1747251109786630194,-0.189
1747251109794317315,0.521
1747251109802004436,1.427
1747251109809691557,1.666
1747251109817378678,0.886
1747251109825065863,-0.305
1747251109832752984,-0.686
1747251109840440105,-0.302
1747251109848127226,-0.199
1747251109855814347,-0.3
1747251109863501468,-0.211
1747251109871188589,-0.164
1747251109878875710,-0.20400000000000001
1747251109886562831,-0.167
1747251109894249952,-0.11800000000000001
1747251109901937073,-0.113
1747251109909624194,-0.1
1747251109917311315,-0.07100000000000001
1747251109924998436,-0.049
1747251109932685557,-0.029
1747251109940372678,0.002
1747251109948059799,0.036000000000000004
1747251109955746920,0.07100000000000001
1747251109963434041,0.105
1747251109971121162,0.14200000000000002
1747251109978808283,0.192
1747251109986495404,0.241
1747251109994182525,0.28300000000000003
1747251110001869646,0.32
1747251110009556767,0.332
1747251110017243888,0.329
1747251110024931009,0.322
1747251110032618130,0.297
1747251110040305251,0.251
1747251110047992372,0.179
1747251110055679493,0.061
1747251110063366614,-0.078
1747251110071053735,-0.184
1747251110078740856,-0.26
1747251110086427977,-0.32
1747251110094115098,-0.354
1747251110101802219,-0.369
1747251110109489340,-0.361
1747251110117176461,-0.352
1747251110124863582,-0.34700000000000003
1747251110132550703,-0.327
1747251110140237824,-0.307
1747251110147924945,-0.292
1747251110155612066,-0.278
1747251110163299187,-0.265
1747251110170986308,-0.243
1747251110178673429,-0.228
1747251110186360550,-0.233
1747251110194047671,-0.23600000000000002
1747251110201734792,-0.216
1747251110209421913,-0.196
1747251110217109034,-0.192
1747251110224796155,-0.196
1747251110232483276,-0.199
1747251110240170397,-0.192
1747251110247857518,-0.182
1747251110255544639,-0.189
1747251110263231760,-0.201
1747251110270918881,-0.20400000000000001
1747251110278606002,-0.199
1747251110286293123,-0.187
1747251110293980244,-0.179
1747251110301667365,-0.187
1747251110309354486,-0.187
1747251110317041607,-0.182
1747251110324728728,-0.189
1747251110332415849,-0.194
1747251110340102970,-0.169
1747251110347790091,-0.145
1747251110355477212,-0.147
1747251110363164333,-0.14200000000000002
1747251110370851454,-0.123
1747251110378538575,-0.125
1747251110386225760,-0.157,84,722
1747251110393912881,-0.177
1747251110401600002,-0.179
1747251110409287123,-0.179
1747251110416974244,-0.17400000000000002
1747251110424661365,-0.167
1747251110432348486,-0.162
1747251110440035607,-0.157
1747251110447722728,-0.162
1747251110455409849,-0.189
1747251110463096970,-0.256
1747251110470784091,-0.3
1747251110478471212,-0.014
1747251110486158333,0.77
1747251110493845454,1.56
1747251110501532575,1.661
1747251110509219696,0.748
1747251110516906817,-0.457
1747251110524593938,-0.642
1747251110532281059,-0.189
1747251110539968180,-0.184
1747251110547655301,-0.32
1747251110555342422,-0.221
1747251110563029543,-0.162
1747251110570716664,-0.192
1747251110578403785,-0.17400000000000002
1747251110586090906,-0.137
1747251110593778027,-0.123
1747251110601465148,-0.10300000000000001
1747251110609152269,-0.076
1747251110616839390,-0.056
1747251110624526511,-0.032
1747251110632213632,-0.002
1747251110639900753,0.032
1747251110647587874,0.068
1747251110655274995,0.096
1747251110662962116,0.128
1747251110670649237,0.179
1747251110678336358,0.23600000000000002
1747251110686023479,0.28800000000000003
1747251110693710600,0.324
1747251110701397721,0.342
1747251110709084842,0.342
1747251110716771963,0.332
1747251110724459084,0.315
1747251110732146205,0.278
1747251110739833326,0.194
1747251110747520447,0.068
1747251110755207568,-0.066
1747251110762894689,-0.17400000000000002
1747251110770581810,-0.26
1747251110778268931,-0.315
1747251110785956052,-0.339
1747251110793643173,-0.34700000000000003
1747251110801330294,-0.339
1747251110809017415,-0.324
1747251110816704536,-0.315
1747251110824391657,-0.302
1747251110832078778,-0.28500000000000003
1747251110839765899,-0.265
1747251110847453020,-0.253
1747251110855140141,-0.256
1747251110862827262,-0.241
1747251110870514383,-0.221
1747251110878201504,-0.226
1747251110885888625,-0.221
1747251110893575746,-0.196
1747251110901262867,-0.199
1747251110908949988,-0.211
1747251110916637109,-0.196
1747251110924324230,-0.192
1747251110932011351,-0.209
1747251110939698472,-0.20400000000000001
1747251110947385657,-0.187
1747251110955072848,-0.187
1747251110962760039,-0.187
1747251110970447230,-0.179
1747251110978134421,-0.177
1747251110985821612,-0.182
1747251110993508803,-0.179
1747251111001195994,-0.167
1747251111008883185,-0.16
1747251111016570376,-0.169
1747251111024257567,-0.187
1747251111031944758,-0.182
1747251111039631949,-0.145
1747251111047319140,-0.11800000000000001
1747251111055006331,-0.123
1747251111062693522,-0.12
1747251111070380713,-0.10300000000000001
1747251111078067904,-0.105
1747251111085755095,-0.137
1747251111093442286,-0.177
1747251111101129477,-0.177
1747251111108816668,-0.157
1747251111116503859,-0.155
1747251111124191050,-0.155
1747251111131878241,-0.14200000000000002
1747251111139565432,-0.14
1747251111147252623,-0.152
1747251111154939814,-0.167
1747251111162627005,-0.216
1747251111170314196,-0.29
1747251111178001387,-0.11
1747251111185688578,0.615
1747251111193375769,1.504
1747251111201062960,1.802
1747251111208750151,1.043
1747251111216437342,-0.278
1747251111224124533,-0.713
1747251111231811724,-0.251
1747251111239498915,-0.13
1747251111247186106,-0.297
1747251111254873297,-0.228
1747251111262560488,-0.152
1747251111270247679,-0.189
1747251111277934870,-0.164
1747251111285622061,-0.11
1747251111293309252,-0.10300000000000001
1747251111300996443,-0.088
1747251111308683634,-0.061
1747251111316370825,-0.044
1747251111324058016,-0.027
1747251111331745207,0.004
1747251111339432398,0.044
1747251111347119589,0.078
1747251111354806780,0.105
1747251111362493971,0.145
1747251111370181162,0.20400000000000001
1747251111377868353,0.26
1747251111385555544,0.305
1747251111393242735,0.354
1747251111400929926,0.388
1747251111408617117,0.384
1747251111416304308,0.361
1747251111423991499,0.34700000000000003
1747251111431678690,0.317
1747251111439365881,0.231
1747251111447053072,0.091
1747251111454740263,-0.041
1747251111462427454,-0.152
1747251111470114645,-0.243
1747251111477801836,-0.305
1747251111485489027,-0.339
1747251111493176218,-0.352
1747251111500863409,-0.34400000000000003
1747251111508550645,-0.337,84,701
1747251111516237836,-0.327,,664
1747251111523925027,-0.31
1747251111531612218,-0.302
1747251111539299409,-0.28800000000000003
1747251111546986600,-0.263
1747251111554673791,-0.256
1747251111562360982,-0.246
1747251111570048173,-0.233
1747251111577735364,-0.224
1747251111585422555,-0.219
1747251111593109746,-0.216
1747251111600796937,-0.214
1747251111608484128,-0.20600000000000002
1747251111616171319,-0.20600000000000002
1747251111623858510,-0.209
1747251111631545701,-0.20400000000000001
1747251111639232892,-0.196
1747251111646920083,-0.189
1747251111654607274,-0.192
1747251111662294465,-0.20600000000000002
1747251111669981656,-0.194
1747251111677668847,-0.169
1747251111685356038,-0.177
1747251111693043229,-0.184
1747251111700730420,-0.17400000000000002
1747251111708417611,-0.17400000000000002
1747251111716104802,-0.164
1747251111723791993,-0.152
1747251111731479184,-0.155
1747251111739166375,-0.155
1747251111746853566,-0.147
1747251111754540757,-0.155
1747251111762227948,-0.162
1747251111769915139,-0.155
1747251111777602330,-0.152
1747251111785289521,-0.135
1747251111792976712,-0.098
1747251111800663903,-0.1
1747251111808351094,-0.113
1747251111816038285,-0.093
1747251111823725476,-0.083
1747251111831412667,-0.11800000000000001
1747251111839099858,-0.14200000000000002
1747251111846787049,-0.137
1747251111854474240,-0.145
1747251111862161431,-0.14
1747251111869848622,-0.13
1747251111877535813,-0.13
1747251111885223004,-0.12
1747251111892910195,-0.11800000000000001
1747251111900597386,-0.145
1747251111908284577,-0.201
1747251111915971768,-0.263
1747251111923658959,-0.098
1747251111931346150,0.6
1747251111939033341,1.477
1747251111946720532,1.742
1747251111954407723,0.987
1747251111962094914,-0.26
1747251111969782105,-0.662
1747251111977469296,-0.228
1747251111985156487,-0.125
1747251111992843678,-0.268
1747251112000530869,-0.192
1747251112008218060,-0.13
1747251112015905251,-0.162
1747251112023592442,-0.125
1747251112031279633,-0.081
1747251112038966824,-0.088
1747251112046654015,-0.081
1747251112054341206,-0.041
1747251112062028397,-0.012
1747251112069715629,0.014,84,690
1747251112077402820,0.039
1747251112085090011,0.066
1747251112092777202,0.108
1747251112100464393,0.15
1747251112108151584,0.189
1747251112115838775,0.23600000000000002
1747251112123525966,0.297
1747251112131213157,0.361
1747251112138900348,0.406
1747251112146587539,0.428
1747251112154274730,0.438
1747251112161961921,0.433
1747251112169649112,0.41100000000000003
1747251112177336303,0.371
1747251112185023494,0.29
1747251112192710685,0.162
1747251112200397876,0.019
1747251112208085067,-0.113
1747251112215772258,-0.219
1747251112223459449,-0.28800000000000003
1747251112231146640,-0.329
1747251112238833831,-0.354
1747251112246521022,-0.354
1747251112254208213,-0.34700000000000003
1747251112261895404,-0.337
1747251112269582595,-0.31
1747251112277269786,-0.295
1747251112284956977,-0.28500000000000003
1747251112292644168,-0.263
1747251112300331359,-0.258
1747251112308018550,-0.256
1747251112315705741,-0.231
1747251112323392932,-0.216
1747251112331080123,-0.219
1747251112338767314,-0.209
1747251112346454505,-0.192
1747251112354141696,-0.194
1747251112361828887,-0.20400000000000001
1747251112369516078,-0.196
1747251112377203269,-0.189
1747251112384890460,-0.187
1747251112392577651,-0.182
1747251112400264842,-0.187
1747251112407952033,-0.189
1747251112415639224,-0.169
1747251112423326415,-0.16
1747251112431013606,-0.184
1747251112438700797,-0.194
1747251112446387988,-0.164
1747251112454075179,-0.155
1747251112461762370,-0.167
1747251112469449561,-0.17400000000000002
1747251112477136752,-0.152
1747251112484823943,-0.14
1747251112492511134,-0.164
1747251112500198325,-0.17400000000000002
1747251112507885516,-0.145
1747251112515572707,-0.11800000000000001
1747251112523259898,-0.105
1747251112530947089,-0.093
1747251112538634280,-0.088
1747251112546321471,-0.1
1747251112554008662,-0.125
1747251112561695853,-0.145
1747251112569383044,-0.157
1747251112577070235,-0.162
1747251112584757426,-0.152
1747251112592444617,-0.14200000000000002
1747251112600131808,-0.145
1747251112607818999,-0.135
1747251112615506190,-0.128
1747251112623193381,-0.135
1747251112630880613,-0.164
1747251112638567804,-0.228
1747251112646254995,-0.28800000000000003
1747251112653942186,-0.059000000000000004
1747251112661629377,0.706
1747251112669316568,1.496
1747251112677003759,1.536
1747251112684690950,0.669
1747251112692378141,-0.398
1747251112700065332,-0.605
1747251112707752523,-0.224
1747251112715439714,-0.169
1747251112723126905,-0.251
1747251112730814096,-0.17400000000000002
1747251112738501287,-0.14200000000000002
1747251112746188478,-0.152
1747251112753875669,-0.115
1747251112761562860,-0.091
1747251112769250051,-0.083
1747251112776937242,-0.059000000000000004
1747251112784624433,-0.032
1747251112792311624,-0.014
1747251112799998815,0.014
1747251112807686006,0.044
1747251112815373197,0.07100000000000001
1747251112823060388,0.108
1747251112830747579,0.16
1747251112838434770,0.211
1747251112846121961,0.263
1747251112853809152,0.315
1747251112861496343,0.364
1747251112869183534,0.40800000000000003
1747251112876870725,0.428
1747251112884557916,0.433
1747251112892245107,0.418
1747251112899932298,0.388
1747251112907619489,0.342
1747251112915306680,0.251
1747251112922993871,0.11
1747251112930681062,-0.041
1747251112938368253,-0.167
1747251112946055444,-0.263
1747251112953742635,-0.322
1747251112961429826,-0.34900000000000003
1747251112969117017,-0.364
1747251112976804208,-0.369
1747251112984491399,-0.361
1747251112992178590,-0.34700000000000003
1747251112999865781,-0.329
1747251113007552972,-0.315
1747251113015240163,-0.302
1747251113022927354,-0.28500000000000003
1747251113030614545,-0.275
1747251113038301736,-0.268
1747251113045988927,-0.251
1747251113053676118,-0.23800000000000002
1747251113061363309,-0.23800000000000002
1747251113069050500,-0.228
1747251113076737691,-0.20600000000000002
1747251113084424882,-0.201
1747251113092112073,-0.20600000000000002
1747251113099799264,-0.196
1747251113107486455,-0.201
1747251113115173646,-0.209
1747251113122860837,-0.196
1747251113130548028,-0.194
1747251113138235219,-0.20600000000000002
1747251113145922410,-0.20400000000000001
1747251113153609601,-0.201
1747251113161296792,-0.192
1747251113168983983,-0.182
1747251113176671174,-0.194
1747251113184358365,-0.199
1747251113192045597,-0.17400000000000002,85,701
1747251113199732440,-0.162
1747251113207419283,-0.184
1747251113215106126,-0.194
1747251113222792969,-0.169
1747251113230479812,-0.16
1747251113238166655,-0.17400000000000002
1747251113245853498,-0.17400000000000002
1747251113253540341,-0.167
1747251113261227184,-0.169
1747251113268914027,-0.16
1747251113276600870,-0.123
1747251113284287713,-0.11800000000000001
1747251113291974556,-0.135
1747251113299661399,-0.115
1747251113307348242,-0.093
1747251113315035085,-0.123
1747251113322721928,-0.162
1747251113330408771,-0.169
1747251113338095614,-0.169
1747251113345782457,-0.167
1747251113353469300,-0.15
1747251113361156143,-0.15
1747251113368842986,-0.164
1747251113376529829,-0.155
1747251113384216672,-0.14
1747251113391903515,-0.167
1747251113399590358,-0.248
1747251113407277201,-0.28
1747251113414964044,0.076
1747251113422650887,0.915
1747251113430337730,1.641
1747251113438024573,1.592
1747251113445711416,0.5630000000000001
1747251113453398259,-0.561
1747251113461085102,-0.585
1747251113468771945,-0.15
1747251113476458788,-0.20600000000000002
1747251113484145631,-0.302
1747251113491832474,-0.184
1747251113499519317,-0.169
1747251113507206160,-0.199
1747251113514893003,-0.145
1747251113522579846,-0.108
1747251113530266689,-0.11800000000000001
1747251113537953532,-0.098
1747251113545640375,-0.061
1747251113553327218,-0.039
1747251113561014061,-0.022
1747251113568700904,0.009000000000000001
1747251113576387747,0.039
1747251113584074590,0.064
1747251113591761433,0.10300000000000001
1747251113599448276,0.15
1747251113607135119,0.201
1747251113614821962,0.26
1747251113622508805,0.307
1747251113630195648,0.334
1747251113637882491,0.354
1747251113645569334,0.361
1747251113653256177,0.352
1747251113660943020,0.329
1747251113668629863,0.28800000000000003
1747251113676316706,0.20400000000000001
1747251113684003549,0.081
1747251113691690392,-0.049
1747251113699377235,-0.16
1747251113707064078,-0.251
1747251113714750921,-0.312
1747251113722437764,-0.339
1747251113730124607,-0.342
1747251113737811450,-0.342
1747251113745498293,-0.342
1747251113753185146,-0.329
1747251113760872267,-0.305
1747251113768559388,-0.29
1747251113776246509,-0.28500000000000003
1747251113783933630,-0.27
1747251113791620751,-0.256
1747251113799307872,-0.246
1747251113806994993,-0.221
1747251113814682114,-0.214
1747251113822369235,-0.228
1747251113830056356,-0.221
1747251113837743477,-0.20400000000000001
1747251113845430598,-0.201
1747251113853117719,-0.199
1747251113860804840,-0.20600000000000002
1747251113868491961,-0.211
1747251113876179082,-0.199
1747251113883866203,-0.192
1747251113891553324,-0.192
1747251113899240445,-0.182
1747251113906927566,-0.184
1747251113914614687,-0.194
1747251113922301808,-0.187
1747251113929988929,-0.17200000000000001
1747251113937676050,-0.17400000000000002
1747251113945363171,-0.179
1747251113953050292,-0.169
1747251113960737413,-0.162
1747251113968424534,-0.16
1747251113976111655,-0.16
1747251113983798776,-0.16
1747251113991485897,-0.155
1747251113999173018,-0.15
1747251114006860139,-0.155
1747251114014547260,-0.147
1747251114022234381,-0.13
1747251114029921502,-0.137
1747251114037608623,-0.16
1747251114045295744,-0.162
1747251114052982865,-0.135
1747251114060669986,-0.108
1747251114068357107,-0.10300000000000001
1747251114076044228,-0.108
1747251114083731349,-0.098
1747251114091418470,-0.083
1747251114099105591,-0.096
1747251114106792712,-0.137
1747251114114479833,-0.164
1747251114122166954,-0.15
1747251114129854075,-0.132
1747251114137541196,-0.145
1747251114145228317,-0.147
1747251114152915438,-0.13
1747251114160602559,-0.11800000000000001
1747251114168289680,-0.132
1747251114175976801,-0.157
1747251114183663922,-0.219
1747251114191351043,-0.275
1747251114199038164,0.009000000000000001
1747251114206725285,0.8220000000000001
1747251114214412406,1.641
1747251114222099527,1.74
1747251114229786648,0.78
1747251114237473769,-0.462
1747251114245160890,-0.635
1747251114252848011,-0.162
1747251114260535132,-0.17200000000000001
1747251114268222253,-0.317
1747251114275909374,-0.199
1747251114283596495,-0.145
1747251114291283616,-0.194
1747251114298970737,-0.16
1747251114306657858,-0.10300000000000001
1747251114314345043,-0.1,85,745
1747251114322032234,-0.096,,729
1747251114329719425,-0.064
1747251114337406616,-0.039
1747251114345093807,-0.019
1747251114352780998,0.009000000000000001
1747251114360468189,0.041
1747251114368155380,0.073
1747251114375842571,0.105
1747251114383529762,0.145
1747251114391216953,0.201
1747251114398904144,0.258
1747251114406591335,0.3
1747251114414278526,0.342
1747251114421965717,0.379
1747251114429652908,0.384
1747251114437340099,0.366
1747251114445027290,0.352
1747251114452714481,0.315
1747251114460401672,0.23800000000000002
1747251114468088863,0.128
1747251114475776054,0.004
1747251114483463245,-0.13
1747251114491150436,-0.246
1747251114498837627,-0.307
1747251114506524818,-0.329
1747251114514212009,-0.342
1747251114521899200,-0.354
1747251114529586391,-0.34700000000000003
1747251114537273582,-0.324
1747251114544960773,-0.315
1747251114552647964,-0.305
1747251114560335155,-0.29
1747251114568022346,-0.275
1747251114575709537,-0.263
1747251114583396728,-0.248
1747251114591083919,-0.23800000000000002
1747251114598771110,-0.231
1747251114606458301,-0.219
1747251114614145492,-0.211
1747251114621832683,-0.216
1747251114629519874,-0.216
1747251114637207065,-0.211
1747251114644894256,-0.20600000000000002
1747251114652581447,-0.199
1747251114660268638,-0.201
1747251114667955829,-0.209
1747251114675643020,-0.194
1747251114683330211,-0.184
1747251114691017402,-0.192
1747251114698704593,-0.192
1747251114706391784,-0.182
1747251114714078975,-0.184
1747251114721766166,-0.184
1747251114729453357,-0.177
1747251114737140548,-0.164
1747251114744827739,-0.167
1747251114752514930,-0.17200000000000001
1747251114760202121,-0.167
1747251114767889312,-0.155
1747251114775576503,-0.152
1747251114783263694,-0.16
1747251114790950885,-0.16
1747251114798638076,-0.15
1747251114806325267,-0.14
1747251114814012458,-0.147
1747251114821699649,-0.16
1747251114829386840,-0.152
1747251114837074031,-0.132
1747251114844761222,-0.113
1747251114852448413,-0.108
1747251114860135604,-0.105
1747251114867822795,-0.091
1747251114875510031,-0.088
1747251114883197083,-0.113
1747251114890884135,-0.152
1747251114898571187,-0.162
1747251114906258239,-0.14200000000000002
1747251114913945291,-0.14
1747251114921632343,-0.147
1747251114929319395,-0.132
1747251114937006447,-0.123
1747251114944693499,-0.13
1747251114952380551,-0.14
1747251114960067603,-0.164
1747251114967754655,-0.23800000000000002
1747251114975441707,-0.256
1747251114983128759,0.147
1747251114990815811,1.031
1747251114998502863,1.7570000000000001
1747251115006189915,1.602
1747251115013876967,0.433
1747251115021564019,-0.635
1747251115029251071,-0.524
1747251115036938123,-0.11800000000000001
1747251115044625175,-0.224
1747251115052312227,-0.28800000000000003
1747251115059999279,-0.169
1747251115067686331,-0.164
1747251115075373383,-0.187
1747251115083060435,-0.132
1747251115090747487,-0.10300000000000001
1747251115098434539,-0.105
1747251115106121591,-0.083
1747251115113808643,-0.046
1747251115121495695,-0.032
1747251115129182747,-0.019
1747251115136869799,0.014
1747251115144556851,0.054
1747251115152243903,0.081
1747251115159930955,0.113
1747251115167618007,0.157
1747251115175305059,0.214
1747251115182992111,0.273
1747251115190679163,0.312
1747251115198366215,0.34700000000000003
1747251115206053267,0.381
1747251115213740319,0.388
1747251115221427371,0.361
1747251115229114423,0.342
1747251115236801475,0.312
1747251115244488527,0.226
1747251115252175579,0.091
1747251115259862631,-0.046
1747251115267549683,-0.157
1747251115275236735,-0.248
1747251115282923787,-0.307
1747251115290610839,-0.327
1747251115298297891,-0.342
1747251115305984943,-0.356
1747251115313671995,-0.339
1747251115321359047,-0.317
1747251115329046099,-0.31
1747251115336733151,-0.3
1747251115344420203,-0.28300000000000003
1747251115352107255,-0.268
1747251115359794307,-0.253
1747251115367481359,-0.243
1747251115375168411,-0.23600000000000002
1747251115382855463,-0.216
1747251115390542515,-0.209
1747251115398229567,-0.219
1747251115405916619,-0.209
1747251115413603671,-0.189
1747251115421290723,-0.199
1747251115428977775,-0.214
1747251115436664841,-0.20400000000000001,84,760
1747251115444351962,-0.189
1747251115452039083,-0.194
1747251115459726204,-0.187
1747251115467413325,-0.17200000000000001
1747251115475100446,-0.169
1747251115482787567,-0.177
1747251115490474688,-0.179
1747251115498161809,-0.182
1747251115505848930,-0.17400000000000002
1747251115513536051,-0.162
1747251115521223172,-0.157
1747251115528910293,-0.155
1747251115536597414,-0.155
1747251115544284535,-0.15
1747251115551971656,-0.14
1747251115559658777,-0.137
1747251115567345898,-0.145
1747251115575033019,-0.147
1747251115582720140,-0.14
1747251115590407261,-0.13
1747251115598094382,-0.125
1747251115605781503,-0.125
1747251115613468624,-0.13
1747251115621155745,-0.128
1747251115628842866,-0.108
1747251115636529987,-0.091
1747251115644217108,-0.088
1747251115651904229,-0.076
1747251115659591350,-0.066
1747251115667278471,-0.08600000000000001
1747251115674965592,-0.12
1747251115682652713,-0.137
1747251115690339834,-0.13
1747251115698026955,-0.132
1747251115705714076,-0.132
1747251115713401197,-0.113
1747251115721088318,-0.108
1747251115728775439,-0.11
1747251115736462560,-0.115
1747251115744149681,-0.132
1747251115751836802,-0.184
1747251115759523923,-0.268
1747251115767211044,-0.132
1747251115774898165,0.556
1747251115782585286,1.4000000000000001
1747251115790272407,1.605
1747251115797959528,0.888
1747251115805646649,-0.231
1747251115813333770,-0.632
1747251115821020891,-0.26
1747251115828708012,-0.11
1747251115836395133,-0.221
1747251115844082254,-0.169
1747251115851769375,-0.105
1747251115859456496,-0.135
1747251115867143617,-0.11800000000000001
1747251115874830738,-0.07100000000000001
1747251115882517859,-0.068
1747251115890204980,-0.061
1747251115897892101,-0.027
1747251115905579222,0.002
1747251115913266343,0.019
1747251115920953464,0.046
1747251115928640585,0.083
1747251115936327706,0.108
1747251115944014827,0.14200000000000002
1747251115951701948,0.196
1747251115959389069,0.246
1747251115967076190,0.292
1747251115974763311,0.34900000000000003
1747251115982450432,0.401
1747251115990137553,0.43
1747251115997824738,0.448
1747251116005511859,0.445
1747251116013198980,0.418
1747251116020886101,0.386
1747251116028573222,0.327
1747251116036260343,0.211
1747251116043947464,0.066
1747251116051634585,-0.07100000000000001
1747251116059321706,-0.187
1747251116067008827,-0.268
1747251116074695948,-0.307
1747251116082383069,-0.337
1747251116090070190,-0.361
1747251116097757311,-0.361
1747251116105444432,-0.334
1747251116113131553,-0.312
1747251116120818674,-0.3
1747251116128505795,-0.28800000000000003
1747251116136192916,-0.28
1747251116143880037,-0.278
1747251116151567158,-0.263
1747251116159254279,-0.233
1747251116166941400,-0.226
1747251116174628521,-0.226
1747251116182315642,-0.216
1747251116190002763,-0.211
1747251116197689884,-0.209
1747251116205377005,-0.201
1747251116213064126,-0.194
1747251116220751247,-0.189
1747251116228438368,-0.189
1747251116236125489,-0.189
1747251116243812610,-0.189
1747251116251499731,-0.201
1747251116259186852,-0.201
1747251116266873973,-0.184
1747251116274561094,-0.182
1747251116282248215,-0.192
1747251116289935336,-0.192
1747251116297622457,-0.187
1747251116305309578,-0.184
1747251116312996699,-0.17200000000000001
1747251116320683820,-0.164
1747251116328370941,-0.17400000000000002
1747251116336058062,-0.187
1747251116343745183,-0.184
1747251116351432304,-0.169
1747251116359119425,-0.137
1747251116366806546,-0.11800000000000001
1747251116374493667,-0.125
1747251116382180788,-0.123
1747251116389867909,-0.11
1747251116397555030,-0.125
1747251116405242151,-0.167
1747251116412929272,-0.182
1747251116420616393,-0.169
1747251116428303514,-0.169
1747251116435990635,-0.17200000000000001
1747251116443677756,-0.16
1747251116451364877,-0.155
1747251116459051998,-0.152
1747251116466739119,-0.16
1747251116474426240,-0.184
1747251116482113361,-0.243
1747251116489800482,-0.307
1747251116497487603,-0.064
1747251116505174724,0.733
1747251116512861845,1.5330000000000001
1747251116520548966,1.6
1747251116528236087,0.713
1747251116535923208,-0.443
1747251116543610329,-0.657
1747251116551297450,-0.221
1747251116558984635,-0.177,84,785
1747251116566671756,-0.292
1747251116574358877,-0.20400000000000001
1747251116582045998,-0.157
1747251116589733119,-0.184
1747251116597420240,-0.152
1747251116605107361,-0.11800000000000001
1747251116612794482,-0.11800000000000001
1747251116620481603,-0.091
1747251116628168724,-0.059000000000000004
1747251116635855845,-0.056
1747251116643542966,-0.034
1747251116651230087,0.004
1747251116658917208,0.032
1747251116666604329,0.064
1747251116674291450,0.096
1747251116681978571,0.135
1747251116689665692,0.192
1747251116697352813,0.241
1747251116705039934,0.278
1747251116712727055,0.317
1747251116720414176,0.339
1747251116728101297,0.34400000000000003
1747251116735788418,0.339
1747251116743475539,0.317
1747251116751162660,0.278
1747251116758849781,0.211
1747251116766536902,0.093
1747251116774224023,-0.036000000000000004
1747251116781911144,-0.147
1747251116789598265,-0.241
1747251116797285386,-0.315
1747251116804972507,-0.337
1747251116812659628,-0.337
1747251116820346749,-0.34900000000000003
1747251116828033870,-0.34700000000000003
1747251116835720991,-0.332
1747251116843408112,-0.324
1747251116851095233,-0.307
1747251116858782354,-0.278
1747251116866469475,-0.263
1747251116874156596,-0.265
1747251116881843717,-0.253
1747251116889530838,-0.228
1747251116897217959,-0.221
1747251116904905080,-0.224
1747251116912592201,-0.211
1747251116920279322,-0.199
1747251116927966443,-0.20400000000000001
1747251116935653564,-0.20600000000000002
1747251116943340685,-0.196
1747251116951027806,-0.192
1747251116958714927,-0.194
1747251116966402048,-0.194
1747251116974089169,-0.189
1747251116981776290,-0.184
1747251116989463411,-0.184
1747251116997150532,-0.184
1747251117004837653,-0.182
1747251117012524774,-0.182
1747251117020211895,-0.179
1747251117027899016,-0.17400000000000002
1747251117035586137,-0.17200000000000001
1747251117043273258,-0.169
1747251117050960379,-0.162
1747251117058647500,-0.162
1747251117066334621,-0.164
1747251117074021742,-0.152
1747251117081708863,-0.14200000000000002
1747251117089395984,-0.155
1747251117097083105,-0.164
1747251117104770226,-0.157
1747251117112457347,-0.14
1747251117120144532,-0.12,82,782
1747251117127831653,-0.105,,787
1747251117135518774,-0.096
1747251117143205895,-0.093
1747251117150893016,-0.10300000000000001
1747251117158580137,-0.132
1747251117166267258,-0.16
1747251117173954379,-0.16
1747251117181641500,-0.15
1747251117189328621,-0.152
1747251117197015742,-0.147
1747251117204702863,-0.132
1747251117212389984,-0.128
1747251117220077105,-0.145
1747251117227764226,-0.169
1747251117235451347,-0.219
1747251117243138468,-0.27
1747251117250825589,-0.022
1747251117258512710,0.76
1747251117266199831,1.592
1747251117273886952,1.708
1747251117281574073,0.772
1747251117289261194,-0.448
1747251117296948315,-0.635
1747251117304635436,-0.17400000000000002
1747251117312322557,-0.16
1747251117320009678,-0.297
1747251117327696799,-0.201
1747251117335383920,-0.15
1747251117343071041,-0.182
1747251117350758162,-0.145
1747251117358445283,-0.1
1747251117366132404,-0.098
1747251117373819525,-0.083
1747251117381506646,-0.054
1747251117389193767,-0.036000000000000004
1747251117396880888,-0.017
1747251117404568009,0.019
1747251117412255130,0.039
1747251117419942251,0.059000000000000004
1747251117427629372,0.105
1747251117435316493,0.15
1747251117443003614,0.189
1747251117450690735,0.23800000000000002
1747251117458377856,0.28800000000000003
1747251117466064977,0.324
1747251117473752098,0.34900000000000003
1747251117481439219,0.356
1747251117489126340,0.34900000000000003
1747251117496813461,0.332
1747251117504500582,0.3
1747251117512187703,0.23800000000000002
1747251117519874824,0.13
1747251117527561945,0.0
1747251117535249066,-0.123
1747251117542936187,-0.224
1747251117550623308,-0.28
1747251117558310429,-0.31
1747251117565997550,-0.334
1747251117573684671,-0.34400000000000003
1747251117581371792,-0.327
1747251117589058913,-0.312
1747251117596746034,-0.307
1747251117604433155,-0.295
1747251117612120276,-0.28
1747251117619807397,-0.263
1747251117627494518,-0.251
1747251117635181639,-0.246
1747251117642868760,-0.23600000000000002
1747251117650555881,-0.219
1747251117658243002,-0.209
1747251117665930123,-0.216
1747251117673617244,-0.216
1747251117681304429,-0.20400000000000001
1747251117688991620,-0.201
1747251117696678811,-0.20400000000000001
1747251117704366002,-0.199
1747251117712053193,-0.192
1747251117719740384,-0.192
1747251117727427575,-0.196
1747251117735114766,-0.192
1747251117742801957,-0.184
1747251117750489148,-0.187
1747251117758176339,-0.182
1747251117765863530,-0.17400000000000002
1747251117773550721,-0.179
1747251117781237912,-0.177
1747251117788925103,-0.164
1747251117796612294,-0.167
1747251117804299485,-0.164
1747251117811986676,-0.152
1747251117819673867,-0.155
1747251117827361058,-0.164
1747251117835048249,-0.17200000000000001
1747251117842735440,-0.169
1747251117850422631,-0.14
1747251117858109822,-0.108
1747251117865797013,-0.108
1747251117873484204,-0.105
1747251117881171395,-0.093
1747251117888858586,-0.11
1747251117896545777,-0.15
1747251117904232968,-0.167
1747251117911920159,-0.157
1747251117919607350,-0.147
1747251117927294541,-0.14
1747251117934981732,-0.14200000000000002
1747251117942668923,-0.147
1747251117950356114,-0.14
1747251117958043305,-0.14
1747251117965730496,-0.169
1747251117973417687,-0.241
1747251117981104878,-0.28300000000000003
1747251117988792069,0.049
1747251117996479260,0.908
1747251118004166451,1.701
1747251118011853642,1.659
1747251118019540833,0.556
1747251118027228024,-0.59
1747251118034915215,-0.5730000000000001
1747251118042602406,-0.125
1747251118050289597,-0.201
1747251118057976788,-0.305
1747251118065663979,-0.179
1747251118073351170,-0.15
1747251118081038361,-0.177
1747251118088725552,-0.137
1747251118096412743,-0.108
1747251118104099934,-0.10300000000000001
1747251118111787125,-0.073
1747251118119474316,-0.044
1747251118127161507,-0.034
1747251118134848698,-0.012
1747251118142535889,0.022
1747251118150223080,0.051000000000000004
1747251118157910271,0.078
1747251118165597462,0.115
1747251118173284653,0.16
1747251118180971844,0.199
1747251118188659035,0.243
1747251118196346226,0.297
1747251118204033417,0.339
1747251118211720608,0.356
1747251118219407799,0.361
1747251118227094990,0.34700000000000003
1747251118234782181,0.32
1747251118242469417,0.29,82,729
1747251118250156608,0.214
1747251118257843799,0.093
1747251118265530990,-0.027
1747251118273218181,-0.137
1747251118280905372,-0.23600000000000002
1747251118288592563,-0.295
1747251118296279754,-0.32
1747251118303966945,-0.342
1747251118311654136,-0.34900000000000003
1747251118319341327,-0.334
1747251118327028518,-0.32
1747251118334715709,-0.305
1747251118342402900,-0.295
1747251118350090091,-0.28300000000000003
1747251118357777282,-0.26
1747251118365464473,-0.243
1747251118373151664,-0.231
1747251118380838855,-0.226
1747251118388526046,-0.231
1747251118396213237,-0.224
1747251118403900428,-0.20600000000000002
1747251118411587619,-0.20600000000000002
1747251118419274810,-0.20600000000000002
1747251118426962001,-0.194
1747251118434649192,-0.194
1747251118442336383,-0.199
1747251118450023574,-0.187
1747251118457710765,-0.182
1747251118465397956,-0.194
1747251118473085147,-0.192
1747251118480772338,-0.184
1747251118488459529,-0.192
1747251118496146720,-0.189
1747251118503833911,-0.167
1747251118511521102,-0.162
1747251118519208293,-0.167
1747251118526895484,-0.164
1747251118534582675,-0.157
1747251118542269866,-0.155
1747251118549957057,-0.16
1747251118557644248,-0.164
1747251118565331439,-0.164
1747251118573018630,-0.15
1747251118580705821,-0.115
1747251118588393012,-0.1
1747251118596080203,-0.113
1747251118603767394,-0.108
1747251118611454585,-0.096
1747251118619141776,-0.125
1747251118626828967,-0.162
1747251118634516158,-0.164
1747251118642203349,-0.15
1747251118649890540,-0.145
1747251118657577731,-0.14200000000000002
1747251118665264922,-0.147
1747251118672952113,-0.14200000000000002
1747251118680639304,-0.125
1747251118688326495,-0.145
1747251118696013686,-0.214
1747251118703700877,-0.29
1747251118711388068,-0.179
1747251118719075259,0.46
1747251118726762450,1.368
1747251118734449641,1.737
1747251118742136832,1.078
1747251118749824023,-0.189
1747251118757511214,-0.708
1747251118765198405,-0.28300000000000003
1747251118772885596,-0.11
1747251118780572787,-0.278
1747251118788259978,-0.214
1747251118795947169,-0.115
1747251118803634401,-0.16
1747251118811321592,-0.15
1747251118819008783,-0.093
1747251118826695974,-0.08600000000000001
1747251118834383165,-0.076
1747251118842070356,-0.036000000000000004
1747251118849757547,-0.012
1747251118857444738,0.004
1747251118865131929,0.022
1747251118872819120,0.044
1747251118880506311,0.083
1747251118888193502,0.128
1747251118895880693,0.162
1747251118903567884,0.201
1747251118911255075,0.268
1747251118918942266,0.327
1747251118926629457,0.354
1747251118934316648,0.381
1747251118942003839,0.403
1747251118949691030,0.393
1747251118957378221,0.376
1747251118965065412,0.361
1747251118972752603,0.292
1747251118980439794,0.177
1747251118988126985,0.056
1747251118995814176,-0.07100000000000001
1747251119003501367,-0.196
1747251119011188558,-0.28
1747251119018875749,-0.315
1747251119026562940,-0.329
1747251119034250131,-0.342
1747251119041937322,-0.334
1747251119049624513,-0.317
1747251119057311704,-0.307
1747251119064998895,-0.292
1747251119072686086,-0.268
1747251119080373277,-0.26
1747251119088060468,-0.26
1747251119095747659,-0.23800000000000002
1747251119103434850,-0.214
1747251119111122041,-0.219
1747251119118809232,-0.216
1747251119126496423,-0.201
1747251119134183614,-0.194
1747251119141870805,-0.189
1747251119149557996,-0.192
1747251119157245187,-0.194
1747251119164932378,-0.182
1747251119172619569,-0.177
1747251119180306760,-0.187
1747251119187993951,-0.189
1747251119195681142,-0.179
1747251119203368333,-0.177
1747251119211055524,-0.179
1747251119218742715,-0.17200000000000001
1747251119226429906,-0.169
1747251119234117097,-0.17200000000000001
1747251119241804288,-0.169
1747251119249491479,-0.167
1747251119257178670,-0.167
1747251119264865861,-0.167
1747251119272553052,-0.15
1747251119280240243,-0.12
1747251119287927434,-0.113
1747251119295614625,-0.115
1747251119303301816,-0.098
1747251119310989007,-0.108
1747251119318676198,-0.155
1747251119326363389,-0.17200000000000001
1747251119334050580,-0.155
1747251119341737771,-0.152
1747251119349424962,-0.162
1747251119357112153,-0.162
1747251119364799385,-0.15,81,754
1747251119372486576,-0.135
1747251119380173767,-0.145
1747251119387860958,-0.184
1747251119395548149,-0.248
1747251119403235340,-0.29
1747251119410922531,0.004
1747251119418609722,0.8190000000000001
1747251119426296913,1.528
1747251119433984104,1.422
1747251119441671295,0.467
1747251119449358486,-0.526
1747251119457045677,-0.578
1747251119464732868,-0.192
1747251119472420059,-0.20600000000000002
1747251119480107250,-0.273
1747251119487794441,-0.164
1747251119495481632,-0.14200000000000002
1747251119503168823,-0.17400000000000002
1747251119510856014,-0.13
1747251119518543205,-0.093
1747251119526230396,-0.098
1747251119533917587,-0.081
1747251119541604778,-0.046
1747251119549291969,-0.027
1747251119556979160,-0.004
1747251119564666351,0.014
1747251119572353542,0.044
1747251119580040733,0.083
1747251119587727924,0.115
1747251119595415115,0.15
1747251119603102306,0.20400000000000001
1747251119610789497,0.248
1747251119618476688,0.28300000000000003
1747251119626163879,0.32
1747251119633851070,0.334
1747251119641538261,0.322
1747251119649225452,0.315
1747251119656912643,0.305
1747251119664599834,0.258
1747251119672287025,0.17200000000000001
1747251119679974216,0.064
1747251119687661407,-0.059000000000000004
1747251119695348598,-0.17200000000000001
1747251119703035789,-0.253
1747251119710722980,-0.31
1747251119718410171,-0.342
1747251119726097362,-0.352
1747251119733784553,-0.34700000000000003
1747251119741471744,-0.337
1747251119749158935,-0.324
1747251119756846126,-0.312
1747251119764533317,-0.295
1747251119772220508,-0.28
1747251119779907699,-0.26
1747251119787594890,-0.248
1747251119795282081,-0.246
1747251119802969272,-0.243
1747251119810656463,-0.228
1747251119818343654,-0.211
1747251119826030845,-0.20400000000000001
1747251119833718036,-0.199
1747251119841405227,-0.196
1747251119849092418,-0.199
1747251119856779609,-0.20600000000000002
1747251119864466800,-0.199
1747251119872153991,-0.182
1747251119879841182,-0.182
1747251119887528373,-0.196
1747251119895215564,-0.196
1747251119902902755,-0.189
1747251119910589946,-0.189
1747251119918277137,-0.184
1747251119925964369,-0.177
1747251119933651560,-0.179
1747251119941338751,-0.179
1747251119949025942,-0.177
1747251119956713133,-0.182
1747251119964400324,-0.187
1747251119972087515,-0.177
1747251119979774706,-0.155
1747251119987461897,-0.14
1747251119995149088,-0.135
1747251120002836279,-0.13
1747251120010523470,-0.12
1747251120018210661,-0.125
1747251120025897852,-0.147
1747251120033585043,-0.17200000000000001
1747251120041272234,-0.177
1747251120048959425,-0.169
1747251120056646616,-0.164
1747251120064333807,-0.157
1747251120072020998,-0.155
1747251120079708189,-0.152
1747251120087395380,-0.15
1747251120095082571,-0.17200000000000001
1747251120102769762,-0.231
1747251120110456953,-0.305
1747251120118144144,-0.145
1747251120125831335,0.5630000000000001
1747251120133518526,1.454
1747251120141205717,1.745
1747251120148892908,0.989
1747251120156580099,-0.297
