time,ecg,hr,rr,marker
1747851809603536439,-0.196,89,703
1747851809611222724,-0.187
1747851809618909009,-0.177
1747851809626595294,-0.167
1747851809634281579,-0.162
1747851809641967864,-0.157
1747851809649654149,-0.147
1747851809657340434,-0.135
1747851809665026719,-0.132
1747851809672713004,-0.132
1747851809680399289,-0.135
1747851809688085574,-0.137
1747851809695771859,-0.13
1747851809703458144,-0.123
1747851809711144429,-0.125
1747851809718830714,-0.128
1747851809726516999,-0.128
1747851809734203284,-0.13
1747851809741889569,-0.132
1747851809749575854,-0.128
1747851809757262139,-0.125
1747851809764948424,-0.123
1747851809772634709,-0.12
1747851809780320994,-0.123
1747851809788007279,-0.125
1747851809795693564,-0.12
1747851809803379849,-0.11800000000000001
1747851809811066134,-0.113
1747851809818752419,-0.105
1747851809826438704,-0.10300000000000001
1747851809834124989,-0.10300000000000001
1747851809841811274,-0.10300000000000001
1747851809849497559,-0.1
1747851809857183844,-0.098
1747851809864870129,-0.098
1747851809872556414,-0.091
1747851809880242699,-0.076
1747851809887928984,-0.049
1747851809895615269,-0.034
1747851809903301554,-0.041
1747851809910987839,-0.044
1747851809918674124,-0.046
1747851809926360409,-0.073
1747851809934046694,-0.10300000000000001
1747851809941732979,-0.1
1747851809949419264,-0.096
1747851809957105549,-0.096
1747851809964791834,-0.08600000000000001
1747851809972478119,-0.078
1747851809980164404,-0.08600000000000001
1747851809987850689,-0.1
1747851809995536974,-0.125
1747851810003223259,-0.179
1747851810010909544,-0.194
1747851810018595829,0.08600000000000001
1747851810026282114,0.78
1747851810033968399,1.592
1747851810041654684,1.824
1747851810049340969,0.77
1747851810057027254,-0.5730000000000001
1747851810064713539,-0.5680000000000001
1747851810072399824,-0.056
1747851810080086109,-0.17200000000000001
1747851810087772394,-0.28
1747851810095458679,-0.132
1747851810103144964,-0.12
1747851810110831249,-0.164
1747851810118517534,-0.115
1747851810126203819,-0.088
1747851810133890104,-0.08600000000000001
1747851810141576389,-0.051000000000000004
1747851810149262674,-0.034
1747851810156948959,-0.029
1747851810164635304,0.0
1747851810172321589,0.032
1747851810180007874,0.056
1747851810187694159,0.083
1747851810195380444,0.11800000000000001
1747851810203066729,0.15
1747851810210753014,0.182
1747851810218439299,0.216
1747851810226125584,0.243
1747851810233811869,0.248
1747851810241498154,0.23800000000000002
1747851810249184439,0.221
1747851810256870724,0.192
1747851810264557009,0.164
1747851810272243294,0.135
1747851810279929579,0.088
1747851810287615864,0.024
1747851810295302149,-0.046
1747851810302988434,-0.105
1747851810310674719,-0.147
1747851810318361004,-0.187
1747851810326047289,-0.209
1747851810333733574,-0.20400000000000001
1747851810341419859,-0.201
1747851810349106144,-0.199
1747851810356792429,-0.192
1747851810364478714,-0.17400000000000002
1747851810372164999,-0.155
1747851810379851284,-0.155
1747851810387537569,-0.157
1747851810395223854,-0.15
1747851810402910139,-0.14200000000000002
1747851810410596424,-0.137
1747851810418282709,-0.13
1747851810425968994,-0.128
1747851810433655279,-0.128
1747851810441341564,-0.12
1747851810449027849,-0.12
1747851810456714134,-0.128
1747851810464400419,-0.123
1747851810472086704,-0.113
1747851810479772989,-0.123
1747851810487459274,-0.13
1747851810495145559,-0.125
1747851810502831844,-0.12
1747851810510518129,-0.113
1747851810518204414,-0.115
1747851810525890699,-0.11800000000000001
1747851810533576984,-0.105
1747851810541263269,-0.098
1747851810548949554,-0.10300000000000001
1747851810556635839,-0.098
1747851810564322124,-0.08600000000000001
1747851810572008409,-0.091
1747851810579694694,-0.098
1747851810587380979,-0.096
1747851810595067264,-0.081
1747851810602753549,-0.054
1747851810610439834,-0.029
1747851810618126119,-0.029
1747851810625812404,-0.039
1747851810633498689,-0.039
1747851810641184974,-0.064
1747851810648871259,-0.10300000000000001
1747851810656557544,-0.096
1747851810664243829,-0.07100000000000001
1747851810671930114,-0.078
1747851810679616399,-0.083
1747851810687302684,-0.07100000000000001
1747851810694988969,-0.068
1747851810702675254,-0.07100000000000001
1747851810710361539,-0.091
1747851810718047824,-0.164
1747851810725734165,-0.192,88,724
1747851810733420450,0.155,,729
1747851810741106735,0.93
1747851810748793020,1.659
1747851810756479305,1.622
1747851810764165590,0.455
1747851810771851875,-0.647
1747851810779538160,-0.448
1747851810787224445,-0.027
1747851810794910730,-0.192
1747851810802597015,-0.231
1747851810810283300,-0.08600000000000001
1747851810817969585,-0.108
1747851810825655870,-0.132
1747851810833342155,-0.066
1747851810841028440,-0.046
1747851810848714725,-0.049
1747851810856401010,-0.029
1747851810864087295,-0.009000000000000001
1747851810871773580,0.004
1747851810879459865,0.029
1747851810887146150,0.061
1747851810894832435,0.088
1747851810902518720,0.12
1747851810910205005,0.155
1747851810917891290,0.182
1747851810925577575,0.211
1747851810933263860,0.248
1747851810940950145,0.265
1747851810948636430,0.263
1747851810956322715,0.248
1747851810964009000,0.224
1747851810971695285,0.192
1747851810979381570,0.155
1747851810987067855,0.113
1747851810994754140,0.056
1747851811002440425,-0.009000000000000001
1747851811010126710,-0.07100000000000001
1747851811017812995,-0.125
1747851811025499280,-0.17200000000000001
1747851811033185565,-0.201
1747851811040871850,-0.214
1747851811048558135,-0.211
1747851811056244420,-0.211
1747851811063930705,-0.209
1747851811071616990,-0.201
1747851811079303275,-0.184
1747851811086989560,-0.17400000000000002
1747851811094675845,-0.17400000000000002
1747851811102362130,-0.169
1747851811110048415,-0.155
1747851811117734700,-0.145
1747851811125420985,-0.147
1747851811133107270,-0.145
1747851811140793555,-0.135
1747851811148479840,-0.13
1747851811156166125,-0.13
1747851811163852410,-0.128
1747851811171538695,-0.128
1747851811179224980,-0.128
1747851811186911265,-0.13
1747851811194597550,-0.132
1747851811202283835,-0.132
1747851811209970120,-0.128
1747851811217656405,-0.128
1747851811225342690,-0.125
1747851811233028975,-0.125
1747851811240715260,-0.123
1747851811248401545,-0.12
1747851811256087830,-0.123
1747851811263774115,-0.125
1747851811271460400,-0.115
1747851811279146685,-0.10300000000000001
1747851811286833026,-0.093
1747851811294519172,-0.08600000000000001
1747851811302205318,-0.078
1747851811309891464,-0.068
1747851811317577610,-0.068
1747851811325263756,-0.098
1747851811332949902,-0.125
1747851811340636048,-0.12
1747851811348322194,-0.108
1747851811356008340,-0.105
1747851811363694486,-0.1
1747851811371380632,-0.098
1747851811379066778,-0.1
1747851811386752924,-0.113
1747851811394439070,-0.155
1747851811402125216,-0.20600000000000002
1747851811409811362,-0.073
1747851811417497508,0.462
1747851811425183654,1.213
1747851811432869800,1.6640000000000001
1747851811440555946,1.102
1747851811448242092,-0.243
1747851811455928238,-0.723
1747851811463614384,-0.187
1747851811471300530,-0.056
1747851811478986676,-0.263
1747851811486672822,-0.179
1747851811494358968,-0.088
1747851811502045114,-0.145
1747851811509731260,-0.128
1747851811517417406,-0.076
1747851811525103552,-0.078
1747851811532789698,-0.07100000000000001
1747851811540475844,-0.044
1747851811548161990,-0.032
1747851811555848136,-0.017
1747851811563534282,0.007
1747851811571220428,0.029
1747851811578906574,0.051000000000000004
1747851811586592720,0.081
1747851811594278866,0.113
1747851811601965012,0.14200000000000002
1747851811609651158,0.17200000000000001
1747851811617337304,0.194
1747851811625023450,0.20400000000000001
1747851811632709596,0.196
1747851811640395742,0.179
1747851811648081888,0.155
1747851811655768034,0.125
1747851811663454180,0.093
1747851811671140326,0.054
1747851811678826472,-0.002
1747851811686512618,-0.066
1747851811694198764,-0.123
1747851811701884910,-0.162
1747851811709571056,-0.192
1747851811717257202,-0.209
1747851811724943348,-0.219
1747851811732629494,-0.219
1747851811740315640,-0.211
1747851811748001786,-0.201
1747851811755687932,-0.189
1747851811763374078,-0.179
1747851811771060224,-0.169
1747851811778746370,-0.162
1747851811786432516,-0.162
1747851811794118662,-0.157
1747851811801804808,-0.147
1747851811809490954,-0.145
1747851811817177100,-0.145
1747851811824863246,-0.14
1747851811832549392,-0.135
1747851811840235538,-0.14
1747851811847921717,-0.14200000000000002,87,740
1747851811855607724,-0.14200000000000002
1747851811863293731,-0.14200000000000002
1747851811870979738,-0.137
1747851811878665745,-0.135
1747851811886351752,-0.14
1747851811894037759,-0.145
1747851811901723766,-0.14
1747851811909409773,-0.135
1747851811917095780,-0.137
1747851811924781787,-0.14200000000000002
1747851811932467794,-0.145
1747851811940153801,-0.135
1747851811947839808,-0.123
1747851811955525815,-0.113
1747851811963211822,-0.105
1747851811970897829,-0.098
1747851811978583836,-0.08600000000000001
1747851811986269843,-0.096
1747851811993955850,-0.13
1747851812001641857,-0.147
1747851812009327864,-0.135
1747851812017013871,-0.128
1747851812024699878,-0.13
1747851812032385885,-0.125
1747851812040071892,-0.11800000000000001
1747851812047757899,-0.123
1747851812055443906,-0.14200000000000002
1747851812063129913,-0.187
1747851812070815920,-0.221
1747851812078501927,-0.032
1747851812086187934,0.551
1747851812093873941,1.319
1747851812101559948,1.693
1747851812109245955,0.908
1747851812116931962,-0.47000000000000003
1747851812124617969,-0.6960000000000001
1747851812132303976,-0.125
1747851812139989983,-0.132
1747851812147675990,-0.315
1747851812155361997,-0.187
1747851812163048004,-0.135
1747851812170734011,-0.192
1747851812178420018,-0.155
1747851812186106025,-0.11
1747851812193792032,-0.12
1747851812201478039,-0.105
1747851812209164046,-0.073
1747851812216850053,-0.056
1747851812224536060,-0.039
1747851812232222067,-0.009000000000000001
1747851812239908074,0.014
1747851812247594081,0.041
1747851812255280088,0.073
1747851812262966095,0.108
1747851812270652102,0.14200000000000002
1747851812278338109,0.167
1747851812286024116,0.189
1747851812293710123,0.199
1747851812301396130,0.194
1747851812309082137,0.17200000000000001
1747851812316768144,0.15
1747851812324454151,0.12
1747851812332140158,0.08600000000000001
1747851812339826165,0.039
1747851812347512172,-0.022
1747851812355198179,-0.08600000000000001
1747851812362884186,-0.132
1747851812370570193,-0.169
1747851812378256200,-0.20400000000000001
1747851812385942207,-0.224
1747851812393628214,-0.228
1747851812401314221,-0.224
1747851812409000230,-0.211
1747851812416686515,-0.199
1747851812424372800,-0.182
1747851812432059085,-0.169
1747851812439745370,-0.177
1747851812447431655,-0.177
1747851812455117940,-0.16
1747851812462804225,-0.14
1747851812470490510,-0.137
1747851812478176795,-0.145
1747851812485863080,-0.15
1747851812493549365,-0.14200000000000002
1747851812501235650,-0.137
1747851812508921935,-0.14200000000000002
1747851812516608220,-0.145
1747851812524294505,-0.135
1747851812531980790,-0.132
1747851812539667075,-0.137
1747851812547353360,-0.13
1747851812555039645,-0.123
1747851812562725930,-0.128
1747851812570412215,-0.13
1747851812578098500,-0.125
1747851812585784785,-0.123
1747851812593471070,-0.113
1747851812601157355,-0.093
1747851812608843640,-0.088
1747851812616529925,-0.081
1747851812624216210,-0.064
1747851812631902495,-0.064
1747851812639588780,-0.088
1747851812647275065,-0.108
1747851812654961350,-0.11
1747851812662647635,-0.105
1747851812670333920,-0.098
1747851812678020205,-0.083
1747851812685706490,-0.081
1747851812693392775,-0.091
1747851812701079060,-0.098
1747851812708765345,-0.135
1747851812716451630,-0.201
1747851812724137915,-0.096
1747851812731824200,0.467
1747851812739510485,1.287
1747851812747196770,1.745
1747851812754883055,1.174
1747851812762569340,-0.17200000000000001
1747851812770255625,-0.706
1747851812777941910,-0.23600000000000002
1747851812785628195,-0.088
1747851812793314480,-0.251
1747851812801000765,-0.16
1747851812808687050,-0.078
1747851812816373335,-0.125
1747851812824059620,-0.113
1747851812831745905,-0.064
1747851812839432190,-0.054
1747851812847118475,-0.044
1747851812854804760,-0.014
1747851812862491045,0.002
1747851812870177330,0.007
1747851812877863615,0.036000000000000004
1747851812885549900,0.083
1747851812893236185,0.108
1747851812900922470,0.128
1747851812908608755,0.162
1747851812916295040,0.199
1747851812923981325,0.228
1747851812931667610,0.246
1747851812939353895,0.253
1747851812947040180,0.248
1747851812954726465,0.23800000000000002
1747851812962412750,0.211
1747851812970099091,0.16,86,713
1747851812977785376,0.11800000000000001,,681
1747851812985471661,0.081
1747851812993157946,0.017
1747851813000844231,-0.044
1747851813008530516,-0.098
1747851813016216801,-0.15
1747851813023903086,-0.189
1747851813031589371,-0.209
1747851813039275656,-0.214
1747851813046961941,-0.216
1747851813054648226,-0.216
1747851813062334511,-0.20600000000000002
1747851813070020796,-0.187
1747851813077707081,-0.177
1747851813085393366,-0.17400000000000002
1747851813093079651,-0.162
1747851813100765936,-0.155
1747851813108452221,-0.152
1747851813116138506,-0.145
1747851813123824791,-0.135
1747851813131511076,-0.132
1747851813139197361,-0.135
1747851813146883646,-0.135
1747851813154569931,-0.132
1747851813162256216,-0.132
1747851813169942501,-0.14
1747851813177628786,-0.145
1747851813185315071,-0.14
1747851813193001356,-0.14
1747851813200687641,-0.15
1747851813208373926,-0.15
1747851813216060211,-0.14
1747851813223746496,-0.132
1747851813231432781,-0.128
1747851813239119066,-0.123
1747851813246805351,-0.113
1747851813254491636,-0.098
1747851813262177921,-0.11
1747851813269864206,-0.145
1747851813277550491,-0.152
1747851813285236776,-0.14
1747851813292923061,-0.137
1747851813300609346,-0.135
1747851813308295631,-0.128
1747851813315981916,-0.123
1747851813323668201,-0.13
1747851813331354486,-0.147
1747851813339040771,-0.194
1747851813346727056,-0.224
1747851813354413341,0.039
1747851813362099626,0.726
1747851813369785911,1.41
1747851813377472196,1.491
1747851813385158481,0.558
1747851813392844766,-0.595
1747851813400531051,-0.608
1747851813408217336,-0.123
1747851813415903621,-0.17200000000000001
1747851813423589906,-0.256
1747851813431276191,-0.137
1747851813438962476,-0.128
1747851813446648761,-0.162
1747851813454335046,-0.115
1747851813462021331,-0.08600000000000001
1747851813469707616,-0.088
1747851813477393901,-0.068
1747851813485080186,-0.046
1747851813492766471,-0.039
1747851813500452756,-0.022
1747851813508139041,0.007
1747851813515825326,0.029
1747851813523511611,0.056
1747851813531197956,0.08600000000000001,86,668
1747851813538884241,0.105
1747851813546570526,0.12
1747851813554256811,0.147
1747851813561943096,0.157
1747851813569629381,0.155
1747851813577315666,0.14200000000000002
1747851813585001951,0.11
1747851813592688236,0.076
1747851813600374521,0.056
1747851813608060806,0.024
1747851813615747091,-0.022
1747851813623433376,-0.068
1747851813631119661,-0.113
1747851813638805946,-0.152
1747851813646492231,-0.182
1747851813654178516,-0.20400000000000001
1747851813661864801,-0.216
1747851813669551086,-0.216
1747851813677237371,-0.211
1747851813684923656,-0.20600000000000002
1747851813692609941,-0.194
1747851813700296226,-0.179
1747851813707982511,-0.169
1747851813715668796,-0.167
1747851813723355081,-0.167
1747851813731041366,-0.155
1747851813738727651,-0.145
1747851813746413936,-0.14200000000000002
1747851813754100221,-0.14
1747851813761786506,-0.132
1747851813769472791,-0.128
1747851813777159076,-0.132
1747851813784845361,-0.145
1747851813792531646,-0.15
1747851813800217931,-0.137
1747851813807904216,-0.128
1747851813815590501,-0.132
1747851813823276786,-0.135
1747851813830963071,-0.137
1747851813838649356,-0.145
1747851813846335641,-0.137
1747851813854021926,-0.123
1747851813861708211,-0.11800000000000001
1747851813869394496,-0.108
1747851813877080781,-0.093
1747851813884767066,-0.083
1747851813892453351,-0.098
1747851813900139636,-0.13
1747851813907825921,-0.14
1747851813915512206,-0.12
1747851813923198491,-0.108
1747851813930884776,-0.115
1747851813938571061,-0.115
1747851813946257346,-0.108
1747851813953943631,-0.11
1747851813961629916,-0.135
1747851813969316201,-0.189
1747851813977002486,-0.152
1747851813984688771,0.251
1747851813992375056,0.979
1747851814000061341,1.607
1747851814007747626,1.474
1747851814015433911,0.263
1747851814023120196,-0.721
1747851814030806481,-0.406
1747851814038492766,-0.007
1747851814046179051,-0.209
1747851814053865336,-0.251
1747851814061551621,-0.108
1747851814069237906,-0.128
1747851814076924191,-0.152
1747851814084610476,-0.098
1747851814092296817,-0.081
1747851814099982893,-0.083
1747851814107668969,-0.059000000000000004
1747851814115355045,-0.039
1747851814123041121,-0.029
1747851814130727197,-0.007
1747851814138413273,0.019
1747851814146099349,0.041
1747851814153785425,0.064
1747851814161471501,0.091
1747851814169157577,0.12
1747851814176843653,0.152
1747851814184529729,0.167
1747851814192215805,0.164
1747851814199901881,0.167
1747851814207587957,0.155
1747851814215274033,0.128
1747851814222960109,0.105
1747851814230646185,0.078
1747851814238332261,0.036000000000000004
1747851814246018337,-0.009000000000000001
1747851814253704413,-0.061
1747851814261390489,-0.113
1747851814269076565,-0.15
1747851814276762641,-0.17400000000000002
1747851814284448717,-0.194
1747851814292134793,-0.20600000000000002
1747851814299820869,-0.20400000000000001
1747851814307506945,-0.192
1747851814315193021,-0.184
1747851814322879097,-0.17400000000000002
1747851814330565173,-0.164
1747851814338251249,-0.157
1747851814345937325,-0.152
1747851814353623401,-0.147
1747851814361309477,-0.14
1747851814368995553,-0.137
1747851814376681629,-0.137
1747851814384367705,-0.137
1747851814392053781,-0.137
1747851814399739857,-0.132
1747851814407425933,-0.125
1747851814415112009,-0.128
1747851814422798085,-0.13
1747851814430484161,-0.13
1747851814438170237,-0.125
1747851814445856313,-0.128
1747851814453542389,-0.135
1747851814461228465,-0.135
1747851814468914541,-0.125
1747851814476600617,-0.113
1747851814484286693,-0.105
1747851814491972769,-0.098
1747851814499658845,-0.088
1747851814507344921,-0.078
1747851814515030997,-0.088
1747851814522717073,-0.123
1747851814530403149,-0.137
1747851814538089225,-0.125
1747851814545775301,-0.12
1747851814553461377,-0.12
1747851814561147453,-0.113
1747851814568833529,-0.11
1747851814576519605,-0.123
1747851814584205681,-0.147
1747851814591891757,-0.201
1747851814599577833,-0.189
1747851814607263909,0.15
1747851814614949985,0.868
1747851814622636061,1.605
1747851814630322137,1.6640000000000001
1747851814638008213,0.519
1747851814645694289,-0.686
1747851814653380420,-0.534,87,646
1747851814661066496,-0.041,,627
1747851814668752572,-0.194
1747851814676438648,-0.28800000000000003
1747851814684124724,-0.137
1747851814691810800,-0.137
1747851814699496876,-0.179
1747851814707182952,-0.125
1747851814714869028,-0.1
1747851814722555104,-0.108
1747851814730241180,-0.078
1747851814737927256,-0.054
1747851814745613332,-0.049
1747851814753299408,-0.024
1747851814760985484,0.007
1747851814768671560,0.024
1747851814776357636,0.046
1747851814784043712,0.083
1747851814791729788,0.113
1747851814799415864,0.135
1747851814807101940,0.152
1747851814814788016,0.157
1747851814822474092,0.157
1747851814830160168,0.14
1747851814837846244,0.11800000000000001
1747851814845532320,0.096
1747851814853218396,0.068
1747851814860904472,0.032
1747851814868590548,-0.014
1747851814876276624,-0.064
1747851814883962700,-0.11
1747851814891648776,-0.145
1747851814899334852,-0.177
1747851814907020928,-0.201
1747851814914707004,-0.211
1747851814922393080,-0.20600000000000002
1747851814930079156,-0.201
1747851814937765232,-0.196
1747851814945451308,-0.184
1747851814953137384,-0.177
1747851814960823460,-0.17400000000000002
1747851814968509536,-0.162
1747851814976195612,-0.157
1747851814983881688,-0.16
1747851814991567764,-0.155
1747851814999253840,-0.15
1747851815006939916,-0.152
1747851815014625992,-0.152
1747851815022312068,-0.147
1747851815029998144,-0.147
1747851815037684220,-0.147
1747851815045370296,-0.147
1747851815053056372,-0.152
1747851815060742448,-0.15
1747851815068428524,-0.147
1747851815076114600,-0.15
1747851815083800676,-0.15
1747851815091486752,-0.15
1747851815099172828,-0.14200000000000002
1747851815106858904,-0.128
1747851815114544980,-0.11800000000000001
1747851815122231056,-0.108
1747851815129917132,-0.1
1747851815137603208,-0.1
1747851815145289284,-0.12
1747851815152975360,-0.15
1747851815160661436,-0.155
1747851815168347512,-0.14
1747851815176033588,-0.132
1747851815183719664,-0.132
1747851815191405740,-0.128
1747851815199091816,-0.125
1747851815206777892,-0.14
1747851815214464021,-0.17200000000000001
1747851815222150306,-0.216
1747851815229836591,-0.16
1747851815237522876,0.248
1747851815245209161,1.006
1747851815252895446,1.701
1747851815260581731,1.568
1747851815268268016,0.256
1747851815275954301,-0.78
1747851815283640586,-0.445
1747851815291326871,-0.046
1747851815299013156,-0.23800000000000002
1747851815306699441,-0.273
1747851815314385726,-0.14200000000000002
1747851815322072011,-0.167
1747851815329758296,-0.184
1747851815337444581,-0.123
1747851815345130866,-0.10300000000000001
1747851815352817151,-0.11
1747851815360503436,-0.073
1747851815368189721,-0.046
1747851815375876006,-0.054
1747851815383562291,-0.034
1747851815391248576,0.012
1747851815398934861,0.032
1747851815406621146,0.046
1747851815414307431,0.1
1747851815421993716,0.14200000000000002
1747851815429680001,0.155
1747851815437366286,0.177
1747851815445052571,0.196
1747851815452738856,0.182
1747851815460425141,0.167
1747851815468111426,0.157
1747851815475797711,0.12
1747851815483483996,0.088
1747851815491170281,0.061
1747851815498856566,0.012
1747851815506542851,-0.046
1747851815514229136,-0.1
1747851815521915421,-0.137
1747851815529601706,-0.162
1747851815537287991,-0.196
1747851815544974276,-0.216
1747851815552660561,-0.194
1747851815560346846,-0.179
1747851815568033131,-0.187
1747851815575719416,-0.179
1747851815583405701,-0.16
1747851815591091986,-0.155
1747851815598778271,-0.164
1747851815606464556,-0.162
1747851815614150841,-0.14200000000000002
1747851815621837126,-0.14200000000000002
1747851815629523411,-0.15
1747851815637209696,-0.14200000000000002
1747851815644895981,-0.14200000000000002
1747851815652582266,-0.14200000000000002
1747851815660268551,-0.137
1747851815667954836,-0.137
1747851815675641121,-0.147
1747851815683327406,-0.155
1747851815691013691,-0.152
1747851815698699976,-0.15
1747851815706386261,-0.147
1747851815714072546,-0.14200000000000002
1747851815721758831,-0.13
1747851815729445116,-0.12
1747851815737131401,-0.115
1747851815744817686,-0.1
1747851815752503971,-0.098
1747851815760190256,-0.135
1747851815767876541,-0.16
1747851815775562882,-0.15,88,629
1747851815783249167,-0.14200000000000002
1747851815790935452,-0.14
1747851815798621737,-0.125
1747851815806308022,-0.12
1747851815813994307,-0.132
1747851815821680592,-0.152
1747851815829366877,-0.20600000000000002
1747851815837053162,-0.3
1747851815844739447,-0.199
1747851815852425732,0.384
1747851815860112017,1.27
1747851815867798302,1.8800000000000001
1747851815875484587,1.3880000000000001
1747851815883170872,-0.11800000000000001
1747851815890857157,-0.802
1747851815898543442,-0.295
1747851815906229727,-0.125
1747851815913916012,-0.315
1747851815921602297,-0.209
1747851815929288582,-0.128
1747851815936974867,-0.192
1747851815944661152,-0.164
1747851815952347437,-0.108
1747851815960033722,-0.113
1747851815967720007,-0.10300000000000001
1747851815975406292,-0.068
1747851815983092577,-0.054
1747851815990778862,-0.034
1747851815998465147,-0.007
1747851816006151432,0.007
1747851816013837717,0.024
1747851816021524002,0.051000000000000004
1747851816029210287,0.093
1747851816036896572,0.12
1747851816044582857,0.125
1747851816052269142,0.14
1747851816059955427,0.155
1747851816067641712,0.132
1747851816075327997,0.098
1747851816083014282,0.081
1747851816090700567,0.061
1747851816098386852,0.029
1747851816106073137,-0.009000000000000001
1747851816113759422,-0.049
1747851816121445707,-0.088
1747851816129131992,-0.128
1747851816136818277,-0.167
1747851816144504562,-0.196
1747851816152190847,-0.211
1747851816159877132,-0.216
1747851816167563417,-0.214
1747851816175249702,-0.20600000000000002
1747851816182935987,-0.196
1747851816190622272,-0.189
1747851816198308557,-0.187
1747851816205994842,-0.177
1747851816213681127,-0.164
1747851816221367412,-0.16
1747851816229053697,-0.16
1747851816236739982,-0.155
1747851816244426267,-0.147
1747851816252112552,-0.147
1747851816259798837,-0.15
1747851816267485122,-0.145
1747851816275171407,-0.14
1747851816282857692,-0.15
1747851816290543977,-0.155
1747851816298230262,-0.15
1747851816305916547,-0.15
1747851816313602832,-0.15
1747851816321289117,-0.14
1747851816328975402,-0.14
1747851816336661743,-0.155
1747851816344348028,-0.155
1747851816352034313,-0.14
1747851816359720598,-0.13
1747851816367406883,-0.113
1747851816375093168,-0.096
1747851816382779453,-0.091
1747851816390465738,-0.083
1747851816398152023,-0.096
1747851816405838308,-0.132
1747851816413524593,-0.157
1747851816421210878,-0.145
1747851816428897163,-0.13
1747851816436583448,-0.132
1747851816444269733,-0.132
1747851816451956018,-0.12
1747851816459642303,-0.12
1747851816467328588,-0.145
1747851816475014873,-0.199
1747851816482701158,-0.20600000000000002
1747851816490387443,0.032
1747851816498073728,0.625
1747851816505760013,1.393
1747851816513446298,1.797
1747851816521132583,0.974
1747851816528818868,-0.467
1747851816536505153,-0.7010000000000001
1747851816544191438,-0.16
1747851816551877723,-0.179
1747851816559564008,-0.327
1747851816567250293,-0.196
1747851816574936578,-0.162
1747851816582622863,-0.209
1747851816590309148,-0.162
1747851816597995433,-0.13
1747851816605681718,-0.135
1747851816613368003,-0.108
1747851816621054288,-0.08600000000000001
1747851816628740573,-0.073
1747851816636426858,-0.044
1747851816644113143,-0.014
1747851816651799428,0.004
1747851816659485713,0.027
1747851816667171998,0.054
1747851816674858283,0.083
1747851816682544568,0.113
1747851816690230853,0.135
1747851816697917138,0.14
1747851816705603423,0.135
1747851816713289708,0.132
1747851816720975993,0.115
1747851816728662278,0.078
1747851816736348563,0.046
1747851816744034848,0.032
1747851816751721133,0.009000000000000001
1747851816759407418,-0.041
1747851816767093703,-0.091
1747851816774779988,-0.13
1747851816782466273,-0.164
1747851816790152558,-0.187
1747851816797838843,-0.199
1747851816805525128,-0.209
1747851816813211413,-0.20600000000000002
1747851816820897698,-0.192
1747851816828583983,-0.184
1747851816836270268,-0.182
1747851816843956553,-0.17400000000000002
1747851816851642838,-0.167
1747851816859329123,-0.164
1747851816867015408,-0.16
1747851816874701693,-0.162
1747851816882387978,-0.162
1747851816890074263,-0.155
1747851816897760608,-0.155,90,624
1747851816905446475,-0.152,,629
1747851816913132342,-0.147
1747851816920818209,-0.155
1747851816928504076,-0.16
1747851816936189943,-0.155
1747851816943875810,-0.155
1747851816951561677,-0.16
1747851816959247544,-0.157
1747851816966933411,-0.155
1747851816974619278,-0.155
1747851816982305145,-0.152
1747851816989991012,-0.145
1747851816997676879,-0.115
1747851817005362746,-0.093
1747851817013048613,-0.098
1747851817020734480,-0.1
1747851817028420347,-0.10300000000000001
1747851817036106214,-0.128
1747851817043792081,-0.16
1747851817051477948,-0.157
1747851817059163815,-0.145
1747851817066849682,-0.15
1747851817074535549,-0.145
1747851817082221416,-0.128
1747851817089907283,-0.123
1747851817097593150,-0.14200000000000002
1747851817105279017,-0.17400000000000002
1747851817112964884,-0.228
1747851817120650751,-0.184
1747851817128336618,0.184
1747851817136022485,0.873
1747851817143708352,1.609
1747851817151394219,1.6560000000000001
1747851817159080086,0.433
1747851817166765953,-0.716
1747851817174451820,-0.507
1747851817182137687,-0.105
1747851817189823554,-0.268
1747851817197509421,-0.305
1747851817205195288,-0.17200000000000001
1747851817212881155,-0.184
1747851817220567022,-0.209
1747851817228252889,-0.162
1747851817235938756,-0.14200000000000002
1747851817243624623,-0.132
1747851817251310490,-0.10300000000000001
1747851817258996357,-0.08600000000000001
1747851817266682224,-0.073
1747851817274368091,-0.051000000000000004
1747851817282053958,-0.027
1747851817289739825,0.0
1747851817297425692,0.034
1747851817305111559,0.061
1747851817312797426,0.093
1747851817320483293,0.12
1747851817328169160,0.135
1747851817335855027,0.137
1747851817343540894,0.13
1747851817351226761,0.11800000000000001
1747851817358912628,0.105
1747851817366598495,0.073
1747851817374284362,0.041
1747851817381970229,0.014
1747851817389656096,-0.022
1747851817397341963,-0.068
1747851817405027830,-0.113
1747851817412713697,-0.152
1747851817420399564,-0.179
1747851817428085431,-0.201
1747851817435771298,-0.216
1747851817443457165,-0.219
1747851817451143032,-0.209
1747851817458828951,-0.201
1747851817466515236,-0.201
1747851817474201521,-0.189
1747851817481887806,-0.17400000000000002
1747851817489574091,-0.17200000000000001
1747851817497260376,-0.167
1747851817504946661,-0.164
1747851817512632946,-0.164
1747851817520319231,-0.157
1747851817528005516,-0.157
1747851817535691801,-0.157
1747851817543378086,-0.157
1747851817551064371,-0.157
1747851817558750656,-0.16
1747851817566436941,-0.155
1747851817574123226,-0.152
1747851817581809511,-0.155
1747851817589495796,-0.157
1747851817597182081,-0.157
1747851817604868366,-0.155
1747851817612554651,-0.152
1747851817620240936,-0.147
1747851817627927221,-0.135
1747851817635613506,-0.113
1747851817643299791,-0.096
1747851817650986076,-0.098
1747851817658672361,-0.105
1747851817666358646,-0.11
1747851817674044931,-0.132
1747851817681731216,-0.16
1747851817689417501,-0.157
1747851817697103786,-0.137
1747851817704790071,-0.132
1747851817712476356,-0.14
1747851817720162641,-0.137
1747851817727848926,-0.128
1747851817735535211,-0.137
1747851817743221496,-0.187
1747851817750907781,-0.233
1747851817758594066,-0.108
1747851817766280351,0.384
1747851817773966636,1.1320000000000001
1747851817781652921,1.735
1747851817789339206,1.334
1747851817797025491,-0.059000000000000004
1747851817804711776,-0.721
1747851817812398061,-0.305
1747851817820084346,-0.155
1747851817827770631,-0.315
1747851817835456916,-0.241
1747851817843143201,-0.16
1747851817850829486,-0.196
1747851817858515771,-0.184
1747851817866202056,-0.147
1747851817873888341,-0.135
1747851817881574626,-0.115
1747851817889260911,-0.08600000000000001
1747851817896947196,-0.064
1747851817904633481,-0.054
1747851817912319766,-0.041
1747851817920006051,-0.002
1747851817927692336,0.024
1747851817935378621,0.041
1747851817943064906,0.07100000000000001
1747851817950751191,0.10300000000000001
1747851817958437476,0.125
1747851817966123761,0.135
1747851817973810046,0.137
1747851817981496331,0.128
1747851817989182616,0.11
1747851817996868901,0.088
1747851818004555186,0.066
1747851818012241471,0.036000000000000004
1747851818019927812,-0.002,92,613
1747851818027614097,-0.046,,644
1747851818035300382,-0.091
1747851818042986667,-0.128
1747851818050672952,-0.164
1747851818058359237,-0.192
1747851818066045522,-0.20600000000000002
1747851818073731807,-0.214
1747851818081418092,-0.214
1747851818089104377,-0.211
1747851818096790662,-0.216
1747851818104476947,-0.20400000000000001
1747851818112163232,-0.182
1747851818119849517,-0.179
1747851818127535802,-0.179
1747851818135222087,-0.164
1747851818142908372,-0.16
1747851818150594657,-0.16
1747851818158280942,-0.164
1747851818165967227,-0.177
1747851818173653512,-0.167
1747851818181339797,-0.152
1747851818189026082,-0.152
1747851818196712367,-0.14200000000000002
1747851818204398652,-0.14200000000000002
1747851818212084937,-0.16
1747851818219771222,-0.155
1747851818227457507,-0.14
1747851818235143792,-0.152
1747851818242830077,-0.16
1747851818250516362,-0.147
1747851818258202647,-0.145
1747851818265888932,-0.13
1747851818273575217,-0.1
1747851818281261502,-0.096
1747851818288947787,-0.10300000000000001
1747851818296634072,-0.1
1747851818304320357,-0.11
1747851818312006642,-0.15
1747851818319692927,-0.162
1747851818327379212,-0.137
1747851818335065497,-0.13
1747851818342751782,-0.14
1747851818350438067,-0.14200000000000002
1747851818358124352,-0.132
1747851818365810637,-0.13
1747851818373496922,-0.15
1747851818381183207,-0.194
1747851818388869492,-0.199
1747851818396555777,0.009000000000000001
1747851818404242062,0.544
1747851818411928347,1.2530000000000001
1747851818419614632,1.627
1747851818427300917,0.908
1747851818434987202,-0.356
1747851818442673487,-0.61
1747851818450359772,-0.20600000000000002
1747851818458046057,-0.219
1747851818465732342,-0.302
1747851818473418627,-0.196
1747851818481104912,-0.187
1747851818488791197,-0.219
1747851818496477482,-0.17400000000000002
1747851818504163767,-0.145
1747851818511850052,-0.145
1747851818519536337,-0.128
1747851818527222622,-0.10300000000000001
1747851818534908907,-0.08600000000000001
1747851818542595192,-0.064
1747851818550281477,-0.041
1747851818557967762,-0.024
1747851818565654047,-0.002
1747851818573340332,0.032
1747851818581026673,0.059000000000000004,92,636
1747851818588712958,0.07100000000000001
1747851818596399243,0.093
1747851818604085528,0.108
1747851818611771813,0.1
1747851818619458098,0.096
1747851818627144383,0.088
1747851818634830668,0.064
1747851818642516953,0.036000000000000004
1747851818650203238,0.017
1747851818657889523,-0.012
1747851818665575808,-0.054
1747851818673262093,-0.098
1747851818680948378,-0.135
1747851818688634663,-0.164
1747851818696320948,-0.192
1747851818704007233,-0.211
1747851818711693518,-0.219
1747851818719379803,-0.214
1747851818727066088,-0.20600000000000002
1747851818734752373,-0.201
1747851818742438658,-0.196
1747851818750124943,-0.194
1747851818757811228,-0.189
1747851818765497513,-0.179
1747851818773183798,-0.17200000000000001
1747851818780870083,-0.17200000000000001
1747851818788556368,-0.167
1747851818796242653,-0.16
1747851818803928938,-0.164
1747851818811615223,-0.169
1747851818819301508,-0.164
1747851818826987793,-0.157
1747851818834674078,-0.155
1747851818842360363,-0.157
1747851818850046648,-0.162
1747851818857732933,-0.16
1747851818865419218,-0.147
1747851818873105503,-0.14
1747851818880791788,-0.145
1747851818888478073,-0.147
1747851818896164358,-0.135
1747851818903850643,-0.11
1747851818911536928,-0.093
1747851818919223213,-0.08600000000000001
1747851818926909498,-0.078
1747851818934595783,-0.073
1747851818942282068,-0.091
1747851818949968353,-0.12
1747851818957654638,-0.13
1747851818965340923,-0.11800000000000001
1747851818973027208,-0.115
1747851818980713493,-0.12
1747851818988399778,-0.11
1747851818996086063,-0.10300000000000001
1747851819003772348,-0.105
1747851819011458633,-0.115
1747851819019144918,-0.15
1747851819026831203,-0.201
1747851819034517488,-0.088
1747851819042203773,0.41300000000000003
1747851819049890058,1.221
1747851819057576343,1.8800000000000001
1747851819065262628,1.459
1747851819072948913,-0.019
1747851819080635198,-0.726
1747851819088321483,-0.273
1747851819096007768,-0.10300000000000001
1747851819103694053,-0.28300000000000003
1747851819111380338,-0.209
1747851819119066623,-0.123
1747851819126752908,-0.169
1747851819134439193,-0.157
1747851819142125534,-0.10300000000000001
1747851819149811819,-0.088
1747851819157498104,-0.078
1747851819165184389,-0.054
1747851819172870674,-0.036000000000000004
1747851819180556959,-0.012
1747851819188243244,0.022
1747851819195929529,0.051000000000000004
1747851819203615814,0.073
1747851819211302099,0.1
1747851819218988384,0.145
1747851819226674669,0.187
1747851819234360954,0.221
1747851819242047239,0.23600000000000002
1747851819249733524,0.228
1747851819257419809,0.224
1747851819265106094,0.216
1747851819272792379,0.179
1747851819280478664,0.145
1747851819288164949,0.123
1747851819295851234,0.081
1747851819303537519,0.007
1747851819311223804,-0.066
1747851819318910089,-0.11
1747851819326596374,-0.152
1747851819334282659,-0.194
1747851819341968944,-0.20600000000000002
1747851819349655229,-0.209
1747851819357341514,-0.216
1747851819365027799,-0.211
1747851819372714084,-0.199
1747851819380400369,-0.187
1747851819388086654,-0.179
1747851819395772939,-0.167
1747851819403459224,-0.15
1747851819411145509,-0.137
1747851819418831794,-0.14200000000000002
1747851819426518079,-0.147
1747851819434204364,-0.137
1747851819441890649,-0.132
1747851819449576934,-0.137
1747851819457263219,-0.145
1747851819464949504,-0.137
1747851819472635789,-0.13
1747851819480322074,-0.137
1747851819488008359,-0.14200000000000002
1747851819495694644,-0.135
1747851819503380929,-0.137
1747851819511067214,-0.14200000000000002
1747851819518753499,-0.145
1747851819526439784,-0.145
1747851819534126069,-0.137
1747851819541812354,-0.125
1747851819549498639,-0.113
1747851819557184924,-0.096
1747851819564871209,-0.078
1747851819572557494,-0.078
1747851819580243779,-0.105
1747851819587930064,-0.14
1747851819595616349,-0.147
1747851819603302634,-0.14
1747851819610988919,-0.14200000000000002
1747851819618675204,-0.137
1747851819626361489,-0.13
1747851819634047774,-0.125
1747851819641734059,-0.132
1747851819649420344,-0.157
1747851819657106629,-0.216
1747851819664792914,-0.23800000000000002
1747851819672479199,0.049
1747851819680165484,0.765
1747851819687851769,1.585
1747851819695538054,1.794
1747851819703224395,0.721,93,636
1747851819710910680,-0.625,,636
1747851819718596965,-0.63
1747851819726283250,-0.123
1747851819733969535,-0.224
1747851819741655820,-0.315
1747851819749342105,-0.177
1747851819757028390,-0.177
1747851819764714675,-0.209
1747851819772400960,-0.152
1747851819780087245,-0.128
1747851819787773530,-0.137
1747851819795459815,-0.108
1747851819803146100,-0.078
1747851819810832385,-0.064
1747851819818518670,-0.044
1747851819826204955,-0.019
1747851819833891240,0.007
1747851819841577525,0.044
1747851819849263810,0.078
1747851819856950095,0.11800000000000001
1747851819864636380,0.15
1747851819872322665,0.17200000000000001
1747851819880008950,0.189
1747851819887695235,0.192
1747851819895381520,0.17400000000000002
1747851819903067805,0.152
1747851819910754090,0.13
1747851819918440375,0.088
1747851819926126660,0.034
1747851819933812945,-0.019
1747851819941499230,-0.073
1747851819949185515,-0.137
1747851819956871800,-0.192
1747851819964558085,-0.221
1747851819972244370,-0.241
1747851819979930655,-0.256
1747851819987616940,-0.26
1747851819995303225,-0.253
1747851820002989510,-0.241
1747851820010675795,-0.228
1747851820018362080,-0.221
1747851820026048365,-0.20600000000000002
1747851820033734650,-0.196
1747851820041420935,-0.194
1747851820049107220,-0.184
1747851820056793505,-0.177
1747851820064479790,-0.17200000000000001
1747851820072166075,-0.167
1747851820079852360,-0.164
1747851820087538645,-0.167
1747851820095224930,-0.167
1747851820102911215,-0.167
1747851820110597500,-0.164
1747851820118283785,-0.164
1747851820125970070,-0.167
1747851820133656355,-0.167
1747851820141342640,-0.164
1747851820149028925,-0.157
1747851820156715210,-0.157
1747851820164401495,-0.164
1747851820172087780,-0.16
1747851820179774065,-0.14
1747851820187460350,-0.12
1747851820195146635,-0.113
1747851820202832920,-0.11
1747851820210519205,-0.105
1747851820218205490,-0.113
1747851820225891775,-0.14200000000000002
1747851820233578060,-0.164
1747851820241264345,-0.152
1747851820248950630,-0.145
1747851820256636915,-0.15
1747851820264323260,-0.15
1747851820272009545,-0.135
1747851820279695830,-0.132
1747851820287382115,-0.16
1747851820295068400,-0.224
1747851820302754685,-0.263
1747851820310440970,-0.078
1747851820318127255,0.494
1747851820325813540,1.324
1747851820333499825,1.893
1747851820341186110,1.248
1747851820348872395,-0.3
1747851820356558680,-0.79
1747851820364244965,-0.209
1747851820371931250,-0.125
1747851820379617535,-0.34400000000000003
1747851820387303820,-0.233
1747851820394990105,-0.16
1747851820402676390,-0.228
1747851820410362675,-0.201
1747851820418048960,-0.14200000000000002
1747851820425735245,-0.145
1747851820433421530,-0.135
1747851820441107815,-0.10300000000000001
1747851820448794100,-0.08600000000000001
1747851820456480385,-0.066
1747851820464166670,-0.041
1747851820471852955,-0.009000000000000001
1747851820479539240,0.022
1747851820487225525,0.054
1747851820494911810,0.08600000000000001
1747851820502598095,0.125
1747851820510284380,0.155
1747851820517970665,0.177
1747851820525656950,0.184
1747851820533343235,0.177
1747851820541029520,0.162
1747851820548715805,0.14200000000000002
1747851820556402090,0.113
1747851820564088375,0.073
1747851820571774660,0.022
1747851820579460945,-0.041
1747851820587147230,-0.108
1747851820594833515,-0.164
1747851820602519800,-0.20600000000000002
1747851820610206085,-0.233
1747851820617892370,-0.246
1747851820625578655,-0.248
1747851820633264940,-0.248
1747851820640951225,-0.233
1747851820648637510,-0.221
1747851820656323795,-0.221
1747851820664010080,-0.20600000000000002
1747851820671696365,-0.184
1747851820679382650,-0.182
1747851820687068935,-0.187
1747851820694755220,-0.177
1747851820702441505,-0.169
1747851820710127790,-0.17200000000000001
1747851820717814075,-0.169
1747851820725500360,-0.162
1747851820733186645,-0.162
1747851820740872930,-0.164
1747851820748559215,-0.162
1747851820756245500,-0.164
1747851820763931785,-0.164
1747851820771618070,-0.16
1747851820779304355,-0.16
1747851820786990640,-0.16
1747851820794676925,-0.157
1747851820802363210,-0.16
1747851820810049495,-0.157
1747851820817735780,-0.147
1747851820825422121,-0.147,93,641
1747851820833108406,-0.15
1747851820840794691,-0.15
1747851820848480976,-0.14
1747851820856167261,-0.12
1747851820863853546,-0.10300000000000001
1747851820871539831,-0.098
1747851820879226116,-0.096
1747851820886912401,-0.098
1747851820894598686,-0.125
1747851820902284971,-0.157
1747851820909971256,-0.157
1747851820917657541,-0.14
1747851820925343826,-0.137
1747851820933030111,-0.137
1747851820940716396,-0.13
1747851820948402681,-0.128
1747851820956088966,-0.135
1747851820963775251,-0.157
1747851820971461536,-0.219
1747851820979147821,-0.263
1747851820986834106,-0.059000000000000004
1747851820994520391,0.536
1747851821002206676,1.346
1747851821009892961,1.866
1747851821017579246,1.169
1747851821025265531,-0.342
1747851821032951816,-0.743
1747851821040638101,-0.194
1747851821048324386,-0.157
1747851821056010671,-0.342
1747851821063696956,-0.228
1747851821071383241,-0.17200000000000001
1747851821079069526,-0.226
1747851821086755811,-0.189
1747851821094442096,-0.137
1747851821102128381,-0.145
1747851821109814666,-0.135
1747851821117500951,-0.105
1747851821125187236,-0.081
1747851821132873521,-0.054
1747851821140559806,-0.032
1747851821148246091,-0.009000000000000001
1747851821155932376,0.019
1747851821163618661,0.056
1747851821171304946,0.08600000000000001
1747851821178991231,0.113
1747851821186677516,0.14
1747851821194363801,0.16
1747851821202050086,0.162
1747851821209736371,0.157
1747851821217422656,0.137
1747851821225108941,0.11800000000000001
1747851821232795226,0.096
1747851821240481511,0.064
1747851821248167796,0.012
1747851821255854081,-0.046
1747851821263540366,-0.098
1747851821271226651,-0.15
1747851821278912936,-0.192
1747851821286599221,-0.219
1747851821294285506,-0.241
1747851821301971791,-0.246
1747851821309658076,-0.231
1747851821317344361,-0.219
1747851821325030646,-0.219
1747851821332716931,-0.216
1747851821340403216,-0.201
1747851821348089501,-0.189
1747851821355775786,-0.182
1747851821363462071,-0.17400000000000002
1747851821371148356,-0.17400000000000002
1747851821378834641,-0.17200000000000001
1747851821386520982,-0.167
1747851821394207267,-0.17200000000000001
1747851821401893552,-0.17400000000000002
1747851821409579837,-0.164
1747851821417266122,-0.162
1747851821424952407,-0.167
1747851821432638692,-0.167
1747851821440324977,-0.164
1747851821448011262,-0.167
1747851821455697547,-0.167
1747851821463383832,-0.162
1747851821471070117,-0.162
1747851821478756402,-0.164
1747851821486442687,-0.155
1747851821494128972,-0.157
1747851821501815257,-0.164
1747851821509501542,-0.155
1747851821517187827,-0.15
1747851821524874112,-0.155
1747851821532560397,-0.15
1747851821540246682,-0.13
1747851821547932967,-0.105
1747851821555619252,-0.088
1747851821563305537,-0.091
1747851821570991822,-0.088
1747851821578678107,-0.091
1747851821586364392,-0.125
1747851821594050677,-0.155
1747851821601736962,-0.147
1747851821609423247,-0.137
1747851821617109532,-0.137
1747851821624795817,-0.132
1747851821632482102,-0.128
1747851821640168387,-0.13
1747851821647854672,-0.132
1747851821655540957,-0.15
1747851821663227242,-0.219
1747851821670913527,-0.251
1747851821678599812,-0.009000000000000001
1747851821686286097,0.612
1747851821693972382,1.413
1747851821701658667,1.7870000000000001
1747851821709344952,0.905
1747851821717031237,-0.47700000000000004
1747851821724717522,-0.632
1747851821732403807,-0.15
1747851821740090092,-0.211
1747851821747776377,-0.32
1747851821755462662,-0.189
1747851821763148947,-0.17400000000000002
1747851821770835232,-0.219
1747851821778521517,-0.17200000000000001
1747851821786207802,-0.14
1747851821793894087,-0.14200000000000002
1747851821801580372,-0.11800000000000001
1747851821809266657,-0.091
1747851821816952942,-0.076
1747851821824639227,-0.051000000000000004
1747851821832325512,-0.027
1747851821840011797,-0.002
1747851821847698082,0.029
1747851821855384367,0.059000000000000004
1747851821863070652,0.083
1747851821870756937,0.11
1747851821878443222,0.135
1747851821886129507,0.147
1747851821893815792,0.145
1747851821901502077,0.132
1747851821909188362,0.115
1747851821916874647,0.096
1747851821924560932,0.068
1747851821932247217,0.036000000000000004
1747851821939933502,-0.004
1747851821947619843,-0.051000000000000004,93,634
1747851821955306059,-0.096,,641
1747851821962992275,-0.135
1747851821970678491,-0.17400000000000002
1747851821978364707,-0.199
1747851821986050923,-0.216
1747851821993737139,-0.224
1747851822001423355,-0.219
1747851822009109571,-0.211
1747851822016795787,-0.201
1747851822024482003,-0.196
1747851822032168219,-0.189
1747851822039854435,-0.177
1747851822047540651,-0.169
1747851822055226867,-0.167
1747851822062913083,-0.167
1747851822070599299,-0.167
1747851822078285515,-0.16
1747851822085971731,-0.157
1747851822093657947,-0.16
1747851822101344163,-0.162
1747851822109030379,-0.16
1747851822116716595,-0.157
1747851822124402811,-0.16
1747851822132089027,-0.162
1747851822139775243,-0.162
1747851822147461459,-0.157
1747851822155147675,-0.157
1747851822162833891,-0.162
1747851822170520107,-0.157
1747851822178206323,-0.15
1747851822185892539,-0.15
1747851822193578755,-0.147
1747851822201264971,-0.147
1747851822208951187,-0.14200000000000002
1747851822216637403,-0.132
1747851822224323619,-0.137
1747851822232009835,-0.14
1747851822239696051,-0.125
1747851822247382267,-0.10300000000000001
1747851822255068483,-0.081
1747851822262754699,-0.076
1747851822270440915,-0.083
1747851822278127131,-0.083
1747851822285813347,-0.1
1747851822293499563,-0.135
1747851822301185779,-0.14200000000000002
1747851822308871995,-0.128
1747851822316558211,-0.11800000000000001
1747851822324244427,-0.123
1747851822331930643,-0.123
1747851822339616859,-0.115
1747851822347303075,-0.115
1747851822354989291,-0.14
1747851822362675507,-0.194
1747851822370361723,-0.233
1747851822378047939,-0.068
1747851822385734155,0.46
1747851822393420371,1.223
1747851822401106587,1.742
1747851822408792803,1.159
1747851822416479019,-0.231
1747851822424165235,-0.674
1747851822431851451,-0.214
1747851822439537667,-0.16
1747851822447223883,-0.312
1747851822454910099,-0.214
1747851822462596315,-0.162
1747851822470282531,-0.209
1747851822477968747,-0.177
1747851822485654963,-0.132
1747851822493341179,-0.14
1747851822501027395,-0.123
1747851822508713621,-0.093
1747851822516399976,-0.076
1747851822524086331,-0.056
1747851822531772686,-0.029
1747851822539459041,-0.012
1747851822547145396,0.009000000000000001
1747851822554831751,0.039
1747851822562518106,0.07100000000000001
1747851822570204461,0.1
1747851822577890816,0.12
1747851822585577171,0.132
1747851822593263526,0.14200000000000002
1747851822600949881,0.137
1747851822608636236,0.125
1747851822616322591,0.105
1747851822624008946,0.078
1747851822631695301,0.049
1747851822639381656,0.014
1747851822647068011,-0.029
1747851822654754366,-0.078
1747851822662440721,-0.12
1747851822670127076,-0.16
1747851822677813431,-0.196
1747851822685499786,-0.219
1747851822693186141,-0.224
1747851822700872496,-0.226
1747851822708558851,-0.221
1747851822716245206,-0.214
1747851822723931561,-0.209
1747851822731617916,-0.201
1747851822739304271,-0.192
1747851822746990626,-0.182
1747851822754676981,-0.177
1747851822762363336,-0.179
1747851822770049691,-0.179
1747851822777736046,-0.17400000000000002
1747851822785422401,-0.164
1747851822793108756,-0.167
1747851822800795111,-0.17200000000000001
1747851822808481466,-0.167
1747851822816167821,-0.16
1747851822823854176,-0.16
1747851822831540531,-0.16
1747851822839226886,-0.155
1747851822846913241,-0.152
1747851822854599596,-0.15
1747851822862285951,-0.147
1747851822869972306,-0.147
1747851822877658661,-0.14
1747851822885345016,-0.132
1747851822893031371,-0.137
1747851822900717726,-0.135
1747851822908404081,-0.11800000000000001
1747851822916090436,-0.12
1747851822923776791,-0.132
1747851822931463146,-0.12
1747851822939149501,-0.08600000000000001
1747851822946835856,-0.054
1747851822954522211,-0.046
1747851822962208566,-0.054
1747851822969894921,-0.056
1747851822977581276,-0.073
1747851822985267631,-0.108
1747851822992953986,-0.115
1747851823000640341,-0.098
1747851823008326696,-0.093
1747851823016013051,-0.08600000000000001
1747851823023699406,-0.076
1747851823031385761,-0.078
1747851823039072116,-0.091
1747851823046758471,-0.108
1747851823054444826,-0.162
1747851823062131181,-0.224
1747851823069817569,-0.059000000000000004,94,676
1747851823077503506,0.541
1747851823085189443,1.395
1747851823092875380,1.905
1747851823100561317,1.225
1747851823108247254,-0.253
1747851823115933191,-0.6990000000000001
1747851823123619128,-0.177
1747851823131305065,-0.108
1747851823138991002,-0.28
1747851823146676939,-0.17400000000000002
1747851823154362876,-0.113
1747851823162048813,-0.162
1747851823169734750,-0.13
1747851823177420687,-0.081
1747851823185106624,-0.08600000000000001
1747851823192792561,-0.073
1747851823200478498,-0.039
1747851823208164435,-0.022
1747851823215850372,-0.007
1747851823223536309,0.014
1747851823231222246,0.044
1747851823238908183,0.073
1747851823246594120,0.108
1747851823254280057,0.14
1747851823261965994,0.167
1747851823269651931,0.201
1747851823277337868,0.221
1747851823285023805,0.216
1747851823292709742,0.20600000000000002
1747851823300395679,0.192
1747851823308081616,0.155
1747851823315767553,0.11800000000000001
1747851823323453490,0.088
1747851823331139427,0.036000000000000004
1747851823338825364,-0.029
1747851823346511301,-0.088
1747851823354197238,-0.14200000000000002
1747851823361883175,-0.189
1747851823369569112,-0.216
1747851823377255049,-0.231
1747851823384940986,-0.23600000000000002
1747851823392626923,-0.23800000000000002
1747851823400312860,-0.23600000000000002
1747851823407998797,-0.224
1747851823415684734,-0.211
1747851823423370671,-0.20400000000000001
1747851823431056608,-0.194
1747851823438742545,-0.184
1747851823446428482,-0.177
1747851823454114419,-0.17400000000000002
1747851823461800356,-0.17200000000000001
1747851823469486293,-0.167
1747851823477172230,-0.164
1747851823484858167,-0.162
1747851823492544104,-0.16
1747851823500230041,-0.164
1747851823507915978,-0.167
1747851823515601915,-0.164
1747851823523287852,-0.164
1747851823530973789,-0.167
1747851823538659726,-0.164
1747851823546345663,-0.162
1747851823554031600,-0.167
1747851823561717537,-0.167
1747851823569403474,-0.167
1747851823577089411,-0.164
1747851823584775348,-0.162
1747851823592461285,-0.164
1747851823600147222,-0.167
1747851823607833159,-0.157
1747851823615519096,-0.135
1747851823623205033,-0.113
1747851823630890999,-0.1,92,690
1747851823638577215,-0.098,,701
1747851823646263431,-0.1
1747851823653949647,-0.11800000000000001
1747851823661635863,-0.152
1747851823669322079,-0.164
1747851823677008295,-0.15
1747851823684694511,-0.14
1747851823692380727,-0.137
1747851823700066943,-0.132
1747851823707753159,-0.132
1747851823715439375,-0.135
1747851823723125591,-0.15
1747851823730811807,-0.20400000000000001
1747851823738498023,-0.265
1747851823746184239,-0.132
1747851823753870455,0.386
1747851823761556671,1.181
1747851823769242887,1.816
1747851823776929103,1.366
1747851823784615319,-0.135
1747851823792301535,-0.8
1747851823799987751,-0.273
1747851823807673967,-0.108
1747851823815360183,-0.329
1747851823823046399,-0.253
1747851823830732615,-0.152
1747851823838418831,-0.209
1747851823846105047,-0.192
1747851823853791263,-0.137
1747851823861477479,-0.14200000000000002
1747851823869163695,-0.128
1747851823876849911,-0.093
1747851823884536127,-0.076
1747851823892222343,-0.051000000000000004
1747851823899908559,-0.012
1747851823907594775,0.012
1747851823915280991,0.041
1747851823922967207,0.08600000000000001
1747851823930653423,0.115
1747851823938339639,0.137
1747851823946025855,0.179
1747851823953712071,0.209
1747851823961398287,0.219
1747851823969084503,0.221
1747851823976770719,0.201
1747851823984456935,0.17400000000000002
1747851823992143151,0.152
1747851823999829367,0.113
1747851824007515583,0.054
1747851824015201799,-0.007
1747851824022888015,-0.07100000000000001
1747851824030574231,-0.135
1747851824038260447,-0.187
1747851824045946663,-0.219
1747851824053632879,-0.233
1747851824061319095,-0.23800000000000002
1747851824069005311,-0.231
1747851824076691527,-0.224
1747851824084377743,-0.216
1747851824092063959,-0.20600000000000002
1747851824099750175,-0.194
1747851824107436391,-0.182
1747851824115122607,-0.17200000000000001
1747851824122808823,-0.17200000000000001
1747851824130495039,-0.164
1747851824138181255,-0.155
1747851824145867471,-0.16
1747851824153553687,-0.157
1747851824161239903,-0.137
1747851824168926119,-0.137
1747851824176612335,-0.147
1747851824184298551,-0.14
1747851824191984773,-0.14
1747851824199671058,-0.147
1747851824207357343,-0.145
1747851824215043628,-0.137
1747851824222729913,-0.132
1747851824230416198,-0.132
1747851824238102483,-0.135
1747851824245788768,-0.128
1747851824253475053,-0.123
1747851824261161338,-0.13
1747851824268847623,-0.128
1747851824276533908,-0.115
1747851824284220193,-0.115
1747851824291906478,-0.105
1747851824299592763,-0.088
1747851824307279048,-0.081
1747851824314965333,-0.07100000000000001
1747851824322651618,-0.056
1747851824330337903,-0.066
1747851824338024188,-0.105
1747851824345710473,-0.12
1747851824353396758,-0.108
1747851824361083043,-0.098
1747851824368769328,-0.105
1747851824376455613,-0.105
1747851824384141898,-0.093
1747851824391828183,-0.08600000000000001
1747851824399514468,-0.108
1747851824407200753,-0.169
1747851824414887038,-0.228
1747851824422573323,-0.049
1747851824430259608,0.578
1747851824437945893,1.417
1747851824445632178,1.858
1747851824453318463,1.122
1747851824461004748,-0.332
1747851824468691033,-0.7010000000000001
1747851824476377318,-0.147
1747851824484063603,-0.1
1747851824491749888,-0.278
1747851824499436173,-0.17200000000000001
1747851824507122458,-0.11800000000000001
1747851824514808743,-0.167
1747851824522495028,-0.125
1747851824530181313,-0.078
1747851824537867598,-0.08600000000000001
1747851824545553883,-0.07100000000000001
1747851824553240168,-0.032
1747851824560926453,-0.017
1747851824568612738,-0.007
1747851824576299023,0.024
1747851824583985308,0.059000000000000004
1747851824591671593,0.08600000000000001
1747851824599357878,0.12
1747851824607044163,0.155
1747851824614730448,0.189
1747851824622416733,0.219
1747851824630103018,0.241
1747851824637789303,0.246
1747851824645475588,0.233
1747851824653161873,0.211
1747851824660848158,0.179
1747851824668534443,0.14200000000000002
1747851824676220728,0.1
1747851824683907013,0.044
1747851824691593298,-0.027
1747851824699279583,-0.093
1747851824706965868,-0.145
1747851824714652153,-0.189
1747851824722338438,-0.221
1747851824730024723,-0.243
1747851824737711008,-0.246
1747851824745397293,-0.243
1747851824753083634,-0.241,91,691
1747851824760769919,-0.233
1747851824768456204,-0.219
1747851824776142489,-0.209
1747851824783828774,-0.199
1747851824791515059,-0.192
1747851824799201344,-0.187
1747851824806887629,-0.182
1747851824814573914,-0.17400000000000002
1747851824822260199,-0.17200000000000001
1747851824829946484,-0.169
1747851824837632769,-0.167
1747851824845319054,-0.164
1747851824853005339,-0.162
1747851824860691624,-0.164
1747851824868377909,-0.164
1747851824876064194,-0.162
1747851824883750479,-0.162
1747851824891436764,-0.162
1747851824899123049,-0.16
1747851824906809334,-0.16
1747851824914495619,-0.162
1747851824922181904,-0.157
1747851824929868189,-0.155
1747851824937554474,-0.16
1747851824945240759,-0.162
1747851824952927044,-0.155
1747851824960613329,-0.14
1747851824968299614,-0.128
1747851824975985899,-0.11800000000000001
1747851824983672184,-0.108
1747851824991358469,-0.096
1747851824999044754,-0.10300000000000001
1747851825006731039,-0.135
1747851825014417324,-0.157
1747851825022103609,-0.147
1747851825029789894,-0.14
1747851825037476179,-0.14
1747851825045162464,-0.135
1747851825052848749,-0.125
1747851825060535034,-0.13
1747851825068221319,-0.145
1747851825075907604,-0.187
1747851825083593889,-0.246
1747851825091280174,-0.135
1747851825098966459,0.384
1747851825106652744,1.179
1747851825114339029,1.725
1747851825122025314,1.218
1747851825129711599,-0.211
1747851825137397884,-0.792
1747851825145084169,-0.251
1747851825152770454,-0.088
1747851825160456739,-0.307
1747851825168143024,-0.233
1747851825175829309,-0.14
1747851825183515594,-0.194
1747851825191201879,-0.177
1747851825198888164,-0.125
1747851825206574449,-0.125
1747851825214260734,-0.115
1747851825221947019,-0.083
1747851825229633304,-0.066
1747851825237319589,-0.049
1747851825245005874,-0.024
1747851825252692159,0.0
1747851825260378444,0.027
1747851825268064729,0.059000000000000004
1747851825275751014,0.091
1747851825283437299,0.12
1747851825291123584,0.15
1747851825298809869,0.17200000000000001
1747851825306496154,0.179
1747851825314182495,0.17200000000000001
1747851825321868780,0.155
1747851825329555065,0.13
1747851825337241350,0.098
1747851825344927635,0.059000000000000004
1747851825352613920,0.007
1747851825360300205,-0.054
1747851825367986490,-0.113
1747851825375672775,-0.167
1747851825383359060,-0.209
1747851825391045345,-0.241
1747851825398731630,-0.256
1747851825406417915,-0.258
1747851825414104200,-0.258
1747851825421790485,-0.251
1747851825429476770,-0.23600000000000002
1747851825437163055,-0.224
1747851825444849340,-0.214
1747851825452535625,-0.209
1747851825460221910,-0.201
1747851825467908195,-0.194
1747851825475594480,-0.189
1747851825483280765,-0.184
1747851825490967050,-0.184
1747851825498653335,-0.182
1747851825506339620,-0.179
1747851825514025905,-0.177
1747851825521712190,-0.177
1747851825529398475,-0.17400000000000002
1747851825537084760,-0.17400000000000002
1747851825544771045,-0.17200000000000001
1747851825552457330,-0.17200000000000001
1747851825560143615,-0.17200000000000001
1747851825567829900,-0.17200000000000001
1747851825575516185,-0.167
1747851825583202470,-0.164
1747851825590888755,-0.164
1747851825598575040,-0.162
1747851825606261325,-0.164
1747851825613947610,-0.167
1747851825621633895,-0.164
1747851825629320180,-0.152
1747851825637006465,-0.137
1747851825644692750,-0.123
1747851825652379035,-0.115
1747851825660065320,-0.10300000000000001
1747851825667751605,-0.1
1747851825675437890,-0.125
1747851825683124175,-0.155
1747851825690810460,-0.155
1747851825698496745,-0.14200000000000002
1747851825706183030,-0.137
1747851825713869315,-0.132
1747851825721555600,-0.128
1747851825729241885,-0.125
1747851825736928170,-0.132
1747851825744614455,-0.167
1747851825752300740,-0.233
1747851825759987025,-0.194
1747851825767673310,0.216
1747851825775359595,0.977
1747851825783045880,1.673
1747851825790732165,1.499
1747851825798418450,0.155
1747851825806104735,-0.785
1747851825813791020,-0.384
1747851825821477305,-0.046
1747851825829163590,-0.268
1747851825836849875,-0.268
1747851825844536160,-0.132
1747851825852222445,-0.17200000000000001
1747851825859908730,-0.187
1747851825867595015,-0.125
1747851825875281356,-0.113,90,678
1747851825882967641,-0.113,,675
1747851825890653926,-0.078
1747851825898340211,-0.059000000000000004
1747851825906026496,-0.049
1747851825913712781,-0.024
1747851825921399066,0.007
1747851825929085351,0.032
1747851825936771636,0.061
1747851825944457921,0.093
1747851825952144206,0.125
1747851825959830491,0.155
1747851825967516776,0.177
1747851825975203061,0.187
1747851825982889346,0.179
1747851825990575631,0.162
1747851825998261916,0.14
1747851826005948201,0.11
1747851826013634486,0.073
1747851826021320771,0.029
1747851826029007056,-0.022
1747851826036693341,-0.081
1747851826044379626,-0.137
1747851826052065911,-0.182
1747851826059752196,-0.211
1747851826067438481,-0.228
1747851826075124766,-0.23800000000000002
1747851826082811051,-0.241
1747851826090497336,-0.233
1747851826098183621,-0.224
1747851826105869906,-0.214
1747851826113556191,-0.20400000000000001
1747851826121242476,-0.196
1747851826128928761,-0.189
1747851826136615046,-0.182
1747851826144301331,-0.179
1747851826151987616,-0.17400000000000002
1747851826159673901,-0.169
1747851826167360186,-0.167
1747851826175046471,-0.167
1747851826182732756,-0.167
1747851826190419041,-0.167
1747851826198105326,-0.164
1747851826205791611,-0.162
1747851826213477896,-0.164
1747851826221164181,-0.164
1747851826228850466,-0.162
1747851826236536751,-0.16
1747851826244223036,-0.16
1747851826251909321,-0.157
1747851826259595606,-0.155
1747851826267281891,-0.155
1747851826274968176,-0.16
1747851826282654461,-0.157
1747851826290340746,-0.145
1747851826298027031,-0.13
1747851826305713316,-0.11800000000000001
1747851826313399601,-0.11
1747851826321085886,-0.1
1747851826328772171,-0.091
1747851826336458456,-0.108
1747851826344144741,-0.14200000000000002
1747851826351831026,-0.15
1747851826359517311,-0.135
1747851826367203596,-0.13
1747851826374889881,-0.128
1747851826382576166,-0.12
1747851826390262451,-0.11800000000000001
1747851826397948736,-0.125
1747851826405635021,-0.147
1747851826413321306,-0.20600000000000002
1747851826421007591,-0.20600000000000002
1747851826428693876,0.11800000000000001
1747851826436380221,0.8270000000000001
1747851826444066158,1.577
1747851826451752095,1.622
1747851826459438032,0.423
1747851826467123969,-0.728
1747851826474809906,-0.494
1747851826482495843,-0.046
1747851826490181780,-0.226
1747851826497867717,-0.28500000000000003
1747851826505553654,-0.14
1747851826513239591,-0.157
1747851826520925528,-0.187
1747851826528611465,-0.125
1747851826536297402,-0.105
1747851826543983339,-0.11
1747851826551669276,-0.081
1747851826559355213,-0.054
1747851826567041150,-0.041
1747851826574727087,-0.022
1747851826582413024,0.004
1747851826590098961,0.029
1747851826597784898,0.059000000000000004
1747851826605470835,0.093
1747851826613156772,0.12
1747851826620842709,0.14
1747851826628528646,0.164
1747851826636214583,0.179
1747851826643900520,0.17200000000000001
1747851826651586457,0.152
1747851826659272394,0.13
1747851826666958331,0.105
1747851826674644268,0.07100000000000001
1747851826682330205,0.032
1747851826690016142,-0.017
1747851826697702079,-0.066
1747851826705388016,-0.11800000000000001
1747851826713073953,-0.162
1747851826720759890,-0.194
1747851826728445827,-0.216
1747851826736131764,-0.226
1747851826743817701,-0.228
1747851826751503638,-0.224
1747851826759189575,-0.211
1747851826766875512,-0.201
1747851826774561449,-0.192
1747851826782247386,-0.182
1747851826789933323,-0.17400000000000002
1747851826797619260,-0.169
1747851826805305197,-0.164
1747851826812991134,-0.162
1747851826820677071,-0.16
1747851826828363008,-0.157
1747851826836048945,-0.157
1747851826843734882,-0.157
1747851826851420819,-0.157
1747851826859106756,-0.157
1747851826866792693,-0.157
1747851826874478630,-0.157
1747851826882164567,-0.155
1747851826889850504,-0.155
1747851826897536441,-0.152
1747851826905222378,-0.15
1747851826912908315,-0.15
1747851826920594252,-0.152
1747851826928280189,-0.155
1747851826935966126,-0.152
1747851826943652063,-0.14
1747851826951338000,-0.125
1747851826959023937,-0.113
1747851826966709874,-0.105
1747851826974395811,-0.093
1747851826982081748,-0.093
1747851826989767685,-0.123
1747851826997453651,-0.15,90,670
1747851827005140006,-0.145
1747851827012826361,-0.135
1747851827020512716,-0.132
1747851827028199071,-0.128
1747851827035885426,-0.12
1747851827043571781,-0.123
1747851827051258136,-0.137
1747851827058944491,-0.177
1747851827066630846,-0.224
1747851827074317201,-0.091
1747851827082003556,0.443
1747851827089689911,1.218
1747851827097376266,1.708
1747851827105062621,1.1
1747851827112748976,-0.315
1747851827120435331,-0.753
1747851827128121686,-0.199
1747851827135808041,-0.10300000000000001
1747851827143494396,-0.297
1747851827151180751,-0.199
1747851827158867106,-0.13
1747851827166553461,-0.184
1747851827174239816,-0.157
1747851827181926171,-0.108
1747851827189612526,-0.113
1747851827197298881,-0.1
1747851827204985236,-0.068
1747851827212671591,-0.054
1747851827220357946,-0.036000000000000004
1747851827228044301,-0.009000000000000001
1747851827235730656,0.014
1747851827243417011,0.036000000000000004
1747851827251103366,0.066
1747851827258789721,0.093
1747851827266476076,0.11800000000000001
1747851827274162431,0.14
1747851827281848786,0.152
1747851827289535141,0.15
1747851827297221496,0.135
1747851827304907851,0.113
1747851827312594206,0.088
1747851827320280561,0.061
1747851827327966916,0.029
1747851827335653271,-0.009000000000000001
1747851827343339626,-0.056
1747851827351025981,-0.1
1747851827358712336,-0.14200000000000002
1747851827366398691,-0.179
1747851827374085046,-0.201
1747851827381771401,-0.216
1747851827389457756,-0.221
1747851827397144111,-0.221
1747851827404830466,-0.214
1747851827412516821,-0.20400000000000001
1747851827420203176,-0.194
1747851827427889531,-0.187
1747851827435575886,-0.177
1747851827443262241,-0.169
1747851827450948596,-0.164
1747851827458634951,-0.16
1747851827466321306,-0.157
1747851827474007661,-0.155
1747851827481694016,-0.152
1747851827489380371,-0.152
1747851827497066726,-0.15
1747851827504753081,-0.152
1747851827512439436,-0.152
1747851827520125791,-0.155
1747851827527812146,-0.152
1747851827535498501,-0.152
1747851827543184856,-0.15
1747851827550871211,-0.152
1747851827558557599,-0.16,90,671
1747851827566243745,-0.16,,662
1747851827573929891,-0.155
1747851827581616037,-0.137
1747851827589302183,-0.123
1747851827596988329,-0.115
1747851827604674475,-0.105
1747851827612360621,-0.093
1747851827620046767,-0.105
1747851827627732913,-0.14200000000000002
1747851827635419059,-0.155
1747851827643105205,-0.14200000000000002
1747851827650791351,-0.135
1747851827658477497,-0.135
1747851827666163643,-0.128
1747851827673849789,-0.125
1747851827681535935,-0.132
1747851827689222081,-0.16
1747851827696908227,-0.209
1747851827704594373,-0.17400000000000002
1747851827712280519,0.187
1747851827719966665,0.886
1747851827727652811,1.573
1747851827735338957,1.5090000000000001
1747851827743025103,0.27
1747851827750711249,-0.763
1747851827758397395,-0.452
1747851827766083541,-0.049
1747851827773769687,-0.241
1747851827781455833,-0.27
1747851827789141979,-0.132
1747851827796828125,-0.16
1747851827804514271,-0.182
1747851827812200417,-0.12
1747851827819886563,-0.105
1747851827827572709,-0.108
1747851827835258855,-0.078
1747851827842945001,-0.054
1747851827850631147,-0.041
1747851827858317293,-0.019
1747851827866003439,0.009000000000000001
1747851827873689585,0.032
1747851827881375731,0.056
1747851827889061877,0.08600000000000001
1747851827896748023,0.113
1747851827904434169,0.132
1747851827912120315,0.147
1747851827919806461,0.15
1747851827927492607,0.14
1747851827935178753,0.12
1747851827942864899,0.098
1747851827950551045,0.07100000000000001
1747851827958237191,0.039
1747851827965923337,0.004
1747851827973609483,-0.034
1747851827981295629,-0.081
1747851827988981775,-0.123
1747851827996667921,-0.157
1747851828004354067,-0.187
1747851828012040213,-0.209
1747851828019726359,-0.219
1747851828027412505,-0.216
1747851828035098651,-0.209
1747851828042784797,-0.199
1747851828050470943,-0.192
1747851828058157089,-0.182
1747851828065843235,-0.17200000000000001
1747851828073529381,-0.164
1747851828081215527,-0.16
1747851828088901673,-0.152
1747851828096587819,-0.147
1747851828104273965,-0.145
1747851828111960111,-0.14
1747851828119646286,-0.14
1747851828127332571,-0.14200000000000002
1747851828135018856,-0.14
1747851828142705141,-0.14
1747851828150391426,-0.14200000000000002
1747851828158077711,-0.145
1747851828165763996,-0.145
1747851828173450281,-0.145
1747851828181136566,-0.15
1747851828188822851,-0.155
1747851828196509136,-0.15
1747851828204195421,-0.135
1747851828211881706,-0.12
1747851828219567991,-0.11
1747851828227254276,-0.105
1747851828234940561,-0.088
1747851828242626846,-0.088
1747851828250313131,-0.123
1747851828257999416,-0.145
1747851828265685701,-0.132
1747851828273371986,-0.123
1747851828281058271,-0.123
1747851828288744556,-0.11800000000000001
1747851828296430841,-0.113
1747851828304117126,-0.115
1747851828311803411,-0.137
1747851828319489696,-0.187
1747851828327175981,-0.20600000000000002
1747851828334862266,0.039
1747851828342548551,0.676
1747851828350234836,1.435
1747851828357921121,1.681
1747851828365607406,0.728
1747851828373293691,-0.583
1747851828380979976,-0.62
1747851828388666261,-0.08600000000000001
1747851828396352546,-0.167
1747851828404038831,-0.29
1747851828411725116,-0.15
1747851828419411401,-0.132
1747851828427097686,-0.177
1747851828434783971,-0.128
1747851828442470256,-0.093
1747851828450156541,-0.098
1747851828457842826,-0.076
1747851828465529111,-0.046
1747851828473215396,-0.032
1747851828480901681,-0.012
1747851828488587966,0.009000000000000001
1747851828496274251,0.034
1747851828503960536,0.059000000000000004
1747851828511646821,0.08600000000000001
1747851828519333106,0.108
1747851828527019391,0.13
1747851828534705676,0.145
1747851828542391961,0.15
1747851828550078246,0.14200000000000002
1747851828557764531,0.125
1747851828565450816,0.1
1747851828573137101,0.076
1747851828580823386,0.049
1747851828588509671,0.017
1747851828596195956,-0.017
1747851828603882241,-0.056
1747851828611568526,-0.096
1747851828619254811,-0.132
1747851828626941096,-0.164
1747851828634627381,-0.189
1747851828642313666,-0.199
1747851828649999951,-0.199
1747851828657686236,-0.194
1747851828665372521,-0.187
1747851828673058806,-0.177
1747851828680745147,-0.167,90,649
1747851828688431432,-0.157
1747851828696117717,-0.152
1747851828703804002,-0.147
1747851828711490287,-0.14200000000000002
1747851828719176572,-0.14
1747851828726862857,-0.14
1747851828734549142,-0.137
1747851828742235427,-0.137
1747851828749921712,-0.137
1747851828757607997,-0.137
1747851828765294282,-0.137
1747851828772980567,-0.137
1747851828780666852,-0.137
1747851828788353137,-0.137
1747851828796039422,-0.135
1747851828803725707,-0.135
1747851828811411992,-0.14200000000000002
1747851828819098277,-0.145
1747851828826784562,-0.14
1747851828834470847,-0.125
1747851828842157132,-0.115
1747851828849843417,-0.108
1747851828857529702,-0.1
1747851828865215987,-0.08600000000000001
1747851828872902272,-0.08600000000000001
1747851828880588557,-0.115
1747851828888274842,-0.137
1747851828895961127,-0.132
1747851828903647412,-0.12
1747851828911333697,-0.123
1747851828919019982,-0.12
1747851828926706267,-0.113
1747851828934392552,-0.11800000000000001
1747851828942078837,-0.135
1747851828949765122,-0.17400000000000002
1747851828957451407,-0.209
1747851828965137692,-0.034
1747851828972823977,0.536
1747851828980510262,1.304
1747851828988196547,1.715
1747851828995882832,0.999
1747851829003569117,-0.396
1747851829011255402,-0.711
1747851829018941687,-0.15
1747851829026627972,-0.113
1747851829034314257,-0.292
1747851829042000542,-0.17400000000000002
1747851829049686827,-0.115
1747851829057373112,-0.17400000000000002
1747851829065059397,-0.14
1747851829072745682,-0.08600000000000001
1747851829080431967,-0.093
1747851829088118252,-0.08600000000000001
1747851829095804537,-0.054
1747851829103490822,-0.032
1747851829111177107,-0.012
1747851829118863392,0.012
1747851829126549677,0.032
1747851829134235962,0.059000000000000004
1747851829141922247,0.08600000000000001
1747851829149608532,0.108
1747851829157294817,0.13
1747851829164981102,0.15
1747851829172667387,0.155
1747851829180353672,0.14200000000000002
1747851829188039957,0.125
1747851829195726242,0.11
1747851829203412527,0.091
1747851829211098812,0.064
1747851829218785097,0.039
1747851829226471382,0.007
1747851829234157667,-0.036000000000000004
1747851829241844008,-0.078
1747851829249530293,-0.11
1747851829257216578,-0.15
1747851829264902863,-0.189
1747851829272589148,-0.20400000000000001
1747851829280275433,-0.201
1747851829287961718,-0.201
1747851829295648003,-0.196
1747851829303334288,-0.184
1747851829311020573,-0.179
1747851829318706858,-0.17200000000000001
1747851829326393143,-0.155
1747851829334079428,-0.14
1747851829341765713,-0.137
1747851829349451998,-0.137
1747851829357138283,-0.135
1747851829364824568,-0.137
1747851829372510853,-0.137
1747851829380197138,-0.137
1747851829387883423,-0.137
1747851829395569708,-0.137
1747851829403255993,-0.137
1747851829410942278,-0.132
1747851829418628563,-0.128
1747851829426314848,-0.132
1747851829434001133,-0.135
1747851829441687418,-0.13
1747851829449373703,-0.13
1747851829457059988,-0.132
1747851829464746273,-0.11800000000000001
1747851829472432558,-0.1
1747851829480118843,-0.098
1747851829487805128,-0.091
1747851829495491413,-0.081
1747851829503177698,-0.10300000000000001
1747851829510863983,-0.135
1747851829518550268,-0.137
1747851829526236553,-0.125
1747851829533922838,-0.123
1747851829541609123,-0.12
1747851829549295408,-0.113
1747851829556981693,-0.11800000000000001
1747851829564667978,-0.125
1747851829572354263,-0.145
1747851829580040548,-0.20400000000000001
1747851829587726833,-0.179
1747851829595413118,0.231
1747851829603099403,0.989
1747851829610785688,1.627
1747851829618471973,1.445
1747851829626158258,0.179
1747851829633844543,-0.758
1747851829641530828,-0.401
1747851829649217113,-0.051000000000000004
1747851829656903398,-0.241
1747851829664589683,-0.231
1747851829672275968,-0.105
1747851829679962253,-0.14200000000000002
1747851829687648538,-0.152
1747851829695334823,-0.091
1747851829703021108,-0.078
1747851829710707393,-0.083
1747851829718393678,-0.056
1747851829726079963,-0.029
1747851829733766248,-0.007
1747851829741452533,0.012
1747851829749138818,0.036000000000000004
1747851829756825103,0.064
1747851829764511388,0.091
1747851829772197673,0.108
1747851829779883958,0.128
1747851829787570243,0.152
1747851829795256528,0.17400000000000002
1747851829802942869,0.177,91,634
1747851829810629154,0.155,,625
1747851829818315439,0.13
1747851829826001724,0.105
1747851829833688009,0.076
1747851829841374294,0.044
1747851829849060579,0.012
1747851829856746864,-0.022
1747851829864433149,-0.059000000000000004
1747851829872119434,-0.105
1747851829879805719,-0.155
1747851829887492004,-0.189
1747851829895178289,-0.20600000000000002
1747851829902864574,-0.209
1747851829910550859,-0.20600000000000002
1747851829918237144,-0.20600000000000002
1747851829925923429,-0.199
1747851829933609714,-0.187
1747851829941295999,-0.177
1747851829948982284,-0.169
1747851829956668569,-0.157
1747851829964354854,-0.152
1747851829972041139,-0.15
1747851829979727424,-0.145
1747851829987413709,-0.14200000000000002
1747851829995099994,-0.137
1747851830002786279,-0.135
1747851830010472564,-0.14200000000000002
1747851830018158849,-0.145
1747851830025845134,-0.145
1747851830033531419,-0.145
1747851830041217704,-0.145
1747851830048903989,-0.147
1747851830056590274,-0.15
1747851830064276559,-0.145
1747851830071962844,-0.14
1747851830079649129,-0.13
1747851830087335414,-0.12
1747851830095021699,-0.115
1747851830102707984,-0.11
1747851830110394269,-0.096
1747851830118080554,-0.10300000000000001
1747851830125766839,-0.137
1747851830133453124,-0.155
1747851830141139409,-0.145
1747851830148825694,-0.14
1747851830156511979,-0.14
1747851830164198264,-0.135
1747851830171884549,-0.132
1747851830179570834,-0.145
1747851830187257119,-0.17200000000000001
1747851830194943404,-0.226
1747851830202629689,-0.214
1747851830210315974,0.15
1747851830218002259,0.893
1747851830225688544,1.56
1747851830233374829,1.462
1747851830241061114,0.27
1747851830248747399,-0.753
1747851830256433684,-0.489
1747851830264119969,-0.091
1747851830271806254,-0.251
1747851830279492539,-0.265
1747851830287178824,-0.135
1747851830294865109,-0.167
1747851830302551394,-0.184
1747851830310237679,-0.125
1747851830317923964,-0.108
1747851830325610249,-0.113
1747851830333296534,-0.083
1747851830340982819,-0.059000000000000004
1747851830348669104,-0.049
1747851830356355389,-0.027
1747851830364041734,-0.002
1747851830371728019,0.019
1747851830379414304,0.046
1747851830387100589,0.07100000000000001
1747851830394786874,0.091
1747851830402473159,0.11
1747851830410159444,0.123
1747851830417845729,0.11800000000000001
1747851830425532014,0.10300000000000001
1747851830433218299,0.081
1747851830440904584,0.056
1747851830448590869,0.029
1747851830456277154,0.0
1747851830463963439,-0.029
1747851830471649724,-0.066
1747851830479336009,-0.105
1747851830487022294,-0.145
1747851830494708579,-0.177
1747851830502394864,-0.20400000000000001
1747851830510081149,-0.221
1747851830517767434,-0.228
1747851830525453719,-0.226
1747851830533140004,-0.221
1747851830540826289,-0.211
1747851830548512574,-0.201
1747851830556198859,-0.194
1747851830563885144,-0.184
1747851830571571429,-0.179
1747851830579257714,-0.17200000000000001
1747851830586943999,-0.164
1747851830594630284,-0.16
1747851830602316569,-0.157
1747851830610002854,-0.155
1747851830617689139,-0.155
1747851830625375424,-0.155
1747851830633061709,-0.155
1747851830640747994,-0.155
1747851830648434279,-0.152
1747851830656120564,-0.152
1747851830663806849,-0.152
1747851830671493134,-0.152
1747851830679179419,-0.152
1747851830686865704,-0.16
1747851830694551989,-0.164
1747851830702238274,-0.157
1747851830709924559,-0.14200000000000002
1747851830717610844,-0.13
1747851830725297129,-0.12
1747851830732983414,-0.11
1747851830740669699,-0.096
1747851830748355984,-0.098
1747851830756042269,-0.128
1747851830763728554,-0.157
1747851830771414839,-0.152
1747851830779101124,-0.14
1747851830786787409,-0.14
1747851830794473694,-0.137
1747851830802159979,-0.132
1747851830809846264,-0.137
1747851830817532549,-0.155
1747851830825218834,-0.196
1747851830832905119,-0.216
1747851830840591404,0.022
1747851830848277689,0.647
1747851830855963974,1.4000000000000001
1747851830863650259,1.651
1747851830871336544,0.704
1747851830879022829,-0.6
1747851830886709114,-0.63
1747851830894395399,-0.091
1747851830902081684,-0.179
1747851830909767969,-0.317
1747851830917454254,-0.17400000000000002
1747851830925140595,-0.15,91,632
1747851830932826880,-0.199
1747851830940513165,-0.15
1747851830948199450,-0.113
1747851830955885735,-0.12
1747851830963572020,-0.1
1747851830971258305,-0.07100000000000001
1747851830978944590,-0.059000000000000004
1747851830986630875,-0.039
1747851830994317160,-0.012
1747851831002003445,0.012
1747851831009689730,0.034
1747851831017376015,0.064
1747851831025062300,0.091
1747851831032748585,0.113
1747851831040434870,0.128
1747851831048121155,0.135
1747851831055807440,0.128
1747851831063493725,0.108
1747851831071180010,0.08600000000000001
1747851831078866295,0.059000000000000004
1747851831086552580,0.027
1747851831094238865,-0.004
1747851831101925150,-0.046
1747851831109611435,-0.093
1747851831117297720,-0.14
1747851831124984005,-0.179
1747851831132670290,-0.209
1747851831140356575,-0.231
1747851831148042860,-0.23800000000000002
1747851831155729145,-0.23800000000000002
1747851831163415430,-0.233
1747851831171101715,-0.224
1747851831178788000,-0.214
1747851831186474285,-0.20400000000000001
1747851831194160570,-0.194
1747851831201846855,-0.189
1747851831209533140,-0.184
1747851831217219425,-0.179
1747851831224905710,-0.177
1747851831232591995,-0.17400000000000002
1747851831240278280,-0.17200000000000001
1747851831247964565,-0.17200000000000001
1747851831255650850,-0.17400000000000002
1747851831263337135,-0.17400000000000002
1747851831271023420,-0.17400000000000002
1747851831278709705,-0.17400000000000002
1747851831286395990,-0.17200000000000001
1747851831294082275,-0.17200000000000001
1747851831301768560,-0.169
1747851831309454845,-0.167
1747851831317141130,-0.164
1747851831324827415,-0.167
1747851831332513700,-0.17400000000000002
1747851831340199985,-0.17200000000000001
1747851831347886270,-0.16
1747851831355572555,-0.14200000000000002
1747851831363258840,-0.13
1747851831370945125,-0.12
1747851831378631410,-0.108
1747851831386317695,-0.108
1747851831394003980,-0.135
1747851831401690265,-0.162
1747851831409376550,-0.157
1747851831417062835,-0.145
1747851831424749120,-0.14200000000000002
1747851831432435405,-0.14
1747851831440121690,-0.132
1747851831447807975,-0.135
1747851831455494260,-0.15
1747851831463180545,-0.187
1747851831470866830,-0.219
1747851831478553115,-0.044
1747851831486239456,0.524
1747851831493925323,1.297
1747851831501611190,1.708
1747851831509297057,0.9520000000000001
1747851831516982924,-0.452
1747851831524668791,-0.721
1747851831532354658,-0.145
1747851831540040525,-0.13
1747851831547726392,-0.312
1747851831555412259,-0.192
1747851831563098126,-0.137
1747851831570783993,-0.192
1747851831578469860,-0.155
1747851831586155727,-0.108
1747851831593841594,-0.11
1747851831601527461,-0.093
1747851831609213328,-0.064
1747851831616899195,-0.049
1747851831624585062,-0.032
1747851831632270929,-0.007
1747851831639956796,0.017
1747851831647642663,0.041
1747851831655328530,0.07100000000000001
1747851831663014397,0.098
1747851831670700264,0.12
1747851831678386131,0.14
1747851831686071998,0.147
1747851831693757865,0.14
1747851831701443732,0.125
1747851831709129599,0.10300000000000001
1747851831716815466,0.076
1747851831724501333,0.044
1747851831732187200,0.012
1747851831739873067,-0.029
1747851831747558934,-0.076
1747851831755244801,-0.12
1747851831762930668,-0.162
1747851831770616535,-0.192
1747851831778302402,-0.214
1747851831785988269,-0.228
1747851831793674136,-0.228
1747851831801360003,-0.221
1747851831809045870,-0.214
1747851831816731737,-0.20600000000000002
1747851831824417604,-0.196
1747851831832103471,-0.189
1747851831839789338,-0.182
1747851831847475205,-0.17400000000000002
1747851831855161072,-0.167
1747851831862846939,-0.162
1747851831870532806,-0.16
1747851831878218673,-0.157
1747851831885904540,-0.155
1747851831893590407,-0.155
1747851831901276274,-0.155
1747851831908962141,-0.155
1747851831916648008,-0.155
1747851831924333875,-0.155
1747851831932019742,-0.155
1747851831939705609,-0.155
1747851831947391476,-0.152
1747851831955077343,-0.152
1747851831962763210,-0.147
1747851831970449077,-0.145
1747851831978134944,-0.145
1747851831985820811,-0.15
1747851831993506678,-0.147
1747851832001192545,-0.132
1747851832008878412,-0.11
1747851832016564279,-0.093
1747851832024250146,-0.083
1747851832031936013,-0.081
1747851832039621880,-0.088
1747851832047307799,-0.12,92,626
1747851832054994084,-0.147,,615
1747851832062680369,-0.145
1747851832070366654,-0.13
1747851832078052939,-0.13
1747851832085739224,-0.128
1747851832093425509,-0.12
1747851832101111794,-0.12
1747851832108798079,-0.135
1747851832116484364,-0.169
1747851832124170649,-0.221
1747851832131856934,-0.123
1747851832139543219,0.364
1747851832147229504,1.139
1747851832154915789,1.715
1747851832162602074,1.2530000000000001
1747851832170288359,-0.169
1747851832177974644,-0.782
1747851832185660929,-0.253
1747851832193347214,-0.078
1747851832201033499,-0.29
1747851832208719784,-0.219
1747851832216406069,-0.123
1747851832224092354,-0.177
1747851832231778639,-0.164
1747851832239464924,-0.108
1747851832247151209,-0.105
1747851832254837494,-0.098
1747851832262523779,-0.066
1747851832270210064,-0.049
1747851832277896349,-0.032
1747851832285582634,-0.007
1747851832293268919,0.017
1747851832300955204,0.041
1747851832308641489,0.068
1747851832316327774,0.096
1747851832324014059,0.115
1747851832331700344,0.135
1747851832339386629,0.147
1747851832347072914,0.145
1747851832354759199,0.13
1747851832362445484,0.105
1747851832370131769,0.078
1747851832377818054,0.049
1747851832385504339,0.017
1747851832393190624,-0.017
1747851832400876909,-0.061
1747851832408563194,-0.108
1747851832416249479,-0.147
1747851832423935764,-0.182
1747851832431622049,-0.209
1747851832439308334,-0.226
1747851832446994619,-0.231
1747851832454680904,-0.226
1747851832462367189,-0.216
1747851832470053474,-0.209
1747851832477739759,-0.201
1747851832485426044,-0.192
1747851832493112329,-0.182
1747851832500798614,-0.177
1747851832508484899,-0.17200000000000001
1747851832516171184,-0.167
1747851832523857469,-0.164
1747851832531543754,-0.162
1747851832539230039,-0.16
1747851832546916324,-0.16
1747851832554602609,-0.16
1747851832562288894,-0.16
1747851832569975179,-0.16
1747851832577661464,-0.162
1747851832585347749,-0.162
1747851832593034034,-0.162
1747851832600720319,-0.16
1747851832608406660,-0.16,94,633
1747851832616092945,-0.155,,640
1747851832623779230,-0.155
1747851832631465515,-0.152
1747851832639151800,-0.147
1747851832646838085,-0.145
1747851832654524370,-0.147
1747851832662210655,-0.15
1747851832669896940,-0.14
1747851832677583225,-0.11800000000000001
1747851832685269510,-0.098
1747851832692955795,-0.088
1747851832700642080,-0.083
1747851832708328365,-0.08600000000000001
1747851832716014650,-0.113
1747851832723700935,-0.147
1747851832731387220,-0.157
1747851832739073505,-0.14200000000000002
1747851832746759790,-0.135
1747851832754446075,-0.135
1747851832762132360,-0.13
1747851832769818645,-0.125
1747851832777504930,-0.13
1747851832785191215,-0.15
1747851832792877500,-0.199
1747851832800563785,-0.224
1747851832808250070,0.012
1747851832815936355,0.652
1747851832823622640,1.43
1747851832831308925,1.688
1747851832838995210,0.718
1747851832846681495,-0.6
1747851832854367780,-0.625
1747851832862054065,-0.096
1747851832869740350,-0.182
1747851832877426635,-0.3
1747851832885112920,-0.16
1747851832892799205,-0.145
1747851832900485490,-0.187
1747851832908171775,-0.137
1747851832915858060,-0.105
1747851832923544345,-0.108
1747851832931230630,-0.083
1747851832938916915,-0.054
1747851832946603200,-0.039
1747851832954289485,-0.019
1747851832961975770,0.007
1747851832969662055,0.029
1747851832977348340,0.051000000000000004
1747851832985034625,0.078
1747851832992720910,0.105
1747851833000407195,0.128
1747851833008093480,0.145
1747851833015779765,0.15
1747851833023466050,0.14200000000000002
1747851833031152335,0.125
1747851833038838620,0.1
1747851833046524905,0.07100000000000001
1747851833054211190,0.041
1747851833061897475,0.009000000000000001
1747851833069583760,-0.024
1747851833077270045,-0.068
1747851833084956330,-0.11
1747851833092642615,-0.147
1747851833100328900,-0.179
1747851833108015185,-0.20600000000000002
1747851833115701470,-0.219
1747851833123387755,-0.221
1747851833131074040,-0.216
1747851833138760325,-0.20600000000000002
1747851833146446610,-0.196
1747851833154132895,-0.189
1747851833161819180,-0.179
1747851833169505521,-0.169
1747851833177191806,-0.162
1747851833184878091,-0.16
1747851833192564376,-0.157
1747851833200250661,-0.155
1747851833207936946,-0.155
1747851833215623231,-0.152
1747851833223309516,-0.152
1747851833230995801,-0.152
1747851833238682086,-0.152
1747851833246368371,-0.155
1747851833254054656,-0.152
1747851833261740941,-0.152
1747851833269427226,-0.152
1747851833277113511,-0.15
1747851833284799796,-0.15
1747851833292486081,-0.15
1747851833300172366,-0.147
1747851833307858651,-0.14200000000000002
1747851833315544936,-0.14
1747851833323231221,-0.14
1747851833330917506,-0.137
1747851833338603791,-0.14
1747851833346290076,-0.14
1747851833353976361,-0.125
1747851833361662646,-0.096
1747851833369348931,-0.078
1747851833377035216,-0.076
1747851833384721501,-0.07100000000000001
1747851833392407786,-0.076
1747851833400094071,-0.108
1747851833407780356,-0.14
1747851833415466641,-0.14
1747851833423152926,-0.128
1747851833430839211,-0.125
1747851833438525496,-0.12
1747851833446211781,-0.113
1747851833453898066,-0.11
1747851833461584351,-0.12
1747851833469270636,-0.145
1747851833476956921,-0.20400000000000001
1747851833484643206,-0.20400000000000001
1747851833492329491,0.115
1747851833500015776,0.8170000000000001
1747851833507702061,1.565
1747851833515388346,1.629
1747851833523074631,0.46
1747851833530760916,-0.708
1747851833538447201,-0.507
1747851833546133486,-0.051000000000000004
1747851833553819771,-0.219
1747851833561506056,-0.273
1747851833569192341,-0.128
1747851833576878626,-0.147
1747851833584564911,-0.177
1747851833592251196,-0.113
1747851833599937481,-0.088
1747851833607623766,-0.096
1747851833615310051,-0.068
1747851833622996336,-0.039
1747851833630682621,-0.024
1747851833638368906,-0.002
1747851833646055191,0.024
1747851833653741476,0.049
1747851833661427761,0.076
1747851833669114046,0.108
1747851833676800331,0.135
1747851833684486616,0.15
1747851833692172901,0.167
1747851833699859186,0.182
1747851833707545471,0.17400000000000002
1747851833715231756,0.147
1747851833722918041,0.125
1747851833730604386,0.10300000000000001,94,655
1747851833738290393,0.076
1747851833745976400,0.041
1747851833753662407,-0.012
1747851833761348414,-0.061
1747851833769034421,-0.096
1747851833776720428,-0.137
1747851833784406435,-0.184
1747851833792092442,-0.20600000000000002
1747851833799778449,-0.221
1747851833807464456,-0.221
1747851833815150463,-0.216
1747851833822836470,-0.214
1747851833830522477,-0.20400000000000001
1747851833838208484,-0.192
1747851833845894491,-0.189
1747851833853580498,-0.182
1747851833861266505,-0.167
1747851833868952512,-0.152
1747851833876638519,-0.145
1747851833884324526,-0.145
1747851833892010533,-0.152
1747851833899696540,-0.152
1747851833907382547,-0.145
1747851833915068554,-0.152
1747851833922754561,-0.155
1747851833930440568,-0.145
1747851833938126575,-0.14200000000000002
1747851833945812582,-0.15
1747851833953498589,-0.15
1747851833961184596,-0.145
1747851833968870603,-0.145
1747851833976556610,-0.14
1747851833984242617,-0.135
1747851833991928624,-0.14200000000000002
1747851833999614631,-0.147
1747851834007300638,-0.14200000000000002
1747851834014986645,-0.13
1747851834022672652,-0.125
1747851834030358659,-0.123
1747851834038044666,-0.11
1747851834045730673,-0.088
1747851834053416680,-0.073
1747851834061102687,-0.064
1747851834068788694,-0.056
1747851834076474701,-0.07100000000000001
1747851834084160708,-0.10300000000000001
1747851834091846715,-0.128
1747851834099532722,-0.128
1747851834107218729,-0.113
1747851834114904736,-0.105
1747851834122590743,-0.11
1747851834130276750,-0.108
1747851834137962757,-0.098
1747851834145648764,-0.10300000000000001
1747851834153334771,-0.132
1747851834161020778,-0.189
1747851834168706785,-0.194
1747851834176392792,0.11800000000000001
1747851834184078799,0.834
1747851834191764806,1.558
1747851834199450813,1.609
1747851834207136820,0.512
1747851834214822827,-0.659
1747851834222508834,-0.536
1747851834230194841,-0.068
1747851834237880848,-0.194
1747851834245566855,-0.258
1747851834253252862,-0.11800000000000001
1747851834260938869,-0.12
1747851834268624876,-0.155
1747851834276310883,-0.1
1747851834283996890,-0.07100000000000001
1747851834291682903,-0.07100000000000001
1747851834299369049,-0.044
1747851834307055195,-0.014
1747851834314741341,-0.002
1747851834322427487,0.019
1747851834330113633,0.051000000000000004
1747851834337799779,0.078
1747851834345485925,0.10300000000000001
1747851834353172071,0.125
1747851834360858217,0.155
1747851834368544363,0.187
1747851834376230509,0.20600000000000002
1747851834383916655,0.20400000000000001
1747851834391602801,0.192
1747851834399288947,0.179
1747851834406975093,0.16
1747851834414661239,0.115
1747851834422347385,0.07100000000000001
1747851834430033531,0.041
1747851834437719677,-0.004
1747851834445405823,-0.061
1747851834453091969,-0.108
1747851834460778115,-0.155
1747851834468464261,-0.194
1747851834476150407,-0.214
1747851834483836553,-0.233
1747851834491522699,-0.23800000000000002
1747851834499208845,-0.228
1747851834506894991,-0.221
1747851834514581137,-0.219
1747851834522267283,-0.211
1747851834529953429,-0.196
1747851834537639575,-0.184
1747851834545325721,-0.179
1747851834553011867,-0.169
1747851834560698013,-0.16
1747851834568384159,-0.16
1747851834576070305,-0.16
1747851834583756451,-0.155
1747851834591442597,-0.157
1747851834599128743,-0.155
1747851834606814889,-0.152
1747851834614501035,-0.157
1747851834622187181,-0.164
1747851834629873327,-0.16
1747851834637559473,-0.162
1747851834645245619,-0.164
1747851834652931765,-0.16
1747851834660617911,-0.16
1747851834668304057,-0.157
1747851834675990203,-0.152
1747851834683676349,-0.155
1747851834691362495,-0.157
1747851834699048641,-0.15
1747851834706734787,-0.14
1747851834714420933,-0.128
1747851834722107079,-0.11
1747851834729793225,-0.1
1747851834737479371,-0.093
1747851834745165517,-0.096
1747851834752851663,-0.128
1747851834760537809,-0.155
1747851834768223955,-0.147
1747851834775910101,-0.132
1747851834783596247,-0.13
1747851834791282393,-0.128
1747851834798968539,-0.123
1747851834806654685,-0.125
1747851834814340831,-0.14200000000000002
1747851834822026977,-0.184
1747851834829713123,-0.228
1747851834837399269,-0.059000000000000004
1747851834845085415,0.541
1747851834852771590,1.309,93,674
1747851834860457875,1.6540000000000001,,683
1747851834868144160,0.913
1747851834875830445,-0.44
1747851834883516730,-0.745
1747851834891203015,-0.20400000000000001
1747851834898889300,-0.16
1747851834906575585,-0.317
1747851834914261870,-0.216
1747851834921948155,-0.182
1747851834929634440,-0.226
1747851834937320725,-0.189
1747851834945007010,-0.169
1747851834952693295,-0.182
1747851834960379580,-0.164
1747851834968065865,-0.145
1747851834975752150,-0.125
1747851834983438435,-0.078
1747851834991124720,-0.046
1747851834998811005,-0.039
1747851835006497290,-0.012
1747851835014183575,0.024
1747851835021869860,0.049
1747851835029556145,0.08600000000000001
1747851835037242430,0.12
1747851835044928715,0.125
1747851835052615000,0.12
1747851835060301285,0.11800000000000001
1747851835067987570,0.098
1747851835075673855,0.064
1747851835083360140,0.036000000000000004
1747851835091046425,0.009000000000000001
1747851835098732710,-0.041
1747851835106418995,-0.1
1747851835114105280,-0.14
1747851835121791565,-0.196
1747851835129477850,-0.251
1747851835137164135,-0.263
1747851835144850420,-0.263
1747851835152536705,-0.275
1747851835160222990,-0.263
1747851835167909275,-0.246
1747851835175595560,-0.246
1747851835183281845,-0.23800000000000002
1747851835190968130,-0.224
1747851835198654415,-0.214
1747851835206340700,-0.20600000000000002
1747851835214026985,-0.201
1747851835221713270,-0.199
1747851835229399555,-0.194
1747851835237085840,-0.187
1747851835244772125,-0.184
1747851835252458410,-0.184
1747851835260144695,-0.182
1747851835267830980,-0.179
1747851835275517265,-0.177
1747851835283203550,-0.17200000000000001
1747851835290889835,-0.17200000000000001
1747851835298576120,-0.17400000000000002
1747851835306262405,-0.17400000000000002
1747851835313948690,-0.17200000000000001
1747851835321634975,-0.164
1747851835329321260,-0.157
1747851835337007545,-0.162
1747851835344693830,-0.164
1747851835352380115,-0.157
1747851835360066400,-0.155
1747851835367752685,-0.157
1747851835375438970,-0.152
1747851835383125255,-0.14200000000000002
1747851835390811540,-0.125
1747851835398497825,-0.11
1747851835406184110,-0.096
1747851835413870451,-0.083
1747851835421556736,-0.088
1747851835429243021,-0.12
1747851835436929306,-0.14
1747851835444615591,-0.13
1747851835452301876,-0.12
1747851835459988161,-0.12
1747851835467674446,-0.115
1747851835475360731,-0.11
1747851835483047016,-0.115
1747851835490733301,-0.137
1747851835498419586,-0.199
1747851835506105871,-0.233
1747851835513792156,0.017
1747851835521478441,0.706
1747851835529164726,1.5310000000000001
1747851835536851011,1.799
1747851835544537296,0.834
1747851835552223581,-0.509
1747851835559909866,-0.627
1747851835567596151,-0.15
1747851835575282436,-0.20400000000000001
1747851835582968721,-0.297
1747851835590655006,-0.177
1747851835598341291,-0.162
1747851835606027576,-0.192
1747851835613713861,-0.14
1747851835621400146,-0.11
1747851835629086431,-0.11800000000000001
1747851835636772716,-0.1
1747851835644459001,-0.073
1747851835652145286,-0.059000000000000004
1747851835659831571,-0.034
1747851835667517856,-0.004
1747851835675204141,0.014
1747851835682890426,0.041
1747851835690576711,0.081
1747851835698262996,0.115
1747851835705949281,0.14
1747851835713635566,0.164
1747851835721321851,0.182
1747851835729008136,0.184
1747851835736694421,0.17400000000000002
1747851835744380706,0.152
1747851835752066991,0.125
1747851835759753276,0.096
1747851835767439561,0.046
1747851835775125846,-0.014
1747851835782812131,-0.07100000000000001
1747851835790498416,-0.125
1747851835798184701,-0.182
1747851835805870986,-0.219
1747851835813557271,-0.241
1747851835821243556,-0.256
1747851835828929841,-0.268
1747851835836616126,-0.258
1747851835844302411,-0.248
1747851835851988696,-0.251
1747851835859674981,-0.243
1747851835867361266,-0.224
1747851835875047551,-0.219
1747851835882733836,-0.219
1747851835890420121,-0.20600000000000002
1747851835898106406,-0.187
1747851835905792691,-0.182
1747851835913478976,-0.192
1747851835921165261,-0.189
1747851835928851546,-0.179
1747851835936537831,-0.17400000000000002
1747851835944224116,-0.177
1747851835951910401,-0.179
1747851835959596686,-0.182
1747851835967282971,-0.184
1747851835974969312,-0.182,92,685
1747851835982655179,-0.179
1747851835990341046,-0.179
1747851835998026913,-0.177
1747851836005712780,-0.169
1747851836013398647,-0.169
1747851836021084514,-0.179
1747851836028770381,-0.17400000000000002
1747851836036456248,-0.167
1747851836044142115,-0.169
1747851836051827982,-0.169
1747851836059513849,-0.167
1747851836067199716,-0.17200000000000001
1747851836074885583,-0.17200000000000001
1747851836082571450,-0.152
1747851836090257317,-0.128
1747851836097943184,-0.115
1747851836105629051,-0.113
1747851836113314918,-0.11
1747851836121000785,-0.11800000000000001
1747851836128686652,-0.14200000000000002
1747851836136372519,-0.162
1747851836144058386,-0.157
1747851836151744253,-0.15
1747851836159430120,-0.147
1747851836167115987,-0.14
1747851836174801854,-0.137
1747851836182487721,-0.14200000000000002
1747851836190173588,-0.164
1747851836197859455,-0.221
1747851836205545322,-0.278
1747851836213231189,-0.11800000000000001
1747851836220917056,0.452
1747851836228602923,1.2670000000000001
1747851836236288790,1.806
1747851836243974657,1.235
1747851836251660524,-0.20600000000000002
1747851836259346391,-0.743
1747851836267032258,-0.258
1747851836274718125,-0.152
1747851836282403992,-0.327
1747851836290089859,-0.233
1747851836297775726,-0.162
1747851836305461593,-0.211
1747851836313147460,-0.184
1747851836320833327,-0.135
1747851836328519194,-0.132
1747851836336205061,-0.11800000000000001
1747851836343890928,-0.081
1747851836351576795,-0.061
1747851836359262662,-0.041
1747851836366948529,-0.009000000000000001
1747851836374634396,0.019
1747851836382320263,0.046
1747851836390006130,0.081
1747851836397691997,0.12
1747851836405377864,0.155
1747851836413063731,0.184
1747851836420749598,0.20400000000000001
1747851836428435465,0.214
1747851836436121332,0.211
1747851836443807199,0.194
1747851836451493066,0.167
1747851836459178933,0.137
1747851836466864800,0.1
1747851836474550667,0.051000000000000004
1747851836482236534,-0.007
1747851836489922401,-0.066
1747851836497608268,-0.12
1747851836505294135,-0.164
1747851836512980002,-0.196
1747851836520665869,-0.214
1747851836528351736,-0.221
1747851836536037655,-0.224,92,663
1747851836543723940,-0.219
1747851836551410225,-0.209
1747851836559096510,-0.199
1747851836566782795,-0.192
1747851836574469080,-0.184
1747851836582155365,-0.17400000000000002
1747851836589841650,-0.169
1747851836597527935,-0.164
1747851836605214220,-0.16
1747851836612900505,-0.155
1747851836620586790,-0.155
1747851836628273075,-0.152
1747851836635959360,-0.15
1747851836643645645,-0.15
1747851836651331930,-0.15
1747851836659018215,-0.152
1747851836666704500,-0.152
1747851836674390785,-0.152
1747851836682077070,-0.155
1747851836689763355,-0.155
1747851836697449640,-0.155
1747851836705135925,-0.152
1747851836712822210,-0.15
1747851836720508495,-0.15
1747851836728194780,-0.147
1747851836735881065,-0.14200000000000002
1747851836743567350,-0.14
1747851836751253635,-0.137
1747851836758939920,-0.14
1747851836766626205,-0.14200000000000002
1747851836774312490,-0.14
1747851836781998775,-0.123
1747851836789685060,-0.1
1747851836797371345,-0.08600000000000001
1747851836805057630,-0.08600000000000001
1747851836812743915,-0.081
1747851836820430200,-0.088
1747851836828116485,-0.12
1747851836835802770,-0.147
1747851836843489055,-0.14
1747851836851175340,-0.13
1747851836858861625,-0.13
1747851836866547910,-0.128
1747851836874234195,-0.123
1747851836881920480,-0.123
1747851836889606765,-0.135
1747851836897293050,-0.164
1747851836904979335,-0.226
1747851836912665620,-0.216
1747851836920351905,0.125
1747851836928038190,0.846
1747851836935724475,1.619
1747851836943410760,1.725
1747851836951097045,0.558
1747851836958783330,-0.681
1747851836966469615,-0.539
1747851836974155900,-0.066
1747851836981842185,-0.231
1747851836989528470,-0.315
1747851836997214755,-0.164
1747851837004901040,-0.169
1747851837012587325,-0.209
1747851837020273610,-0.152
1747851837027959895,-0.125
1747851837035646180,-0.128
1747851837043332465,-0.10300000000000001
1747851837051018750,-0.073
1747851837058705035,-0.059000000000000004
1747851837066391320,-0.034
1747851837074077605,-0.004
1747851837081763890,0.019
1747851837089450175,0.049
1747851837097136520,0.08600000000000001
1747851837104822805,0.123
1747851837112509090,0.155
1747851837120195375,0.179
1747851837127881660,0.196
1747851837135567945,0.199
1747851837143254230,0.187
1747851837150940515,0.164
1747851837158626800,0.137
1747851837166313085,0.105
1747851837173999370,0.061
1747851837181685655,0.002
1747851837189371940,-0.061
1747851837197058225,-0.123
1747851837204744510,-0.17400000000000002
1747851837212430795,-0.211
1747851837220117080,-0.23600000000000002
1747851837227803365,-0.248
1747851837235489650,-0.251
1747851837243175935,-0.248
1747851837250862220,-0.23800000000000002
1747851837258548505,-0.226
1747851837266234790,-0.214
1747851837273921075,-0.20600000000000002
1747851837281607360,-0.196
1747851837289293645,-0.189
1747851837296979930,-0.184
1747851837304666215,-0.179
1747851837312352500,-0.177
1747851837320038785,-0.17400000000000002
1747851837327725070,-0.17200000000000001
1747851837335411355,-0.17200000000000001
1747851837343097640,-0.169
1747851837350783925,-0.169
1747851837358470210,-0.169
1747851837366156495,-0.169
1747851837373842780,-0.169
1747851837381529065,-0.167
1747851837389215350,-0.164
1747851837396901635,-0.164
1747851837404587920,-0.164
1747851837412274205,-0.162
1747851837419960490,-0.157
1747851837427646775,-0.157
1747851837435333060,-0.155
1747851837443019345,-0.152
1747851837450705630,-0.147
1747851837458391915,-0.14200000000000002
1747851837466078200,-0.14
1747851837473764485,-0.14
1747851837481450770,-0.14200000000000002
1747851837489137055,-0.137
1747851837496823340,-0.115
1747851837504509625,-0.096
1747851837512195910,-0.083
1747851837519882195,-0.081
1747851837527568480,-0.078
1747851837535254765,-0.096
1747851837542941050,-0.132
1747851837550627335,-0.147
1747851837558313620,-0.135
1747851837565999905,-0.13
1747851837573686190,-0.13
1747851837581372475,-0.123
1747851837589058760,-0.12
1747851837596745045,-0.125
1747851837604431330,-0.14
1747851837612117615,-0.187
1747851837619803900,-0.251
1747851837627490185,-0.15
1747851837635176470,0.34900000000000003
1747851837642862755,1.157
1747851837650549040,1.792
1747851837658235381,1.403,91,676
1747851837665921457,-0.041,,702
1747851837673607533,-0.78
1747851837681293609,-0.297
1747851837688979685,-0.08600000000000001
1747851837696665761,-0.302
1747851837704351837,-0.251
1747851837712037913,-0.145
1747851837719723989,-0.196
1747851837727410065,-0.187
1747851837735096141,-0.128
1747851837742782217,-0.123
1747851837750468293,-0.11800000000000001
1747851837758154369,-0.083
1747851837765840445,-0.064
1747851837773526521,-0.049
1747851837781212597,-0.022
1747851837788898673,0.007
1747851837796584749,0.034
1747851837804270825,0.066
1747851837811956901,0.1
1747851837819642977,0.132
1747851837827329053,0.164
1747851837835015129,0.189
1747851837842701205,0.199
1747851837850387281,0.194
1747851837858073357,0.179
1747851837865759433,0.155
1747851837873445509,0.123
1747851837881131585,0.088
1747851837888817661,0.041
1747851837896503737,-0.017
1747851837904189813,-0.081
1747851837911875889,-0.137
1747851837919561965,-0.184
1747851837927248041,-0.219
1747851837934934117,-0.241
1747851837942620193,-0.248
1747851837950306269,-0.251
1747851837957992345,-0.243
1747851837965678421,-0.233
1747851837973364497,-0.221
1747851837981050573,-0.211
1747851837988736649,-0.201
1747851837996422725,-0.192
1747851838004108801,-0.187
1747851838011794877,-0.179
1747851838019480953,-0.177
1747851838027167029,-0.17400000000000002
1747851838034853105,-0.17200000000000001
1747851838042539181,-0.167
1747851838050225257,-0.167
1747851838057911333,-0.167
1747851838065597409,-0.167
1747851838073283485,-0.167
1747851838080969561,-0.164
1747851838088655637,-0.164
1747851838096341713,-0.167
1747851838104027789,-0.164
1747851838111713865,-0.164
1747851838119399941,-0.164
1747851838127086017,-0.162
1747851838134772093,-0.16
1747851838142458169,-0.155
1747851838150144245,-0.152
1747851838157830321,-0.15
1747851838165516397,-0.147
1747851838173202473,-0.145
1747851838180888549,-0.14
1747851838188574625,-0.14200000000000002
1747851838196260701,-0.145
1747851838203946777,-0.137
1747851838211632853,-0.12
1747851838219318985,-0.098
1747851838227005061,-0.088
1747851838234691137,-0.083
1747851838242377213,-0.078
1747851838250063289,-0.091
1747851838257749365,-0.128
1747851838265435441,-0.147
1747851838273121517,-0.137
1747851838280807593,-0.13
1747851838288493669,-0.13
1747851838296179745,-0.128
1747851838303865821,-0.123
1747851838311551897,-0.123
1747851838319237973,-0.135
1747851838326924049,-0.17400000000000002
1747851838334610125,-0.243
1747851838342296201,-0.189
1747851838349982277,0.23600000000000002
1747851838357668353,1.004
1747851838365354429,1.718
1747851838373040505,1.57
1747851838380726581,0.221
1747851838388412657,-0.763
1747851838396098733,-0.403
1747851838403784809,-0.068
1747851838411470885,-0.275
1747851838419156961,-0.273
1747851838426843037,-0.14200000000000002
1747851838434529113,-0.182
1747851838442215189,-0.192
1747851838449901265,-0.13
1747851838457587341,-0.11800000000000001
1747851838465273417,-0.115
1747851838472959493,-0.083
1747851838480645569,-0.056
1747851838488331645,-0.039
1747851838496017721,-0.014
1747851838503703797,0.012
1747851838511389873,0.036000000000000004
1747851838519075949,0.068
1747851838526762025,0.098
1747851838534448101,0.128
1747851838542134177,0.162
1747851838549820253,0.189
1747851838557506329,0.196
1747851838565192405,0.194
1747851838572878481,0.184
1747851838580564557,0.167
1747851838588250633,0.135
1747851838595936709,0.098
1747851838603622785,0.061
1747851838611308861,0.007
1747851838618994937,-0.059000000000000004
1747851838626681013,-0.11800000000000001
1747851838634367089,-0.16
1747851838642053165,-0.192
1747851838649739241,-0.216
1747851838657425317,-0.231
1747851838665111393,-0.233
1747851838672797469,-0.228
1747851838680483545,-0.219
1747851838688169621,-0.209
1747851838695855697,-0.196
1747851838703541773,-0.189
1747851838711227849,-0.184
1747851838718913925,-0.177
1747851838726600001,-0.162
1747851838734286077,-0.157
1747851838741972153,-0.164
1747851838749658229,-0.162
1747851838757344305,-0.155
1747851838765030381,-0.152
1747851838772716457,-0.152
1747851838780402585,-0.15,90,703
1747851838788088870,-0.15
1747851838795775155,-0.152
1747851838803461440,-0.15
1747851838811147725,-0.147
1747851838818834010,-0.147
1747851838826520295,-0.145
1747851838834206580,-0.14200000000000002
1747851838841892865,-0.14
1747851838849579150,-0.137
1747851838857265435,-0.135
1747851838864951720,-0.132
1747851838872638005,-0.123
1747851838880324290,-0.12
1747851838888010575,-0.125
1747851838895696860,-0.11800000000000001
1747851838903383145,-0.108
1747851838911069430,-0.123
1747851838918755715,-0.132
1747851838926442000,-0.108
1747851838934128285,-0.076
1747851838941814570,-0.061
1747851838949500855,-0.059000000000000004
1747851838957187140,-0.056
1747851838964873425,-0.051000000000000004
1747851838972559710,-0.073
1747851838980245995,-0.11
1747851838987932280,-0.125
1747851838995618565,-0.11
1747851839003304850,-0.10300000000000001
1747851839010991135,-0.105
1747851839018677420,-0.10300000000000001
1747851839026363705,-0.091
1747851839034049990,-0.093
1747851839041736275,-0.115
1747851839049422560,-0.162
1747851839057108845,-0.214
1747851839064795130,-0.078
1747851839072481415,0.47700000000000004
1747851839080167700,1.297
1747851839087853985,1.824
1747851839095540270,1.23
1747851839103226555,-0.214
1747851839110912840,-0.721
1747851839118599125,-0.199
1747851839126285410,-0.096
1747851839133971695,-0.28300000000000003
1747851839141657980,-0.182
1747851839149344265,-0.11
1747851839157030550,-0.164
1747851839164716835,-0.14
1747851839172403120,-0.096
1747851839180089405,-0.096
1747851839187775690,-0.078
1747851839195461975,-0.044
1747851839203148260,-0.029
1747851839210834545,-0.009000000000000001
1747851839218520830,0.017
1747851839226207115,0.044
1747851839233893400,0.073
1747851839241579685,0.10300000000000001
1747851839249265970,0.132
1747851839256952255,0.164
1747851839264638540,0.189
1747851839272324825,0.20600000000000002
1747851839280011110,0.224
1747851839287697395,0.216
1747851839295383680,0.196
1747851839303069965,0.17400000000000002
1747851839310756250,0.14200000000000002
1747851839318442535,0.1
1747851839326128820,0.056
1747851839333815105,0.0
1747851839341501446,-0.07100000000000001
1747851839349187731,-0.132
1747851839356874016,-0.169
1747851839364560301,-0.201
1747851839372246586,-0.226
1747851839379932871,-0.23600000000000002
1747851839387619156,-0.233
1747851839395305441,-0.228
1747851839402991726,-0.224
1747851839410678011,-0.211
1747851839418364296,-0.199
1747851839426050581,-0.196
1747851839433736866,-0.189
1747851839441423151,-0.17400000000000002
1747851839449109436,-0.17400000000000002
1747851839456795721,-0.17400000000000002
1747851839464482006,-0.162
1747851839472168291,-0.155
1747851839479854576,-0.155
1747851839487540861,-0.157
1747851839495227146,-0.157
1747851839502913431,-0.155
1747851839510599716,-0.16
1747851839518286001,-0.157
1747851839525972286,-0.152
1747851839533658571,-0.157
1747851839541344856,-0.157
1747851839549031141,-0.152
1747851839556717426,-0.15
1747851839564403711,-0.15
1747851839572089996,-0.145
1747851839579776281,-0.14
1747851839587462566,-0.145
1747851839595148851,-0.14
1747851839602835136,-0.135
1747851839610521421,-0.135
1747851839618207706,-0.132
1747851839625893991,-0.13
1747851839633580276,-0.13
1747851839641266561,-0.11800000000000001
1747851839648952846,-0.096
1747851839656639131,-0.076
1747851839664325416,-0.073
1747851839672011701,-0.073
1747851839679697986,-0.081
1747851839687384271,-0.113
1747851839695070556,-0.14200000000000002
1747851839702756841,-0.14
1747851839710443126,-0.128
1747851839718129411,-0.123
1747851839725815696,-0.12
1747851839733501981,-0.113
1747851839741188266,-0.115
1747851839748874551,-0.128
1747851839756560836,-0.16
1747851839764247121,-0.228
1747851839771933406,-0.194
1747851839779619691,0.228
1747851839787305976,1.0110000000000001
1747851839794992261,1.708
1747851839802678546,1.548
1747851839810364831,0.226
1747851839818051116,-0.753
1747851839825737401,-0.40800000000000003
1747851839833423686,-0.073
1747851839841109971,-0.268
1747851839848796256,-0.258
1747851839856482541,-0.13
1747851839864168826,-0.17200000000000001
1747851839871855111,-0.184
1747851839879541396,-0.12
1747851839887227681,-0.11
1747851839894913966,-0.113
1747851839902600311,-0.078,89,712
1747851839910286178,-0.051000000000000004,,716
1747851839917972045,-0.041
1747851839925657912,-0.022
1747851839933343779,0.012
1747851839941029646,0.041
1747851839948715513,0.066
1747851839956401380,0.096
1747851839964087247,0.132
1747851839971773114,0.162
1747851839979458981,0.187
1747851839987144848,0.201
1747851839994830715,0.196
1747851840002516582,0.182
1747851840010202449,0.157
1747851840017888316,0.125
1747851840025574183,0.091
1747851840033260050,0.046
1747851840040945917,-0.012
1747851840048631784,-0.073
1747851840056317651,-0.135
1747851840064003518,-0.182
1747851840071689385,-0.216
1747851840079375252,-0.241
1747851840087061119,-0.251
1747851840094746986,-0.246
1747851840102432853,-0.243
1747851840110118720,-0.23800000000000002
1747851840117804587,-0.228
1747851840125490454,-0.219
1747851840133176321,-0.209
1747851840140862188,-0.201
1747851840148548055,-0.192
1747851840156233922,-0.184
1747851840163919789,-0.179
1747851840171605656,-0.177
1747851840179291523,-0.17200000000000001
1747851840186977390,-0.17200000000000001
1747851840194663257,-0.169
1747851840202349124,-0.167
1747851840210034991,-0.167
1747851840217720858,-0.169
1747851840225406725,-0.169
1747851840233092592,-0.167
1747851840240778459,-0.167
1747851840248464326,-0.169
1747851840256150193,-0.167
1747851840263836060,-0.164
1747851840271521927,-0.164
1747851840279207794,-0.16
1747851840286893661,-0.155
1747851840294579528,-0.155
1747851840302265395,-0.155
1747851840309951262,-0.147
1747851840317637129,-0.145
1747851840325322996,-0.145
1747851840333008863,-0.145
1747851840340694730,-0.147
1747851840348380597,-0.147
1747851840356066464,-0.137
1747851840363752331,-0.115
1747851840371438198,-0.1
1747851840379124065,-0.091
1747851840386809932,-0.088
1747851840394495799,-0.091
1747851840402181666,-0.113
1747851840409867533,-0.14200000000000002
1747851840417553400,-0.145
1747851840425239267,-0.137
1747851840432925134,-0.132
1747851840440611001,-0.13
1747851840448296868,-0.125
1747851840455982735,-0.125
1747851840463668654,-0.132
1747851840471354939,-0.162
1747851840479041224,-0.228
1747851840486727509,-0.226
1747851840494413794,0.1
1747851840502100079,0.8290000000000001
1747851840509786364,1.612
1747851840517472649,1.723
1747851840525158934,0.5630000000000001
1747851840532845219,-0.676
1747851840540531504,-0.544
1747851840548217789,-0.078
1747851840555904074,-0.233
1747851840563590359,-0.31
1747851840571276644,-0.164
1747851840578962929,-0.17400000000000002
1747851840586649214,-0.209
1747851840594335499,-0.15
1747851840602021784,-0.125
1747851840609708069,-0.13
1747851840617394354,-0.10300000000000001
1747851840625080639,-0.073
1747851840632766924,-0.059000000000000004
1747851840640453209,-0.036000000000000004
1747851840648139494,-0.009000000000000001
1747851840655825779,0.014
1747851840663512064,0.044
1747851840671198349,0.081
1747851840678884634,0.115
1747851840686570919,0.147
1747851840694257204,0.17400000000000002
1747851840701943489,0.192
1747851840709629774,0.196
1747851840717316059,0.184
1747851840725002344,0.164
1747851840732688629,0.137
1747851840740374914,0.10300000000000001
1747851840748061199,0.059000000000000004
1747851840755747484,0.002
1747851840763433769,-0.061
1747851840771120054,-0.12
1747851840778806339,-0.17200000000000001
1747851840786492624,-0.216
1747851840794178909,-0.243
1747851840801865194,-0.253
1747851840809551479,-0.258
1747851840817237764,-0.256
1747851840824924049,-0.246
1747851840832610334,-0.23600000000000002
1747851840840296619,-0.226
1747851840847982904,-0.216
1747851840855669189,-0.20600000000000002
1747851840863355474,-0.199
1747851840871041759,-0.196
1747851840878728044,-0.192
1747851840886414329,-0.187
1747851840894100614,-0.182
1747851840901786899,-0.182
1747851840909473184,-0.179
1747851840917159469,-0.177
1747851840924845754,-0.177
1747851840932532039,-0.177
1747851840940218324,-0.179
1747851840947904609,-0.17400000000000002
1747851840955590894,-0.17400000000000002
1747851840963277179,-0.17400000000000002
1747851840970963464,-0.177
1747851840978649749,-0.177
1747851840986336034,-0.17400000000000002
1747851840994022319,-0.17200000000000001
1747851841001708604,-0.169
1747851841009394889,-0.167
1747851841017081174,-0.162
1747851841024767515,-0.157,88,720
1747851841032453800,-0.155
1747851841040140085,-0.152
1747851841047826370,-0.147
1747851841055512655,-0.14200000000000002
1747851841063198940,-0.14200000000000002
1747851841070885225,-0.147
1747851841078571510,-0.147
1747851841086257795,-0.132
1747851841093944080,-0.11
1747851841101630365,-0.093
1747851841109316650,-0.091
1747851841117002935,-0.088
1747851841124689220,-0.093
1747851841132375505,-0.12
1747851841140061790,-0.152
1747851841147748075,-0.152
1747851841155434360,-0.137
1747851841163120645,-0.137
1747851841170806930,-0.135
1747851841178493215,-0.13
1747851841186179500,-0.128
1747851841193865785,-0.135
1747851841201552070,-0.16
1747851841209238355,-0.219
1747851841216924640,-0.23600000000000002
1747851841224610925,0.032
1747851841232297210,0.7010000000000001
1747851841239983495,1.499
1747851841247669780,1.7790000000000001
1747851841255356065,0.809
1747851841263042350,-0.558
1747851841270728635,-0.642
1747851841278414920,-0.11
1747851841286101205,-0.192
1747851841293787490,-0.324
1747851841301473775,-0.187
1747851841309160060,-0.164
1747851841316846345,-0.214
1747851841324532630,-0.167
1747851841332218915,-0.13
1747851841339905200,-0.137
1747851841347591485,-0.113
1747851841355277770,-0.081
1747851841362964055,-0.068
1747851841370650340,-0.051000000000000004
1747851841378336625,-0.019
1747851841386022910,0.007
1747851841393709195,0.034
1747851841401395480,0.068
1747851841409081765,0.1
1747851841416768050,0.135
1747851841424454335,0.167
1747851841432140620,0.184
1747851841439826905,0.189
1747851841447513190,0.184
1747851841455199475,0.164
1747851841462885760,0.137
1747851841470572045,0.108
1747851841478258330,0.068
1747851841485944615,0.014
1747851841493630900,-0.049
1747851841501317185,-0.11
1747851841509003470,-0.164
1747851841516689755,-0.20600000000000002
1747851841524376040,-0.23600000000000002
1747851841532062325,-0.256
1747851841539748610,-0.26
1747851841547434895,-0.258
1747851841555121180,-0.251
1747851841562807465,-0.241
1747851841570493750,-0.226
1747851841578180035,-0.219
1747851841585866376,-0.209,88,710
1747851841593552661,-0.199
1747851841601238946,-0.194
1747851841608925231,-0.189
1747851841616611516,-0.182
1747851841624297801,-0.182
1747851841631984086,-0.179
1747851841639670371,-0.177
1747851841647356656,-0.177
1747851841655042941,-0.177
1747851841662729226,-0.177
1747851841670415511,-0.17400000000000002
1747851841678101796,-0.17400000000000002
1747851841685788081,-0.177
1747851841693474366,-0.17400000000000002
1747851841701160651,-0.17200000000000001
1747851841708846936,-0.17200000000000001
1747851841716533221,-0.169
1747851841724219506,-0.169
1747851841731905791,-0.167
1747851841739592076,-0.164
1747851841747278361,-0.16
1747851841754964646,-0.157
1747851841762650931,-0.155
1747851841770337216,-0.152
1747851841778023501,-0.147
1747851841785709786,-0.145
1747851841793396071,-0.145
1747851841801082356,-0.15
1747851841808768641,-0.145
1747851841816454926,-0.128
1747851841824141211,-0.105
1747851841831827496,-0.093
1747851841839513781,-0.088
1747851841847200066,-0.08600000000000001
1747851841854886351,-0.1
1747851841862572636,-0.135
1747851841870258921,-0.152
1747851841877945206,-0.14200000000000002
1747851841885631491,-0.135
1747851841893317776,-0.135
1747851841901004061,-0.13
