time,ecg,hr,rr,marker
1748285766301803420,0.124,55
1748285766309490541,0.136
1748285766317177662,0.153
1748285766324864783,0.167
1748285766332551904,0.182
1748285766340239025,0.197
1748285766347926146,0.209
1748285766355613267,0.216
1748285766363300388,0.223
1748285766370987509,0.226
1748285766378674630,0.228
1748285766386361751,0.226
1748285766394048872,0.211
1748285766401735993,0.184
1748285766409423114,0.14300000000000002
1748285766417110235,0.092
1748285766424797356,0.038
1748285766432484477,-0.009000000000000001
1748285766440171598,-0.051000000000000004
1748285766447858719,-0.085
1748285766455545840,-0.107
1748285766463232961,-0.116
1748285766470920082,-0.121
1748285766478607203,-0.121
1748285766486294324,-0.11900000000000001
1748285766493981445,-0.114
1748285766501668566,-0.107
1748285766509355687,-0.10400000000000001
1748285766517042808,-0.099
1748285766524729929,-0.094
1748285766532417050,-0.092
1748285766540104171,-0.09
1748285766547791292,-0.08700000000000001
1748285766555478413,-0.09
1748285766563165534,-0.09
1748285766570852655,-0.08700000000000001
1748285766578539776,-0.09
1748285766586226897,-0.092
1748285766593914018,-0.092
1748285766601601139,-0.092
1748285766609288260,-0.092
1748285766616975381,-0.09
1748285766624662502,-0.08700000000000001
1748285766632349623,-0.085
1748285766640036744,-0.082
1748285766647723865,-0.08
1748285766655410986,-0.08
1748285766663098107,-0.08
1748285766670785228,-0.075
1748285766678472349,-0.07200000000000001
1748285766686159470,-0.07
1748285766693846591,-0.068
1748285766701533712,-0.065
1748285766709220833,-0.06
1748285766716907954,-0.058
1748285766724595075,-0.055
1748285766732282196,-0.053
1748285766739969317,-0.051000000000000004
1748285766747656438,-0.048
1748285766755343559,-0.046
1748285766763030680,-0.046
1748285766770717801,-0.043000000000000003
1748285766778404922,-0.041
1748285766786092043,-0.041
1748285766793779164,-0.038
1748285766801466285,-0.036000000000000004
1748285766809153406,-0.036000000000000004
1748285766816840527,-0.036000000000000004
1748285766824527648,-0.034
1748285766832214769,-0.034
1748285766839901890,-0.031
1748285766847589011,-0.031
1748285766855276132,-0.031
1748285766862963321,-0.029,56,1090
1748285766870650094,-0.026000000000000002
1748285766878336867,-0.026000000000000002
1748285766886023640,-0.024
1748285766893710413,-0.024
1748285766901397186,-0.024
1748285766909083959,-0.021
1748285766916770732,-0.021
1748285766924457505,-0.021
1748285766932144278,-0.019
1748285766939831051,-0.019
1748285766947517824,-0.019
1748285766955204597,-0.019
1748285766962891370,-0.017
1748285766970578143,-0.017
1748285766978264916,-0.017
1748285766985951689,-0.017
1748285766993638462,-0.014
1748285767001325235,-0.014
1748285767009012008,-0.014
1748285767016698781,-0.012
1748285767024385554,-0.009000000000000001
1748285767032072327,-0.009000000000000001
1748285767039759100,-0.009000000000000001
1748285767047445873,-0.009000000000000001
1748285767055132646,-0.009000000000000001
1748285767062819419,-0.009000000000000001
1748285767070506192,-0.007
1748285767078192965,-0.007
1748285767085879738,-0.009000000000000001
1748285767093566511,-0.017
1748285767101253284,-0.024
1748285767108940057,-0.021
1748285767116626830,-0.017
1748285767124313603,-0.002
1748285767132000376,0.012
1748285767139687149,0.017
1748285767147373922,0.026000000000000002
1748285767155060695,0.031
1748285767162747468,0.014
1748285767170434241,-0.009000000000000001
1748285767178121014,-0.009000000000000001
1748285767185807787,-0.007
1748285767193494560,-0.012
1748285767201181333,-0.012
1748285767208868106,-0.009000000000000001
1748285767216554879,-0.019
1748285767224241652,-0.068
1748285767231928425,-0.082
1748285767239615198,0.231
1748285767247301971,0.98
1748285767254988744,1.54
1748285767262675517,1.16
1748285767270362290,0.038
1748285767278049063,-0.608
1748285767285735836,-0.34500000000000003
1748285767293422609,-0.133
1748285767301109382,-0.216
1748285767308796155,-0.14300000000000002
1748285767316482928,-0.058
1748285767324169701,-0.099
1748285767331856474,-0.094
1748285767339543247,-0.051000000000000004
1748285767347230020,-0.053
1748285767354916793,-0.053
1748285767362603566,-0.034
1748285767370290339,-0.026000000000000002
1748285767377977112,-0.024
1748285767385663885,-0.012
1748285767393350658,-0.002
1748285767401037431,0.002
1748285767408724204,0.012
1748285767416410977,0.021
1748285767424097787,0.029
1748285767431784839,0.034
1748285767439471891,0.043000000000000003
1748285767447158943,0.053
1748285767454845995,0.063
1748285767462533047,0.07200000000000001
1748285767470220099,0.085
1748285767477907151,0.094
1748285767485594203,0.10400000000000001
1748285767493281255,0.116
1748285767500968307,0.126
1748285767508655359,0.136
1748285767516342411,0.15
1748285767524029463,0.16
1748285767531716515,0.167
1748285767539403567,0.17200000000000001
1748285767547090619,0.177
1748285767554777671,0.18
1748285767562464723,0.182
1748285767570151775,0.18
1748285767577838827,0.167
1748285767585525879,0.145
1748285767593212931,0.116
1748285767600899983,0.077
1748285767608587035,0.036000000000000004
1748285767616274087,-0.002
1748285767623961139,-0.036000000000000004
1748285767631648191,-0.063
1748285767639335243,-0.085
1748285767647022295,-0.094
1748285767654709347,-0.099
1748285767662396399,-0.10200000000000001
1748285767670083451,-0.10200000000000001
1748285767677770503,-0.099
1748285767685457555,-0.097
1748285767693144607,-0.094
1748285767700831659,-0.092
1748285767708518711,-0.092
1748285767716205763,-0.092
1748285767723892815,-0.092
1748285767731579867,-0.09
1748285767739266919,-0.09
1748285767746953971,-0.092
1748285767754641023,-0.092
1748285767762328075,-0.092
1748285767770015127,-0.092
1748285767777702179,-0.092
1748285767785389231,-0.09
1748285767793076283,-0.09
1748285767800763335,-0.09
1748285767808450387,-0.08700000000000001
1748285767816137439,-0.08700000000000001
1748285767823824491,-0.085
1748285767831511543,-0.082
1748285767839198595,-0.08
1748285767846885647,-0.077
1748285767854572699,-0.077
1748285767862259751,-0.075
1748285767869946803,-0.07200000000000001
1748285767877633855,-0.068
1748285767885320907,-0.068
1748285767893007959,-0.065
1748285767900695011,-0.06
1748285767908382063,-0.058
1748285767916069115,-0.055
1748285767923756167,-0.055
1748285767931443219,-0.053
1748285767939130271,-0.048
1748285767946817323,-0.048
1748285767954504375,-0.046
1748285767962191427,-0.043000000000000003
1748285767969878479,-0.043000000000000003
1748285767977565531,-0.041
1748285767985252597,-0.038,56,1201
1748285767992939718,-0.038
1748285768000626839,-0.041
1748285768008313960,-0.036000000000000004
1748285768016001081,-0.034
1748285768023688202,-0.031
1748285768031375323,-0.034
1748285768039062444,-0.031
1748285768046749565,-0.029
1748285768054436686,-0.026000000000000002
1748285768062123807,-0.029
1748285768069810928,-0.029
1748285768077498049,-0.026000000000000002
1748285768085185170,-0.024
1748285768092872291,-0.026000000000000002
1748285768100559412,-0.024
1748285768108246533,-0.021
1748285768115933654,-0.021
1748285768123620775,-0.021
1748285768131307896,-0.026000000000000002
1748285768138995017,-0.034
1748285768146682138,-0.036000000000000004
1748285768154369259,-0.031
1748285768162056380,-0.026000000000000002
1748285768169743501,-0.014
1748285768177430622,0.0
1748285768185117743,0.007
1748285768192804864,0.017
1748285768200491985,0.019
1748285768208179106,-0.002
1748285768215866227,-0.021
1748285768223553348,-0.021
1748285768231240469,-0.021
1748285768238927590,-0.024
1748285768246614711,-0.021
1748285768254301832,-0.021
1748285768261988953,-0.038
1748285768269676074,-0.08700000000000001
1748285768277363195,-0.041
1748285768285050316,0.418
1748285768292737437,1.202
1748285768300424558,1.506
1748285768308111679,0.768
1748285768315798800,-0.343
1748285768323485921,-0.625
1748285768331173042,-0.257
1748285768338860163,-0.17
1748285768346547284,-0.218
1748285768354234405,-0.097
1748285768361921526,-0.058
1748285768369608647,-0.10400000000000001
1748285768377295768,-0.075
1748285768384982889,-0.043000000000000003
1748285768392670010,-0.051000000000000004
1748285768400357131,-0.043000000000000003
1748285768408044252,-0.026000000000000002
1748285768415731373,-0.021
1748285768423418494,-0.014
1748285768431105615,-0.002
1748285768438792736,0.004
1748285768446479857,0.012
1748285768454166978,0.021
1748285768461854099,0.029
1748285768469541220,0.036000000000000004
1748285768477228341,0.048
1748285768484915462,0.055
1748285768492602583,0.063
1748285768500289704,0.07200000000000001
1748285768507976825,0.08
1748285768515663946,0.092
1748285768523351067,0.10400000000000001
1748285768531038188,0.114
1748285768538725309,0.126
1748285768546412494,0.138
1748285768554099615,0.148
1748285768561786736,0.16
1748285768569473857,0.17
1748285768577160978,0.177
1748285768584848099,0.182
1748285768592535220,0.182
1748285768600222341,0.18
1748285768607909462,0.18
1748285768615596583,0.17
1748285768623283704,0.145
1748285768630970825,0.114
1748285768638657946,0.07
1748285768646345067,0.021
1748285768654032188,-0.021
1748285768661719309,-0.055
1748285768669406430,-0.082
1748285768677093551,-0.107
1748285768684780672,-0.121
1748285768692467793,-0.124
1748285768700154914,-0.124
1748285768707842035,-0.124
1748285768715529156,-0.121
1748285768723216277,-0.121
1748285768730903398,-0.121
1748285768738590519,-0.116
1748285768746277640,-0.111
1748285768753964761,-0.109
1748285768761651882,-0.109
1748285768769339003,-0.107
1748285768777026124,-0.109
1748285768784713245,-0.109
1748285768792400366,-0.107
1748285768800087487,-0.107
1748285768807774608,-0.109
1748285768815461729,-0.111
1748285768823148850,-0.109
1748285768830835971,-0.107
1748285768838523092,-0.10400000000000001
1748285768846210213,-0.10400000000000001
1748285768853897334,-0.10200000000000001
1748285768861584455,-0.097
1748285768869271576,-0.092
1748285768876958697,-0.094
1748285768884645818,-0.092
1748285768892332939,-0.08700000000000001
1748285768900020060,-0.085
1748285768907707181,-0.09
1748285768915394302,-0.09
1748285768923081423,-0.08
1748285768930768544,-0.07200000000000001
1748285768938455665,-0.07200000000000001
1748285768946142786,-0.07
1748285768953829907,-0.065
1748285768961517028,-0.063
1748285768969204149,-0.063
1748285768976891270,-0.065
1748285768984578391,-0.06
1748285768992265512,-0.055
1748285768999952633,-0.053
1748285769007639754,-0.058
1748285769015326875,-0.058
1748285769023013996,-0.053
1748285769030701117,-0.051000000000000004
1748285769038388238,-0.053
1748285769046075359,-0.048
1748285769053762480,-0.041
1748285769061449601,-0.041
1748285769069136722,-0.041
1748285769076823843,-0.038
1748285769084510964,-0.038
1748285769092198085,-0.041
1748285769099885206,-0.041
1748285769107572391,-0.034,56,1095
1748285769115259443,-0.031
1748285769122946495,-0.029
1748285769130633547,-0.031
1748285769138320599,-0.031
1748285769146007651,-0.029
1748285769153694703,-0.029
1748285769161381755,-0.036000000000000004
1748285769169068807,-0.038
1748285769176755859,-0.034
1748285769184442911,-0.031
1748285769192129963,-0.026000000000000002
1748285769199817015,-0.009000000000000001
1748285769207504067,0.007
1748285769215191119,0.014
1748285769222878171,0.004
1748285769230565223,-0.014
1748285769238252275,-0.029
1748285769245939327,-0.029
1748285769253626379,-0.031
1748285769261313431,-0.029
1748285769269000483,-0.026000000000000002
1748285769276687535,-0.031
1748285769284374587,-0.048
1748285769292061639,-0.065
1748285769299748691,0.09
1748285769307435743,0.6910000000000001
1748285769315122795,1.401
1748285769322809847,1.289
1748285769330496899,0.189
1748285769338183951,-0.71
1748285769345871003,-0.581
1748285769353558055,-0.23800000000000002
1748285769361245107,-0.257
1748285769368932159,-0.194
1748285769376619211,-0.046
1748285769384306263,-0.068
1748285769391993315,-0.092
1748285769399680367,-0.038
1748285769407367419,-0.021
1748285769415054471,-0.029
1748285769422741523,-0.012
1748285769430428575,0.0
1748285769438115627,0.0
1748285769445802679,0.009000000000000001
1748285769453489731,0.019
1748285769461176783,0.026000000000000002
1748285769468863835,0.034
1748285769476550887,0.043000000000000003
1748285769484237939,0.053
1748285769491924991,0.06
1748285769499612043,0.07
1748285769507299095,0.077
1748285769514986147,0.08700000000000001
1748285769522673199,0.094
1748285769530360251,0.107
1748285769538047303,0.11900000000000001
1748285769545734355,0.128
1748285769553421407,0.138
1748285769561108459,0.158
1748285769568795511,0.17200000000000001
1748285769576482563,0.18
1748285769584169615,0.192
1748285769591856667,0.201
1748285769599543719,0.20600000000000002
1748285769607230771,0.20600000000000002
1748285769614917823,0.209
1748285769622604875,0.209
1748285769630291927,0.199
1748285769637978979,0.177
1748285769645666031,0.14100000000000001
1748285769653353083,0.09
1748285769661040135,0.031
1748285769668727205,-0.021
1748285769676413978,-0.063
1748285769684100751,-0.097
1748285769691787524,-0.11900000000000001
1748285769699474297,-0.133
1748285769707161070,-0.14300000000000002
1748285769714847843,-0.145
1748285769722534616,-0.14100000000000001
1748285769730221389,-0.136
1748285769737908162,-0.126
1748285769745594935,-0.11900000000000001
1748285769753281708,-0.11900000000000001
1748285769760968481,-0.11900000000000001
1748285769768655254,-0.111
1748285769776342027,-0.107
1748285769784028800,-0.107
1748285769791715573,-0.111
1748285769799402346,-0.116
1748285769807089119,-0.11900000000000001
1748285769814775892,-0.116
1748285769822462665,-0.121
1748285769830149438,-0.121
1748285769837836211,-0.121
1748285769845522984,-0.11900000000000001
1748285769853209757,-0.11900000000000001
1748285769860896530,-0.11900000000000001
1748285769868583303,-0.11900000000000001
1748285769876270076,-0.114
1748285769883956849,-0.111
1748285769891643622,-0.111
1748285769899330395,-0.111
1748285769907017168,-0.107
1748285769914703941,-0.10400000000000001
1748285769922390714,-0.10400000000000001
1748285769930077487,-0.10200000000000001
1748285769937764260,-0.097
1748285769945451033,-0.094
1748285769953137806,-0.092
1748285769960824579,-0.092
1748285769968511352,-0.09
1748285769976198125,-0.08700000000000001
1748285769983884898,-0.085
1748285769991571671,-0.08
1748285769999258444,-0.08
1748285770006945217,-0.08
1748285770014631990,-0.08
1748285770022318763,-0.077
1748285770030005536,-0.075
1748285770037692309,-0.075
1748285770045379082,-0.08
1748285770053065855,-0.08700000000000001
1748285770060752628,-0.09
1748285770068439401,-0.085
1748285770076126174,-0.077
1748285770083812947,-0.068
1748285770091499720,-0.053
1748285770099186493,-0.043000000000000003
1748285770106873266,-0.031
1748285770114560039,-0.036000000000000004
1748285770122246812,-0.063
1748285770129933585,-0.077
1748285770137620358,-0.075
1748285770145307131,-0.077
1748285770152993904,-0.077
1748285770160680677,-0.075
1748285770168367450,-0.077
1748285770176054223,-0.094
1748285770183740996,-0.136
1748285770191427769,-0.026000000000000002
1748285770199114542,0.532
1748285770206801315,1.287
1748285770214488088,1.343
1748285770222174861,0.36
1748285770229861667,-0.647,55,1180
1748285770237548858,-0.654
1748285770245236049,-0.279
1748285770252923240,-0.27
1748285770260610431,-0.255
1748285770268297622,-0.116
1748285770275984813,-0.116
1748285770283672004,-0.148
1748285770291359195,-0.109
1748285770299046386,-0.094
1748285770306733577,-0.10200000000000001
1748285770314420768,-0.09
1748285770322107959,-0.077
1748285770329795150,-0.075
1748285770337482341,-0.07
1748285770345169532,-0.063
1748285770352856723,-0.055
1748285770360543914,-0.046
1748285770368231105,-0.038
1748285770375918296,-0.034
1748285770383605487,-0.026000000000000002
1748285770391292678,-0.017
1748285770398979869,-0.009000000000000001
1748285770406667060,-0.002
1748285770414354251,0.007
1748285770422041442,0.017
1748285770429728633,0.029
1748285770437415824,0.041
1748285770445103015,0.053
1748285770452790206,0.065
1748285770460477397,0.082
1748285770468164588,0.094
1748285770475851779,0.10400000000000001
1748285770483538970,0.111
1748285770491226161,0.11900000000000001
1748285770498913352,0.11900000000000001
1748285770506600543,0.11900000000000001
1748285770514287734,0.11900000000000001
1748285770521974925,0.109
1748285770529662116,0.082
1748285770537349307,0.041
1748285770545036498,-0.007
1748285770552723689,-0.06
1748285770560410880,-0.111
1748285770568098071,-0.15
1748285770575785262,-0.182
1748285770583472453,-0.20400000000000001
1748285770591159644,-0.216
1748285770598846835,-0.218
1748285770606534026,-0.218
1748285770614221217,-0.216
1748285770621908408,-0.216
1748285770629595599,-0.211
1748285770637282790,-0.20600000000000002
1748285770644969981,-0.201
1748285770652657172,-0.199
1748285770660344363,-0.199
1748285770668031554,-0.197
1748285770675718745,-0.194
1748285770683405936,-0.194
1748285770691093127,-0.194
1748285770698780318,-0.194
1748285770706467509,-0.194
1748285770714154700,-0.192
1748285770721841891,-0.194
1748285770729529082,-0.194
1748285770737216273,-0.192
1748285770744903464,-0.189
1748285770752590655,-0.189
1748285770760277846,-0.189
1748285770767965037,-0.184
1748285770775652228,-0.18
1748285770783339419,-0.177
1748285770791026655,-0.17500000000000002,55,1043
1748285770798713846,-0.17500000000000002
1748285770806401037,-0.17
1748285770814088228,-0.165
1748285770821775419,-0.163
1748285770829462610,-0.163
1748285770837149801,-0.16
1748285770844836992,-0.155
1748285770852524183,-0.15
1748285770860211374,-0.15
1748285770867898565,-0.148
1748285770875585756,-0.14300000000000002
1748285770883272947,-0.138
1748285770890960138,-0.138
1748285770898647329,-0.145
1748285770906334520,-0.15
1748285770914021711,-0.15
1748285770921708902,-0.14300000000000002
1748285770929396093,-0.131
1748285770937083284,-0.114
1748285770944770475,-0.10400000000000001
1748285770952457666,-0.094
1748285770960144857,-0.082
1748285770967832048,-0.092
1748285770975519239,-0.116
1748285770983206430,-0.121
1748285770990893621,-0.116
1748285770998580812,-0.11900000000000001
1748285771006268003,-0.11900000000000001
1748285771013955194,-0.111
1748285771021642385,-0.114
1748285771029329576,-0.14100000000000001
1748285771037016767,-0.18
1748285771044703958,-0.007
1748285771052391149,0.647
1748285771060078340,1.379
1748285771067765531,1.272
1748285771075452722,0.177
1748285771083139913,-0.72
1748285771090827104,-0.5760000000000001
1748285771098514295,-0.23600000000000002
1748285771106201486,-0.28200000000000003
1748285771113888677,-0.243
1748285771121575868,-0.121
1748285771129263059,-0.14300000000000002
1748285771136950250,-0.16
1748285771144637441,-0.111
1748285771152324632,-0.10400000000000001
1748285771160011823,-0.109
1748285771167699014,-0.09
1748285771175386205,-0.077
1748285771183073396,-0.075
1748285771190760587,-0.065
1748285771198447778,-0.053
1748285771206134969,-0.046
1748285771213822160,-0.036000000000000004
1748285771221509351,-0.026000000000000002
1748285771229196542,-0.017
1748285771236883733,-0.007
1748285771244570924,0.004
1748285771252258115,0.017
1748285771259945306,0.029
1748285771267632497,0.038
1748285771275319688,0.051000000000000004
1748285771283006879,0.063
1748285771290694070,0.08
1748285771298381261,0.094
1748285771306068452,0.109
1748285771313755643,0.124
1748285771321442834,0.136
1748285771329130025,0.145
1748285771336817216,0.153
1748285771344504407,0.158
1748285771352191639,0.16
1748285771359878621,0.163
1748285771367565603,0.16
1748285771375252585,0.148
1748285771382939567,0.124
1748285771390626549,0.08
1748285771398313531,0.029
1748285771406000513,-0.019
1748285771413687495,-0.063
1748285771421374477,-0.10200000000000001
1748285771429061459,-0.128
1748285771436748441,-0.14300000000000002
1748285771444435423,-0.153
1748285771452122405,-0.155
1748285771459809387,-0.155
1748285771467496369,-0.158
1748285771475183351,-0.155
1748285771482870333,-0.148
1748285771490557315,-0.145
1748285771498244297,-0.14300000000000002
1748285771505931279,-0.14100000000000001
1748285771513618261,-0.138
1748285771521305243,-0.138
1748285771528992225,-0.138
1748285771536679207,-0.138
1748285771544366189,-0.136
1748285771552053171,-0.136
1748285771559740153,-0.136
1748285771567427135,-0.136
1748285771575114117,-0.136
1748285771582801099,-0.136
1748285771590488081,-0.133
1748285771598175063,-0.131
1748285771605862045,-0.126
1748285771613549027,-0.124
1748285771621236009,-0.11900000000000001
1748285771628922991,-0.11900000000000001
1748285771636609973,-0.116
1748285771644296955,-0.111
1748285771651983937,-0.109
1748285771659670919,-0.107
1748285771667357901,-0.10200000000000001
1748285771675044883,-0.097
1748285771682731865,-0.094
1748285771690418847,-0.09
1748285771698105829,-0.085
1748285771705792811,-0.082
1748285771713479793,-0.08
1748285771721166775,-0.077
1748285771728853757,-0.082
1748285771736540739,-0.09
1748285771744227721,-0.09
1748285771751914703,-0.085
1748285771759601685,-0.07200000000000001
1748285771767288667,-0.051000000000000004
1748285771774975649,-0.034
1748285771782662631,-0.026000000000000002
1748285771790349613,-0.017
1748285771798036595,-0.021
1748285771805723577,-0.051000000000000004
1748285771813410559,-0.065
1748285771821097541,-0.063
1748285771828784523,-0.06
1748285771836471505,-0.058
1748285771844158487,-0.053
1748285771851845469,-0.053
1748285771859532451,-0.07200000000000001
1748285771867219433,-0.109
1748285771874906415,0.014
1748285771882593397,0.605
1748285771890280379,1.369
1748285771897967361,1.367
1748285771905654343,0.313
1748285771913341362,-0.6880000000000001,55,1021
1748285771921028483,-0.644,,894
1748285771928715604,-0.248
1748285771936402725,-0.233
1748285771944089846,-0.211
1748285771951776967,-0.07
1748285771959464088,-0.068
1748285771967151209,-0.099
1748285771974838330,-0.053
1748285771982525451,-0.029
1748285771990212572,-0.041
1748285771997899693,-0.031
1748285772005586814,-0.017
1748285772013273935,-0.007
1748285772020961056,0.002
1748285772028648177,0.009000000000000001
1748285772036335298,0.017
1748285772044022419,0.026000000000000002
1748285772051709540,0.034
1748285772059396661,0.043000000000000003
1748285772067083782,0.058
1748285772074770903,0.065
1748285772082458024,0.07
1748285772090145145,0.085
1748285772097832266,0.097
1748285772105519387,0.107
1748285772113206508,0.11900000000000001
1748285772120893629,0.133
1748285772128580750,0.15
1748285772136267871,0.163
1748285772143954992,0.177
1748285772151642113,0.194
1748285772159329234,0.209
1748285772167016355,0.216
1748285772174703476,0.216
1748285772182390597,0.218
1748285772190077718,0.221
1748285772197764839,0.218
1748285772205451960,0.201
1748285772213139081,0.165
1748285772220826202,0.121
1748285772228513323,0.065
1748285772236200444,0.014
1748285772243887565,-0.029
1748285772251574686,-0.068
1748285772259261807,-0.099
1748285772266948928,-0.114
1748285772274636049,-0.11900000000000001
1748285772282323170,-0.11900000000000001
1748285772290010291,-0.124
1748285772297697412,-0.124
1748285772305384533,-0.11900000000000001
1748285772313071654,-0.114
1748285772320758775,-0.111
1748285772328445896,-0.111
1748285772336133017,-0.109
1748285772343820138,-0.107
1748285772351507259,-0.109
1748285772359194380,-0.111
1748285772366881501,-0.109
1748285772374568622,-0.111
1748285772382255743,-0.114
1748285772389942864,-0.116
1748285772397629985,-0.114
1748285772405317106,-0.111
1748285772413004227,-0.107
1748285772420691348,-0.109
1748285772428378469,-0.109
1748285772436065590,-0.107
1748285772443752711,-0.10200000000000001
1748285772451439832,-0.099
1748285772459126953,-0.097
1748285772466814074,-0.092
1748285772474501259,-0.09
1748285772482188311,-0.09
1748285772489875363,-0.085
1748285772497562415,-0.082
1748285772505249467,-0.08
1748285772512936519,-0.077
1748285772520623571,-0.07200000000000001
1748285772528310623,-0.07
1748285772535997675,-0.07
1748285772543684727,-0.07200000000000001
1748285772551371779,-0.075
1748285772559058831,-0.07
1748285772566745883,-0.065
1748285772574432935,-0.055
1748285772582119987,-0.041
1748285772589807039,-0.029
1748285772597494091,-0.019
1748285772605181143,-0.009000000000000001
1748285772612868195,-0.026000000000000002
1748285772620555247,-0.051000000000000004
1748285772628242299,-0.053
1748285772635929351,-0.051000000000000004
1748285772643616403,-0.055
1748285772651303455,-0.053
1748285772658990507,-0.046
1748285772666677559,-0.048
1748285772674364611,-0.068
1748285772682051663,-0.06
1748285772689738715,0.218
1748285772697425767,0.9390000000000001
1748285772705112819,1.472
1748285772712799871,0.912
1748285772720486923,-0.338
1748285772728173975,-0.863
1748285772735861027,-0.481
1748285772743548079,-0.262
1748285772751235131,-0.301
1748285772758922183,-0.138
1748285772766609235,-0.017
1748285772774296287,-0.063
1748285772781983339,-0.055
1748285772789670391,-0.007
1748285772797357443,-0.009000000000000001
1748285772805044495,-0.009000000000000001
1748285772812731547,0.012
1748285772820418599,0.019
1748285772828105651,0.021
1748285772835792703,0.031
1748285772843479755,0.043000000000000003
1748285772851166807,0.051000000000000004
1748285772858853859,0.058
1748285772866540911,0.068
1748285772874227963,0.075
1748285772881915015,0.085
1748285772889602067,0.094
1748285772897289119,0.10200000000000001
1748285772904976171,0.111
1748285772912663223,0.121
1748285772920350275,0.131
1748285772928037327,0.145
1748285772935724379,0.16
1748285772943411431,0.17500000000000002
1748285772951098483,0.189
1748285772958785535,0.20400000000000001
1748285772966472587,0.216
1748285772974159639,0.226
1748285772981846691,0.233
1748285772989533743,0.23800000000000002
1748285772997220795,0.245
1748285773004907847,0.25
1748285773012594899,0.24
1748285773020281951,0.209
1748285773027969003,0.155
1748285773035656073,0.094,56,853
1748285773043343682,0.036000000000000004
1748285773051031291,-0.017
1748285773058718900,-0.063
1748285773066406509,-0.092
1748285773074094118,-0.111
1748285773081781727,-0.121
1748285773089469336,-0.124
1748285773097156945,-0.121
1748285773104844554,-0.116
1748285773112532163,-0.109
1748285773120219772,-0.10200000000000001
1748285773127907381,-0.099
1748285773135594990,-0.097
1748285773143282599,-0.094
1748285773150970208,-0.094
1748285773158657817,-0.097
1748285773166345426,-0.099
1748285773174033035,-0.099
1748285773181720644,-0.10200000000000001
1748285773189408253,-0.10400000000000001
1748285773197095862,-0.10400000000000001
1748285773204783471,-0.107
1748285773212471080,-0.10400000000000001
1748285773220158689,-0.10400000000000001
1748285773227846298,-0.10200000000000001
1748285773235533907,-0.10200000000000001
1748285773243221516,-0.099
1748285773250909125,-0.097
1748285773258596734,-0.094
1748285773266284343,-0.092
1748285773273971952,-0.092
1748285773281659561,-0.08700000000000001
1748285773289347170,-0.085
1748285773297034779,-0.082
1748285773304722388,-0.08
1748285773312409997,-0.077
1748285773320097606,-0.075
1748285773327785215,-0.07200000000000001
1748285773335472824,-0.07
1748285773343160433,-0.068
1748285773350848042,-0.065
1748285773358535651,-0.063
1748285773366223260,-0.06
1748285773373910869,-0.058
1748285773381598478,-0.055
1748285773389286087,-0.055
1748285773396973696,-0.051000000000000004
1748285773404661305,-0.051000000000000004
1748285773412348914,-0.048
1748285773420036523,-0.046
1748285773427724132,-0.048
1748285773435411741,-0.058
1748285773443099350,-0.06
1748285773450786959,-0.055
1748285773458474568,-0.051000000000000004
1748285773466162177,-0.034
1748285773473849786,-0.014
1748285773481537395,-0.009000000000000001
1748285773489225004,-0.004
1748285773496912613,0.004
1748285773504600222,-0.012
1748285773512287831,-0.038
1748285773519975440,-0.041
1748285773527663049,-0.036000000000000004
1748285773535350658,-0.036000000000000004
1748285773543038267,-0.036000000000000004
1748285773550725876,-0.034
1748285773558413485,-0.041
1748285773566101094,-0.085
1748285773573788703,-0.107
1748285773581476312,0.189
1748285773589163921,0.961
1748285773596851573,1.562
1748285773604537928,1.155
1748285773612224283,-0.036000000000000004
1748285773619910638,-0.683
1748285773627596993,-0.372
1748285773635283348,-0.145
1748285773642969703,-0.23600000000000002
1748285773650656058,-0.153
1748285773658342413,-0.06
1748285773666028768,-0.107
1748285773673715123,-0.10200000000000001
1748285773681401478,-0.058
1748285773689087833,-0.063
1748285773696774188,-0.063
1748285773704460543,-0.041
1748285773712146898,-0.034
1748285773719833253,-0.031
1748285773727519608,-0.019
1748285773735205963,-0.009000000000000001
1748285773742892318,-0.002
1748285773750578673,0.004
1748285773758265028,0.012
1748285773765951383,0.019
1748285773773637738,0.029
1748285773781324093,0.038
1748285773789010448,0.046
1748285773796696803,0.055
1748285773804383158,0.068
1748285773812069513,0.077
1748285773819755868,0.085
1748285773827442223,0.097
1748285773835128578,0.109
1748285773842814933,0.11900000000000001
1748285773850501288,0.131
1748285773858187643,0.14100000000000001
1748285773865873998,0.148
1748285773873560353,0.155
1748285773881246708,0.16
1748285773888933063,0.165
1748285773896619418,0.17
1748285773904305773,0.17
1748285773911992128,0.158
1748285773919678483,0.133
1748285773927364838,0.097
1748285773935051193,0.051000000000000004
1748285773942737548,0.007
1748285773950423903,-0.029
1748285773958110258,-0.06
1748285773965796613,-0.08700000000000001
1748285773973482968,-0.107
1748285773981169323,-0.114
1748285773988855678,-0.11900000000000001
1748285773996542033,-0.121
1748285774004228388,-0.11900000000000001
1748285774011914743,-0.116
1748285774019601098,-0.116
1748285774027287453,-0.116
1748285774034973808,-0.114
1748285774042660163,-0.114
1748285774050346518,-0.111
1748285774058032873,-0.109
1748285774065719228,-0.109
1748285774073405583,-0.109
1748285774081091938,-0.111
1748285774088778293,-0.109
1748285774096464648,-0.109
1748285774104151003,-0.111
1748285774111837358,-0.109
1748285774119523713,-0.107
1748285774127210068,-0.107
1748285774134896423,-0.107
1748285774142582778,-0.107
1748285774150269133,-0.10400000000000001
1748285774157955523,-0.10200000000000001,57,831
1748285774165642575,-0.099
1748285774173329627,-0.099
1748285774181016679,-0.097
1748285774188703731,-0.092
1748285774196390783,-0.09
1748285774204077835,-0.08700000000000001
1748285774211764887,-0.085
1748285774219451939,-0.082
1748285774227138991,-0.08
1748285774234826043,-0.075
1748285774242513095,-0.07200000000000001
1748285774250200147,-0.07
1748285774257887199,-0.068
1748285774265574251,-0.065
1748285774273261303,-0.063
1748285774280948355,-0.06
1748285774288635407,-0.06
1748285774296322459,-0.058
1748285774304009511,-0.055
1748285774311696563,-0.053
1748285774319383615,-0.053
1748285774327070667,-0.053
1748285774334757719,-0.051000000000000004
1748285774342444771,-0.048
1748285774350131823,-0.048
1748285774357818875,-0.048
1748285774365505927,-0.046
1748285774373192979,-0.043000000000000003
1748285774380880031,-0.043000000000000003
1748285774388567083,-0.043000000000000003
1748285774396254135,-0.041
1748285774403941187,-0.038
1748285774411628239,-0.038
1748285774419315291,-0.038
1748285774427002343,-0.036000000000000004
1748285774434689395,-0.036000000000000004
1748285774442376447,-0.036000000000000004
1748285774450063499,-0.036000000000000004
1748285774457750551,-0.034
1748285774465437603,-0.031
1748285774473124655,-0.031
1748285774480811707,-0.031
1748285774488498759,-0.031
1748285774496185811,-0.029
1748285774503872863,-0.029
1748285774511559915,-0.026000000000000002
1748285774519246967,-0.026000000000000002
1748285774526934019,-0.026000000000000002
1748285774534621071,-0.029
1748285774542308123,-0.034
1748285774549995175,-0.038
1748285774557682227,-0.038
1748285774565369279,-0.034
1748285774573056331,-0.019
1748285774580743383,-0.002
1748285774588430435,0.002
1748285774596117487,0.009000000000000001
1748285774603804539,0.014
1748285774611491591,-0.007
1748285774619178643,-0.029
1748285774626865695,-0.029
1748285774634552747,-0.026000000000000002
1748285774642239799,-0.031
1748285774649926851,-0.029
1748285774657613903,-0.026000000000000002
1748285774665300955,-0.038
1748285774672988007,-0.09
1748285774680675059,-0.10400000000000001
1748285774688362111,0.233
1748285774696049163,1.0190000000000001
1748285774703736215,1.552
1748285774711423267,1.063
1748285774719110333,-0.109
1748285774726797454,-0.664
1748285774734484575,-0.338
1748285774742171696,-0.155
1748285774749858817,-0.24
1748285774757545938,-0.145
1748285774765233059,-0.07
1748285774772920180,-0.11900000000000001
1748285774780607301,-0.107
1748285774788294422,-0.063
1748285774795981543,-0.068
1748285774803668664,-0.065
1748285774811355785,-0.046
1748285774819042906,-0.041
1748285774826730027,-0.036000000000000004
1748285774834417148,-0.021
1748285774842104269,-0.014
1748285774849791390,-0.007
1748285774857478511,0.002
1748285774865165632,0.009000000000000001
1748285774872852753,0.017
1748285774880539874,0.024
1748285774888226995,0.031
1748285774895914116,0.041
1748285774903601237,0.051000000000000004
1748285774911288358,0.06
1748285774918975479,0.068
1748285774926662600,0.075
1748285774934349721,0.082
1748285774942036842,0.09
1748285774949723963,0.097
1748285774957411084,0.107
1748285774965098205,0.116
1748285774972785326,0.124
1748285774980472447,0.128
1748285774988159568,0.128
1748285774995846689,0.133
1748285775003533810,0.14100000000000001
1748285775011220931,0.148
1748285775018908052,0.145
1748285775026595173,0.136
1748285775034282294,0.116
1748285775041969415,0.082
1748285775049656536,0.043000000000000003
1748285775057343657,0.004
1748285775065030778,-0.029
1748285775072717899,-0.058
1748285775080405020,-0.08
1748285775088092141,-0.094
1748285775095779262,-0.10200000000000001
1748285775103466383,-0.109
1748285775111153504,-0.111
1748285775118840625,-0.109
1748285775126527746,-0.109
1748285775134214867,-0.111
1748285775141901988,-0.111
1748285775149589109,-0.107
1748285775157276230,-0.10400000000000001
1748285775164963351,-0.107
1748285775172650472,-0.107
1748285775180337593,-0.107
1748285775188024714,-0.107
1748285775195711835,-0.111
1748285775203398956,-0.111
1748285775211086077,-0.107
1748285775218773198,-0.107
1748285775226460319,-0.109
1748285775234147440,-0.109
1748285775241834561,-0.107
1748285775249521682,-0.109
1748285775257208803,-0.107
1748285775264895924,-0.10200000000000001
1748285775272583045,-0.10200000000000001
1748285775280270230,-0.10200000000000001,59,812
1748285775287957351,-0.099
1748285775295644472,-0.094
1748285775303331593,-0.094
1748285775311018714,-0.09
1748285775318705835,-0.085
1748285775326392956,-0.082
1748285775334080077,-0.082
1748285775341767198,-0.082
1748285775349454319,-0.082
1748285775357141440,-0.08
1748285775364828561,-0.07200000000000001
1748285775372515682,-0.068
1748285775380202803,-0.065
1748285775387889924,-0.068
1748285775395577045,-0.068
1748285775403264166,-0.065
1748285775410951287,-0.063
1748285775418638408,-0.063
1748285775426325529,-0.058
1748285775434012650,-0.053
1748285775441699771,-0.053
1748285775449386892,-0.055
1748285775457074013,-0.053
1748285775464761134,-0.051000000000000004
1748285775472448255,-0.053
1748285775480135376,-0.051000000000000004
1748285775487822497,-0.048
1748285775495509618,-0.048
1748285775503196739,-0.043000000000000003
1748285775510883860,-0.038
1748285775518570981,-0.038
1748285775526258102,-0.043000000000000003
1748285775533945223,-0.043000000000000003
1748285775541632344,-0.041
1748285775549319465,-0.036000000000000004
1748285775557006586,-0.034
1748285775564693707,-0.036000000000000004
1748285775572380828,-0.041
1748285775580067949,-0.043000000000000003
1748285775587755070,-0.043000000000000003
1748285775595442191,-0.043000000000000003
1748285775603129312,-0.041
1748285775610816433,-0.026000000000000002
1748285775618503554,-0.007
1748285775626190675,0.002
1748285775633877796,0.012
1748285775641564917,0.0
1748285775649252038,-0.031
1748285775656939159,-0.043000000000000003
1748285775664626280,-0.034
1748285775672313401,-0.034
1748285775680000522,-0.036000000000000004
1748285775687687643,-0.031
1748285775695374764,-0.034
1748285775703061885,-0.055
1748285775710749006,-0.092
1748285775718436127,0.077
1748285775726123248,0.725
1748285775733810369,1.433
1748285775741497490,1.262
1748285775749184611,0.14100000000000001
1748285775756871732,-0.708
1748285775764558853,-0.54
1748285775772245974,-0.216
1748285775779933095,-0.253
1748285775787620216,-0.192
1748285775795307337,-0.053
1748285775802994458,-0.07200000000000001
1748285775810681579,-0.094
1748285775818368700,-0.048
1748285775826055821,-0.034
1748285775833742942,-0.038
1748285775841430127,-0.017,60,893
1748285775849117179,-0.007
1748285775856804231,-0.007
1748285775864491283,0.0
1748285775872178335,0.012
1748285775879865387,0.019
1748285775887552439,0.024
1748285775895239491,0.031
1748285775902926543,0.041
1748285775910613595,0.048
1748285775918300647,0.055
1748285775925987699,0.065
1748285775933674751,0.075
1748285775941361803,0.082
1748285775949048855,0.094
1748285775956735907,0.109
1748285775964422959,0.121
1748285775972110011,0.133
1748285775979797063,0.14300000000000002
1748285775987484115,0.158
1748285775995171167,0.17
1748285776002858219,0.17500000000000002
1748285776010545271,0.18
1748285776018232323,0.187
1748285776025919375,0.189
1748285776033606427,0.189
1748285776041293479,0.189
1748285776048980531,0.18
1748285776056667583,0.148
1748285776064354635,0.10400000000000001
1748285776072041687,0.053
1748285776079728739,0.002
1748285776087415791,-0.043000000000000003
1748285776095102843,-0.077
1748285776102789895,-0.10400000000000001
1748285776110476947,-0.126
1748285776118163999,-0.138
1748285776125851051,-0.14100000000000001
1748285776133538103,-0.138
1748285776141225155,-0.133
1748285776148912207,-0.126
1748285776156599259,-0.121
1748285776164286311,-0.116
1748285776171973363,-0.109
1748285776179660415,-0.107
1748285776187347467,-0.10400000000000001
1748285776195034519,-0.107
1748285776202721571,-0.109
1748285776210408623,-0.111
1748285776218095675,-0.114
1748285776225782727,-0.116
1748285776233469779,-0.121
1748285776241156831,-0.124
1748285776248843883,-0.124
1748285776256530935,-0.121
1748285776264217987,-0.124
1748285776271905039,-0.126
1748285776279592091,-0.121
1748285776287279143,-0.11900000000000001
1748285776294966195,-0.11900000000000001
1748285776302653247,-0.11900000000000001
1748285776310340299,-0.114
1748285776318027351,-0.109
1748285776325714403,-0.10400000000000001
1748285776333401455,-0.10200000000000001
1748285776341088507,-0.10200000000000001
1748285776348775559,-0.099
1748285776356462611,-0.097
1748285776364149663,-0.092
1748285776371836715,-0.08700000000000001
1748285776379523767,-0.08700000000000001
1748285776387210819,-0.085
1748285776394897871,-0.08
1748285776402584941,-0.077
1748285776410271714,-0.075
1748285776417958487,-0.07200000000000001
1748285776425645260,-0.068
1748285776433332033,-0.068
1748285776441018806,-0.068
1748285776448705579,-0.065
1748285776456392352,-0.063
1748285776464079125,-0.06
1748285776471765898,-0.06
1748285776479452671,-0.058
1748285776487139444,-0.055
1748285776494826217,-0.053
1748285776502512990,-0.053
1748285776510199763,-0.051000000000000004
1748285776517886536,-0.048
1748285776525573309,-0.051000000000000004
1748285776533260082,-0.055
1748285776540946855,-0.058
1748285776548633628,-0.053
1748285776556320401,-0.048
1748285776564007174,-0.036000000000000004
1748285776571693947,-0.021
1748285776579380720,-0.014
1748285776587067493,-0.002
1748285776594754266,0.002
1748285776602441039,-0.021
1748285776610127812,-0.043000000000000003
1748285776617814585,-0.041
1748285776625501358,-0.041
1748285776633188131,-0.043000000000000003
1748285776640874904,-0.038
1748285776648561677,-0.038
1748285776656248450,-0.048
1748285776663935223,-0.085
1748285776671621996,-0.08700000000000001
1748285776679308769,0.245
1748285776686995542,1.014
1748285776694682315,1.518
1748285776702369088,0.975
1748285776710055861,-0.211
1748285776717742634,-0.729
1748285776725429407,-0.379
1748285776733116180,-0.189
1748285776740802953,-0.25
1748285776748489726,-0.138
1748285776756176499,-0.058
1748285776763863272,-0.10400000000000001
1748285776771550045,-0.09
1748285776779236818,-0.048
1748285776786923591,-0.053
1748285776794610364,-0.051000000000000004
1748285776802297137,-0.034
1748285776809983910,-0.026000000000000002
1748285776817670683,-0.021
1748285776825357456,-0.012
1748285776833044229,-0.004
1748285776840731002,0.002
1748285776848417775,0.012
1748285776856104548,0.019
1748285776863791321,0.026000000000000002
1748285776871478094,0.036000000000000004
1748285776879164867,0.043000000000000003
1748285776886851640,0.055
1748285776894538413,0.065
1748285776902225186,0.075
1748285776909911959,0.08700000000000001
1748285776917598732,0.099
1748285776925285505,0.109
1748285776932972278,0.124
1748285776940659051,0.14100000000000001
1748285776948345824,0.155
1748285776956032597,0.165
1748285776963719403,0.17500000000000002,61,1106
1748285776971406873,0.182
1748285776979094343,0.187
1748285776986781813,0.189
1748285776994469283,0.192
1748285777002156753,0.184
1748285777009844223,0.165
1748285777017531693,0.128
1748285777025219163,0.082
1748285777032906633,0.029
1748285777040594103,-0.021
1748285777048281573,-0.068
1748285777055969043,-0.10200000000000001
1748285777063656513,-0.126
1748285777071343983,-0.14100000000000001
1748285777079031453,-0.145
1748285777086718923,-0.148
1748285777094406393,-0.148
1748285777102093863,-0.14100000000000001
1748285777109781333,-0.133
1748285777117468803,-0.131
1748285777125156273,-0.128
1748285777132843743,-0.124
1748285777140531213,-0.11900000000000001
1748285777148218683,-0.116
1748285777155906153,-0.114
1748285777163593623,-0.114
1748285777171281093,-0.116
1748285777178968563,-0.116
1748285777186656033,-0.116
1748285777194343503,-0.116
1748285777202030973,-0.116
1748285777209718443,-0.116
1748285777217405913,-0.116
1748285777225093383,-0.114
1748285777232780853,-0.114
1748285777240468323,-0.111
1748285777248155793,-0.109
1748285777255843263,-0.107
1748285777263530733,-0.10400000000000001
1748285777271218203,-0.10200000000000001
1748285777278905673,-0.099
1748285777286593143,-0.094
1748285777294280613,-0.092
1748285777301968083,-0.09
1748285777309655553,-0.09
1748285777317343023,-0.085
1748285777325030493,-0.082
1748285777332717963,-0.082
1748285777340405433,-0.08
1748285777348092903,-0.075
1748285777355780373,-0.07200000000000001
1748285777363467843,-0.07200000000000001
1748285777371155313,-0.07
1748285777378842783,-0.068
1748285777386530253,-0.065
1748285777394217723,-0.063
1748285777401905193,-0.063
1748285777409592663,-0.06
1748285777417280133,-0.06
1748285777424967603,-0.058
1748285777432655073,-0.055
1748285777440342543,-0.055
1748285777448030013,-0.055
1748285777455717483,-0.051000000000000004
1748285777463404953,-0.048
1748285777471092423,-0.048
1748285777478779893,-0.048
1748285777486467363,-0.046
1748285777494154833,-0.046
1748285777501842303,-0.043000000000000003
1748285777509529773,-0.041
1748285777517217243,-0.041
1748285777524904736,-0.041
1748285777532591509,-0.038
1748285777540278282,-0.036000000000000004
1748285777547965055,-0.036000000000000004
1748285777555651828,-0.036000000000000004
1748285777563338601,-0.034
1748285777571025374,-0.031
1748285777578712147,-0.031
1748285777586398920,-0.034
1748285777594085693,-0.031
1748285777601772466,-0.031
1748285777609459239,-0.036000000000000004
1748285777617146012,-0.046
1748285777624832785,-0.048
1748285777632519558,-0.043000000000000003
1748285777640206331,-0.034
1748285777647893104,-0.017
1748285777655579877,-0.004
1748285777663266650,-0.002
1748285777670953423,0.009000000000000001
1748285777678640196,0.004
1748285777686326969,-0.021
1748285777694013742,-0.036000000000000004
1748285777701700515,-0.034
1748285777709387288,-0.034
1748285777717074061,-0.036000000000000004
1748285777724760834,-0.034
1748285777732447607,-0.036000000000000004
1748285777740134380,-0.063
1748285777747821153,-0.11900000000000001
1748285777755507926,-0.009000000000000001
1748285777763194699,0.5710000000000001
1748285777770881472,1.357
1748285777778568245,1.479
1748285777786255018,0.542
1748285777793941791,-0.498
1748285777801628564,-0.552
1748285777809315337,-0.187
1748285777817002110,-0.197
1748285777824688883,-0.216
1748285777832375656,-0.092
1748285777840062429,-0.092
1748285777847749202,-0.124
1748285777855435975,-0.082
1748285777863122748,-0.065
1748285777870809521,-0.07200000000000001
1748285777878496294,-0.06
1748285777886183067,-0.043000000000000003
1748285777893869840,-0.041
1748285777901556613,-0.034
1748285777909243386,-0.021
1748285777916930159,-0.014
1748285777924616932,-0.007
1748285777932303705,0.002
1748285777939990478,0.012
1748285777947677251,0.021
1748285777955364024,0.029
1748285777963050797,0.036000000000000004
1748285777970737570,0.046
1748285777978424343,0.055
1748285777986111116,0.065
1748285777993797889,0.075
1748285778001484662,0.08700000000000001
1748285778009171435,0.097
1748285778016858208,0.10400000000000001
1748285778024544981,0.116
1748285778032231754,0.128
1748285778039918527,0.138
1748285778047605300,0.145
1748285778055292073,0.15
1748285778062978846,0.153
1748285778070665619,0.155
1748285778078352392,0.158
1748285778086039201,0.153,61,1032
1748285778093726322,0.138
1748285778101413443,0.111
1748285778109100564,0.075
1748285778116787685,0.034
1748285778124474806,-0.009000000000000001
1748285778132161927,-0.046
1748285778139849048,-0.077
1748285778147536169,-0.10200000000000001
1748285778155223290,-0.11900000000000001
1748285778162910411,-0.126
1748285778170597532,-0.128
1748285778178284653,-0.128
1748285778185971774,-0.128
1748285778193658895,-0.124
1748285778201346016,-0.121
1748285778209033137,-0.11900000000000001
1748285778216720258,-0.114
1748285778224407379,-0.111
1748285778232094500,-0.109
1748285778239781621,-0.109
1748285778247468742,-0.109
1748285778255155863,-0.109
1748285778262842984,-0.111
1748285778270530105,-0.111
1748285778278217226,-0.109
1748285778285904347,-0.111
1748285778293591468,-0.111
1748285778301278589,-0.111
1748285778308965710,-0.109
1748285778316652831,-0.107
1748285778324339952,-0.107
1748285778332027073,-0.10400000000000001
1748285778339714194,-0.10400000000000001
1748285778347401315,-0.10200000000000001
1748285778355088436,-0.099
1748285778362775557,-0.097
1748285778370462678,-0.094
1748285778378149799,-0.09
1748285778385836920,-0.08700000000000001
1748285778393524041,-0.08700000000000001
1748285778401211162,-0.085
1748285778408898283,-0.085
1748285778416585404,-0.08
1748285778424272525,-0.075
1748285778431959646,-0.07200000000000001
1748285778439646767,-0.07200000000000001
1748285778447333888,-0.07200000000000001
1748285778455021009,-0.07
1748285778462708130,-0.068
1748285778470395251,-0.063
1748285778478082372,-0.06
1748285778485769493,-0.06
1748285778493456614,-0.06
1748285778501143735,-0.058
1748285778508830856,-0.055
1748285778516517977,-0.053
1748285778524205098,-0.051000000000000004
1748285778531892219,-0.048
1748285778539579340,-0.051000000000000004
1748285778547266461,-0.051000000000000004
1748285778554953582,-0.046
1748285778562640703,-0.043000000000000003
1748285778570327824,-0.043000000000000003
1748285778578014945,-0.041
1748285778585702066,-0.041
1748285778593389187,-0.041
1748285778601076308,-0.038
1748285778608763429,-0.038
1748285778616450550,-0.041
1748285778624137671,-0.038
1748285778631824792,-0.036000000000000004
1748285778639511913,-0.034
1748285778647199098,-0.034
1748285778654886080,-0.034
1748285778662573062,-0.031
1748285778670260044,-0.029
1748285778677947026,-0.029
1748285778685634008,-0.034
1748285778693320990,-0.034
1748285778701007972,-0.031
1748285778708694954,-0.026000000000000002
1748285778716381936,-0.026000000000000002
1748285778724068918,-0.029
1748285778731755900,-0.026000000000000002
1748285778739442882,-0.026000000000000002
1748285778747129864,-0.031
1748285778754816846,-0.026000000000000002
1748285778762503828,-0.019
1748285778770190810,-0.019
1748285778777877792,-0.024
1748285778785564774,-0.024
1748285778793251756,-0.024
1748285778800938738,-0.029
1748285778808625720,-0.034
1748285778816312702,-0.031
1748285778823999684,-0.029
1748285778831686666,-0.019
1748285778839373648,-0.002
1748285778847060630,0.007
1748285778854747612,0.012
1748285778862434594,0.019
1748285778870121576,0.004
1748285778877808558,-0.021
1748285778885495540,-0.029
1748285778893182522,-0.024
1748285778900869504,-0.026000000000000002
1748285778908556486,-0.029
1748285778916243468,-0.024
1748285778923930450,-0.031
1748285778931617432,-0.07
1748285778939304414,-0.08700000000000001
1748285778946991396,0.197
1748285778954678378,0.931
1748285778962365360,1.5150000000000001
1748285778970052342,1.121
1748285778977739324,-0.043000000000000003
1748285778985426306,-0.7000000000000001
1748285778993113288,-0.41300000000000003
1748285779000800270,-0.17200000000000001
1748285779008487252,-0.245
1748285779016174234,-0.155
1748285779023861216,-0.053
1748285779031548198,-0.097
1748285779039235180,-0.097
1748285779046922162,-0.048
1748285779054609144,-0.046
1748285779062296126,-0.051000000000000004
1748285779069983108,-0.031
1748285779077670090,-0.024
1748285779085357072,-0.019
1748285779093044054,-0.009000000000000001
1748285779100731036,-0.002
1748285779108418018,0.004
1748285779116105000,0.014
1748285779123791982,0.024
1748285779131478964,0.029
1748285779139165946,0.038
1748285779146852928,0.046
1748285779154539910,0.051000000000000004
1748285779162226892,0.063
1748285779169913874,0.075
1748285779177600856,0.09
1748285779185287838,0.097
1748285779192974820,0.107
1748285779200661802,0.11900000000000001
1748285779208348825,0.131,61,958
1748285779216036016,0.14300000000000002
1748285779223723207,0.155
1748285779231410398,0.16
1748285779239097589,0.16
1748285779246784780,0.163
1748285779254471971,0.17
1748285779262159162,0.17500000000000002
1748285779269846353,0.17200000000000001
1748285779277533544,0.163
1748285779285220735,0.145
1748285779292907926,0.109
1748285779300595117,0.063
1748285779308282308,0.017
1748285779315969499,-0.024
1748285779323656690,-0.063
1748285779331343881,-0.092
1748285779339031072,-0.111
1748285779346718263,-0.121
1748285779354405454,-0.126
1748285779362092645,-0.128
1748285779369779836,-0.126
1748285779377467027,-0.121
1748285779385154218,-0.116
1748285779392841409,-0.114
1748285779400528600,-0.109
1748285779408215791,-0.10400000000000001
1748285779415902982,-0.10400000000000001
1748285779423590173,-0.107
1748285779431277364,-0.107
1748285779438964555,-0.107
1748285779446651746,-0.109
1748285779454338937,-0.111
1748285779462026128,-0.116
1748285779469713319,-0.11900000000000001
1748285779477400510,-0.11900000000000001
1748285779485087701,-0.11900000000000001
1748285779492774892,-0.11900000000000001
1748285779500462083,-0.11900000000000001
1748285779508149274,-0.11900000000000001
1748285779515836465,-0.114
1748285779523523656,-0.114
1748285779531210847,-0.111
1748285779538898038,-0.109
1748285779546585229,-0.10400000000000001
1748285779554272420,-0.10200000000000001
1748285779561959611,-0.10200000000000001
1748285779569646802,-0.099
1748285779577333993,-0.094
1748285779585021184,-0.092
1748285779592708375,-0.08700000000000001
1748285779600395566,-0.08700000000000001
1748285779608082757,-0.085
1748285779615769948,-0.08
1748285779623457139,-0.077
1748285779631144330,-0.075
1748285779638831521,-0.07200000000000001
1748285779646518712,-0.07
1748285779654205903,-0.07
1748285779661893094,-0.068
1748285779669580285,-0.065
1748285779677267476,-0.063
1748285779684954667,-0.06
1748285779692641858,-0.058
1748285779700329049,-0.058
1748285779708016240,-0.055
1748285779715703431,-0.053
1748285779723390622,-0.053
1748285779731077813,-0.051000000000000004
1748285779738765004,-0.051000000000000004
1748285779746452195,-0.046
1748285779754139386,-0.043000000000000003
1748285779761826577,-0.046
1748285779769513809,-0.043000000000000003,61
1748285779777201000,-0.041
1748285779784888191,-0.041
1748285779792575382,-0.041
1748285779800262573,-0.038
1748285779807949764,-0.034
1748285779815636955,-0.034
1748285779823324146,-0.034
1748285779831011337,-0.031
1748285779838698528,-0.031
1748285779846385719,-0.029
1748285779854072910,-0.029
1748285779861760101,-0.029
1748285779869447292,-0.029
1748285779877134483,-0.029
1748285779884821674,-0.029
1748285779892508865,-0.026000000000000002
1748285779900196056,-0.026000000000000002
1748285779907883247,-0.026000000000000002
1748285779915570438,-0.024
1748285779923257629,-0.024
1748285779930944820,-0.031
1748285779938632011,-0.036000000000000004
1748285779946319202,-0.036000000000000004
1748285779954006393,-0.034
1748285779961693584,-0.026000000000000002
1748285779969380775,-0.012
1748285779977067966,0.0
1748285779984755157,0.004
1748285779992442348,0.014
1748285780000129539,0.002
1748285780007816730,-0.024
1748285780015503921,-0.031
1748285780023191112,-0.029
1748285780030878303,-0.034
1748285780038565494,-0.031
1748285780046252685,-0.026000000000000002
1748285780053939876,-0.031
1748285780061627067,-0.065
1748285780069314258,-0.111
1748285780077001449,0.058
1748285780084688640,0.71
1748285780092375831,1.428
1748285780100063022,1.328
1748285780107750213,0.274
1748285780115437404,-0.618
1748285780123124595,-0.51
1748285780130811786,-0.187
1748285780138498977,-0.226
1748285780146186168,-0.192
1748285780153873359,-0.07
1748285780161560550,-0.09
1748285780169247741,-0.109
1748285780176934932,-0.063
1748285780184622123,-0.053
1748285780192309314,-0.06
1748285780199996505,-0.043000000000000003
1748285780207683696,-0.031
1748285780215370887,-0.026000000000000002
1748285780223058078,-0.019
1748285780230745269,-0.009000000000000001
1748285780238432460,-0.002
1748285780246119651,0.007
1748285780253806842,0.014
1748285780261494033,0.021
1748285780269181224,0.031
1748285780276868415,0.038
1748285780284555606,0.048
1748285780292242797,0.058
1748285780299929988,0.07
1748285780307617179,0.077
1748285780315304370,0.09
1748285780322991561,0.10200000000000001
1748285780330678793,0.111
1748285780338365914,0.124
1748285780346053035,0.133
1748285780353740156,0.14300000000000002
1748285780361427277,0.153
1748285780369114398,0.16
1748285780376801519,0.163
1748285780384488640,0.163
1748285780392175761,0.163
1748285780399862882,0.16
1748285780407550003,0.15
1748285780415237124,0.128
1748285780422924245,0.099
1748285780430611366,0.06
1748285780438298487,0.014
1748285780445985608,-0.029
1748285780453672729,-0.065
1748285780461359850,-0.092
1748285780469046971,-0.111
1748285780476734092,-0.126
1748285780484421213,-0.131
1748285780492108334,-0.133
1748285780499795455,-0.131
1748285780507482576,-0.128
1748285780515169697,-0.124
1748285780522856818,-0.121
1748285780530543939,-0.116
1748285780538231060,-0.111
1748285780545918181,-0.109
1748285780553605302,-0.107
1748285780561292423,-0.109
1748285780568979544,-0.107
1748285780576666665,-0.107
1748285780584353786,-0.109
1748285780592040907,-0.109
1748285780599728028,-0.107
1748285780607415149,-0.109
1748285780615102270,-0.109
1748285780622789391,-0.107
1748285780630476512,-0.109
1748285780638163633,-0.107
1748285780645850754,-0.10400000000000001
1748285780653537875,-0.10200000000000001
1748285780661224996,-0.099
1748285780668912117,-0.097
1748285780676599238,-0.094
1748285780684286359,-0.092
1748285780691973480,-0.09
1748285780699660601,-0.085
1748285780707347722,-0.082
1748285780715034843,-0.08
1748285780722721964,-0.077
1748285780730409085,-0.075
1748285780738096206,-0.075
1748285780745783327,-0.07200000000000001
1748285780753470448,-0.068
1748285780761157569,-0.068
1748285780768844690,-0.065
1748285780776531811,-0.06
1748285780784218932,-0.058
1748285780791906053,-0.058
1748285780799593174,-0.058
1748285780807280295,-0.055
1748285780814967416,-0.055
1748285780822654537,-0.053
1748285780830341658,-0.051000000000000004
1748285780838028779,-0.051000000000000004
1748285780845715900,-0.051000000000000004
1748285780853403021,-0.046
1748285780861090142,-0.043000000000000003
1748285780868777263,-0.043000000000000003
1748285780876464384,-0.043000000000000003
1748285780884151505,-0.038
1748285780891838690,-0.038,61,1080
1748285780899525533,-0.038
1748285780907212376,-0.038
1748285780914899219,-0.036000000000000004
1748285780922586062,-0.038
1748285780930272905,-0.038
1748285780937959748,-0.036000000000000004
1748285780945646591,-0.036000000000000004
1748285780953333434,-0.036000000000000004
1748285780961020277,-0.036000000000000004
1748285780968707120,-0.036000000000000004
1748285780976393963,-0.036000000000000004
1748285780984080806,-0.031
1748285780991767649,-0.031
1748285780999454492,-0.031
1748285781007141335,-0.031
1748285781014828178,-0.029
1748285781022515021,-0.026000000000000002
1748285781030201864,-0.026000000000000002
1748285781037888707,-0.026000000000000002
1748285781045575550,-0.026000000000000002
1748285781053262393,-0.024
1748285781060949236,-0.024
1748285781068636079,-0.026000000000000002
1748285781076322922,-0.024
1748285781084009765,-0.024
1748285781091696608,-0.024
1748285781099383451,-0.024
1748285781107070294,-0.024
1748285781114757137,-0.021
1748285781122443980,-0.021
1748285781130130823,-0.021
1748285781137817666,-0.021
1748285781145504509,-0.019
1748285781153191352,-0.019
1748285781160878195,-0.017
1748285781168565038,-0.019
1748285781176251881,-0.021
1748285781183938724,-0.021
1748285781191625567,-0.021
1748285781199312410,-0.019
1748285781206999253,-0.019
1748285781214686096,-0.021
1748285781222372939,-0.029
1748285781230059782,-0.034
1748285781237746625,-0.034
1748285781245433468,-0.026000000000000002
1748285781253120311,-0.014
1748285781260807154,0.002
1748285781268493997,0.007
1748285781276180840,0.007
1748285781283867683,0.012
1748285781291554526,-0.002
1748285781299241369,-0.024
1748285781306928212,-0.031
1748285781314615055,-0.029
1748285781322301898,-0.031
1748285781329988741,-0.031
1748285781337675584,-0.029
1748285781345362427,-0.036000000000000004
1748285781353049270,-0.08
1748285781360736113,-0.10200000000000001
1748285781368422956,0.18
1748285781376109799,0.895
1748285781383796642,1.433
1748285781391483485,1.048
1748285781399170328,-0.036000000000000004
1748285781406857171,-0.637
1748285781414544014,-0.369
1748285781422230857,-0.155
1748285781429917700,-0.218
1748285781437604543,-0.145
1748285781445291386,-0.065
1748285781452978243,-0.10200000000000001
1748285781460665225,-0.097
1748285781468352207,-0.058
1748285781476039189,-0.058
1748285781483726171,-0.058
1748285781491413153,-0.041
1748285781499100135,-0.034
1748285781506787117,-0.029
1748285781514474099,-0.017
1748285781522161081,-0.009000000000000001
1748285781529848063,-0.002
1748285781537535045,0.007
1748285781545222027,0.017
1748285781552909009,0.026000000000000002
1748285781560595991,0.036000000000000004
1748285781568282973,0.043000000000000003
1748285781575969955,0.051000000000000004
1748285781583656937,0.06
1748285781591343919,0.07
1748285781599030901,0.08
1748285781606717883,0.08700000000000001
1748285781614404865,0.097
1748285781622091847,0.107
1748285781629778829,0.11900000000000001
1748285781637465811,0.124
1748285781645152793,0.131
1748285781652839775,0.138
1748285781660526757,0.14100000000000001
1748285781668213739,0.14300000000000002
1748285781675900721,0.14100000000000001
1748285781683587703,0.14100000000000001
1748285781691274685,0.138
1748285781698961667,0.131
1748285781706648649,0.116
1748285781714335631,0.092
1748285781722022613,0.058
1748285781729709595,0.024
1748285781737396577,-0.012
1748285781745083559,-0.041
1748285781752770541,-0.068
1748285781760457523,-0.09
1748285781768144505,-0.10200000000000001
1748285781775831487,-0.111
1748285781783518469,-0.114
1748285781791205451,-0.111
1748285781798892433,-0.109
1748285781806579415,-0.109
1748285781814266397,-0.107
1748285781821953379,-0.10400000000000001
1748285781829640361,-0.10200000000000001
1748285781837327343,-0.10200000000000001
1748285781845014325,-0.099
1748285781852701307,-0.099
1748285781860388289,-0.099
1748285781868075271,-0.10200000000000001
1748285781875762253,-0.10200000000000001
1748285781883449235,-0.10400000000000001
1748285781891136217,-0.10400000000000001
1748285781898823199,-0.10400000000000001
1748285781906510181,-0.10400000000000001
1748285781914197163,-0.10400000000000001
1748285781921884145,-0.10400000000000001
1748285781929571127,-0.10200000000000001
1748285781937258109,-0.099
1748285781944945091,-0.099
1748285781952632073,-0.097
1748285781960319055,-0.094
1748285781968006037,-0.092
1748285781975693019,-0.09
1748285781983380001,-0.08700000000000001
1748285781991066983,-0.085
1748285781998753965,-0.082
1748285782006440947,-0.077
1748285782014127966,-0.075,61,1188
1748285782021815087,-0.075
1748285782029502208,-0.07200000000000001
1748285782037189329,-0.068
1748285782044876450,-0.065
1748285782052563571,-0.065
1748285782060250692,-0.065
1748285782067937813,-0.065
1748285782075624934,-0.06
1748285782083312055,-0.058
1748285782090999176,-0.055
1748285782098686297,-0.055
1748285782106373418,-0.053
1748285782114060539,-0.053
1748285782121747660,-0.053
1748285782129434781,-0.051000000000000004
1748285782137121902,-0.048
1748285782144809023,-0.048
1748285782152496144,-0.046
1748285782160183265,-0.043000000000000003
1748285782167870386,-0.041
1748285782175557507,-0.041
1748285782183244628,-0.038
1748285782190931749,-0.038
1748285782198618870,-0.038
1748285782206305991,-0.041
1748285782213993112,-0.038
1748285782221680233,-0.036000000000000004
1748285782229367354,-0.036000000000000004
1748285782237054475,-0.034
1748285782244741596,-0.034
1748285782252428717,-0.031
1748285782260115838,-0.031
1748285782267802959,-0.029
1748285782275490080,-0.026000000000000002
1748285782283177201,-0.026000000000000002
1748285782290864322,-0.029
1748285782298551443,-0.029
1748285782306238564,-0.029
1748285782313925685,-0.031
1748285782321612806,-0.031
1748285782329299927,-0.026000000000000002
1748285782336987048,-0.024
1748285782344674169,-0.021
1748285782352361290,-0.021
1748285782360048411,-0.024
1748285782367735532,-0.021
1748285782375422653,-0.019
1748285782383109774,-0.024
1748285782390796895,-0.029
1748285782398484016,-0.026000000000000002
1748285782406171137,-0.021
1748285782413858258,-0.019
1748285782421545379,-0.019
1748285782429232500,-0.021
1748285782436919621,-0.024
1748285782444606742,-0.021
1748285782452293863,-0.019
1748285782459980984,-0.017
1748285782467668105,-0.019
1748285782475355226,-0.021
1748285782483042347,-0.021
1748285782490729468,-0.019
1748285782498416589,-0.024
1748285782506103710,-0.029
1748285782513790831,-0.034
1748285782521477952,-0.031
1748285782529165073,-0.029
1748285782536852194,-0.012
1748285782544539315,0.004
1748285782552226436,0.004
1748285782559913557,0.004
1748285782567600678,0.007
1748285782575287863,-0.012
1748285782582974984,-0.031
1748285782590662105,-0.031
1748285782598349226,-0.029
1748285782606036347,-0.034
1748285782613723468,-0.036000000000000004
1748285782621410589,-0.034
1748285782629097710,-0.043000000000000003
1748285782636784831,-0.07200000000000001
1748285782644471952,-0.034
1748285782652159073,0.355
1748285782659846194,1.087
1748285782667533315,1.3820000000000001
1748285782675220436,0.642
1748285782682907557,-0.433
1748285782690594678,-0.708
1748285782698281799,-0.34500000000000003
1748285782705968920,-0.216
1748285782713656041,-0.231
1748285782721343162,-0.099
1748285782729030283,-0.051000000000000004
1748285782736717404,-0.092
1748285782744404525,-0.063
1748285782752091646,-0.029
1748285782759778767,-0.036000000000000004
1748285782767465888,-0.029
1748285782775153009,-0.014
1748285782782840130,-0.009000000000000001
1748285782790527251,-0.004
1748285782798214372,0.009000000000000001
1748285782805901493,0.019
1748285782813588614,0.021
1748285782821275735,0.031
1748285782828962856,0.038
1748285782836649977,0.046
1748285782844337098,0.053
1748285782852024219,0.06
1748285782859711340,0.07200000000000001
1748285782867398461,0.085
1748285782875085582,0.099
1748285782882772703,0.107
1748285782890459824,0.114
1748285782898146945,0.128
1748285782905834066,0.14100000000000001
1748285782913521187,0.15
1748285782921208308,0.16
1748285782928895429,0.167
1748285782936582550,0.167
1748285782944269671,0.17200000000000001
1748285782951956792,0.17500000000000002
1748285782959643913,0.17
1748285782967331034,0.16
1748285782975018155,0.158
1748285782982705276,0.148
1748285782990392397,0.121
1748285782998079518,0.082
1748285783005766639,0.041
1748285783013453760,-0.002
1748285783021140881,-0.043000000000000003
1748285783028828002,-0.077
1748285783036515123,-0.10400000000000001
1748285783044202244,-0.124
1748285783051889365,-0.131
1748285783059576486,-0.136
1748285783067263607,-0.133
1748285783074950728,-0.128
1748285783082637849,-0.124
1748285783090324970,-0.11900000000000001
1748285783098012091,-0.114
1748285783105699212,-0.109
1748285783113386333,-0.107
1748285783121073454,-0.107
1748285783128760575,-0.107
1748285783136447760,-0.107,60,1132
1748285783144134881,-0.107
1748285783151822002,-0.109
1748285783159509123,-0.111
1748285783167196244,-0.111
1748285783174883365,-0.116
1748285783182570486,-0.11900000000000001
1748285783190257607,-0.116
1748285783197944728,-0.114
1748285783205631849,-0.114
1748285783213318970,-0.116
1748285783221006091,-0.116
1748285783228693212,-0.114
1748285783236380333,-0.109
1748285783244067454,-0.109
1748285783251754575,-0.109
1748285783259441696,-0.107
1748285783267128817,-0.10400000000000001
1748285783274815938,-0.10400000000000001
1748285783282503059,-0.10200000000000001
1748285783290190180,-0.099
1748285783297877301,-0.097
1748285783305564422,-0.094
1748285783313251543,-0.092
1748285783320938664,-0.09
1748285783328625785,-0.085
1748285783336312906,-0.082
1748285783344000027,-0.082
1748285783351687148,-0.085
1748285783359374269,-0.082
1748285783367061390,-0.08
1748285783374748511,-0.08
1748285783382435632,-0.08
1748285783390122753,-0.077
1748285783397809874,-0.077
1748285783405496995,-0.075
1748285783413184116,-0.075
1748285783420871237,-0.07200000000000001
1748285783428558358,-0.07
1748285783436245479,-0.07200000000000001
1748285783443932600,-0.075
1748285783451619721,-0.077
1748285783459306842,-0.08
1748285783466993963,-0.075
1748285783474681084,-0.07
1748285783482368205,-0.058
1748285783490055326,-0.046
1748285783497742447,-0.041
1748285783505429568,-0.031
1748285783513116689,-0.041
1748285783520803810,-0.065
1748285783528490931,-0.077
1748285783536178052,-0.077
1748285783543865173,-0.08
1748285783551552294,-0.08
1748285783559239415,-0.077
1748285783566926536,-0.08
1748285783574613657,-0.094
1748285783582300778,-0.11900000000000001
1748285783589987899,0.004
1748285783597675020,0.552
1748285783605362141,1.2670000000000001
1748285783613049262,1.24
1748285783620736383,0.201
1748285783628423504,-0.754
1748285783636110625,-0.6980000000000001
1748285783643797746,-0.318
1748285783651484867,-0.304
1748285783659171988,-0.26
1748285783666859109,-0.10400000000000001
1748285783674546230,-0.10200000000000001
1748285783682233351,-0.136
1748285783689920472,-0.092
1748285783697607661,-0.077
1748285783705294434,-0.09
1748285783712981207,-0.075
1748285783720667980,-0.058
1748285783728354753,-0.058
1748285783736041526,-0.053
1748285783743728299,-0.043000000000000003
1748285783751415072,-0.034
1748285783759101845,-0.026000000000000002
1748285783766788618,-0.019
1748285783774475391,-0.012
1748285783782162164,-0.002
1748285783789848937,0.004
1748285783797535710,0.014
1748285783805222483,0.024
1748285783812909256,0.034
1748285783820596029,0.048
1748285783828282802,0.058
1748285783835969575,0.07200000000000001
1748285783843656348,0.092
1748285783851343121,0.109
1748285783859029894,0.126
1748285783866716667,0.14100000000000001
1748285783874403440,0.153
1748285783882090213,0.16
1748285783889776986,0.16
1748285783897463759,0.16
1748285783905150532,0.158
1748285783912837305,0.145
1748285783920524078,0.121
1748285783928210851,0.077
1748285783935897624,0.021
1748285783943584397,-0.043000000000000003
1748285783951271170,-0.107
1748285783958957943,-0.16
1748285783966644716,-0.20400000000000001
1748285783974331489,-0.228
1748285783982018262,-0.243
1748285783989705035,-0.253
1748285783997391808,-0.253
1748285784005078581,-0.245
1748285784012765354,-0.23800000000000002
1748285784020452127,-0.233
1748285784028138900,-0.223
1748285784035825673,-0.214
1748285784043512446,-0.211
1748285784051199219,-0.20600000000000002
1748285784058885992,-0.199
1748285784066572765,-0.197
1748285784074259538,-0.199
1748285784081946311,-0.199
1748285784089633084,-0.199
1748285784097319857,-0.199
1748285784105006630,-0.199
1748285784112693403,-0.199
1748285784120380176,-0.201
1748285784128066949,-0.201
1748285784135753722,-0.199
1748285784143440495,-0.197
1748285784151127268,-0.197
1748285784158814041,-0.194
1748285784166500814,-0.189
1748285784174187587,-0.187
1748285784181874360,-0.187
1748285784189561133,-0.184
1748285784197247906,-0.182
1748285784204934679,-0.177
1748285784212621452,-0.17200000000000001
1748285784220308225,-0.17
1748285784227994998,-0.167
1748285784235681771,-0.165
1748285784243368544,-0.16
1748285784251055317,-0.155
1748285784258742127,-0.153,59,1289
1748285784266429179,-0.15
1748285784274116231,-0.145
1748285784281803283,-0.14300000000000002
1748285784289490335,-0.14100000000000001
1748285784297177387,-0.138
1748285784304864439,-0.136
1748285784312551491,-0.133
1748285784320238543,-0.133
1748285784327925595,-0.131
1748285784335612647,-0.128
1748285784343299699,-0.126
1748285784350986751,-0.124
1748285784358673803,-0.124
1748285784366360855,-0.121
1748285784374047907,-0.116
1748285784381734959,-0.114
1748285784389422011,-0.111
1748285784397109063,-0.111
1748285784404796115,-0.109
1748285784412483167,-0.109
1748285784420170219,-0.10400000000000001
1748285784427857271,-0.10400000000000001
1748285784435544323,-0.10400000000000001
1748285784443231375,-0.109
1748285784450918427,-0.114
1748285784458605479,-0.111
1748285784466292531,-0.10400000000000001
1748285784473979583,-0.09
1748285784481666635,-0.07200000000000001
1748285784489353687,-0.065
1748285784497040739,-0.06
1748285784504727791,-0.053
1748285784512414843,-0.068
1748285784520101895,-0.09
1748285784527788947,-0.092
1748285784535475999,-0.09
1748285784543163051,-0.092
1748285784550850103,-0.09
1748285784558537155,-0.085
1748285784566224207,-0.092
1748285784573911259,-0.133
1748285784581598311,-0.153
1748285784589285363,0.128
1748285784596972415,0.871
1748285784604659467,1.467
1748285784612346519,1.112
1748285784620033571,-0.031
1748285784627720623,-0.722
1748285784635407675,-0.455
1748285784643094727,-0.197
1748285784650781779,-0.265
1748285784658468831,-0.194
1748285784666155883,-0.10200000000000001
1748285784673842935,-0.14100000000000001
1748285784681529987,-0.138
1748285784689217039,-0.092
1748285784696904091,-0.092
1748285784704591143,-0.094
1748285784712278195,-0.075
1748285784719965247,-0.065
1748285784727652299,-0.063
1748285784735339351,-0.048
1748285784743026403,-0.038
1748285784750713455,-0.034
1748285784758400507,-0.021
1748285784766087559,-0.009000000000000001
1748285784773774611,-0.002
1748285784781461663,0.007
1748285784789148715,0.021
1748285784796835767,0.031
1748285784804522819,0.041
1748285784812209871,0.053
1748285784819896937,0.065,58,1281
1748285784827584058,0.08
1748285784835271179,0.094
1748285784842958300,0.109
1748285784850645421,0.126
1748285784858332542,0.14100000000000001
1748285784866019663,0.153
1748285784873706784,0.163
1748285784881393905,0.167
1748285784889081026,0.17200000000000001
1748285784896768147,0.17200000000000001
1748285784904455268,0.17200000000000001
1748285784912142389,0.163
1748285784919829510,0.14300000000000002
1748285784927516631,0.109
1748285784935203752,0.065
1748285784942890873,0.017
1748285784950577994,-0.031
1748285784958265115,-0.075
1748285784965952236,-0.107
1748285784973639357,-0.131
1748285784981326478,-0.145
1748285784989013599,-0.155
1748285784996700720,-0.155
1748285785004387841,-0.155
1748285785012074962,-0.153
1748285785019762083,-0.148
1748285785027449204,-0.14300000000000002
1748285785035136325,-0.138
1748285785042823446,-0.136
1748285785050510567,-0.133
1748285785058197688,-0.131
1748285785065884809,-0.126
1748285785073571930,-0.126
1748285785081259051,-0.126
1748285785088946172,-0.124
1748285785096633293,-0.124
1748285785104320414,-0.124
1748285785112007535,-0.124
1748285785119694656,-0.124
1748285785127381777,-0.124
1748285785135068898,-0.124
1748285785142756019,-0.121
1748285785150443140,-0.11900000000000001
1748285785158130261,-0.116
1748285785165817382,-0.116
1748285785173504503,-0.111
1748285785181191624,-0.109
1748285785188878745,-0.107
1748285785196565866,-0.10400000000000001
1748285785204252987,-0.10200000000000001
1748285785211940108,-0.099
1748285785219627229,-0.097
1748285785227314350,-0.094
1748285785235001471,-0.092
1748285785242688592,-0.08700000000000001
1748285785250375713,-0.08700000000000001
1748285785258062834,-0.085
1748285785265749955,-0.082
1748285785273437076,-0.08
1748285785281124197,-0.077
1748285785288811318,-0.075
1748285785296498439,-0.075
1748285785304185560,-0.07200000000000001
1748285785311872681,-0.07
1748285785319559802,-0.068
1748285785327246923,-0.065
1748285785334934044,-0.063
1748285785342621165,-0.063
1748285785350308286,-0.06
1748285785357995407,-0.06
1748285785365682528,-0.058
1748285785373369649,-0.055
1748285785381056834,-0.055
1748285785388743816,-0.055
1748285785396430798,-0.053
1748285785404117780,-0.051000000000000004
1748285785411804762,-0.048
1748285785419491744,-0.046
1748285785427178726,-0.046
1748285785434865708,-0.046
1748285785442552690,-0.043000000000000003
1748285785450239672,-0.041
1748285785457926654,-0.041
1748285785465613636,-0.041
1748285785473300618,-0.036000000000000004
1748285785480987600,-0.034
1748285785488674582,-0.036000000000000004
1748285785496361564,-0.036000000000000004
1748285785504048546,-0.041
1748285785511735528,-0.043000000000000003
1748285785519422510,-0.041
1748285785527109492,-0.034
1748285785534796474,-0.017
1748285785542483456,-0.002
1748285785550170438,0.002
1748285785557857420,0.007
1748285785565544402,0.004
1748285785573231384,-0.017
1748285785580918366,-0.031
1748285785588605348,-0.031
1748285785596292330,-0.034
1748285785603979312,-0.034
1748285785611666294,-0.029
1748285785619353276,-0.026000000000000002
1748285785627040258,-0.041
1748285785634727240,-0.085
1748285785642414222,-0.077
1748285785650101204,0.291
1748285785657788186,1.065
1748285785665475168,1.5150000000000001
1748285785673162150,0.9390000000000001
1748285785680849132,-0.199
1748285785688536114,-0.654
1748285785696223096,-0.313
1748285785703910078,-0.153
1748285785711597060,-0.218
1748285785719284042,-0.116
1748285785726971024,-0.053
1748285785734658006,-0.094
1748285785742344988,-0.08
1748285785750031970,-0.041
1748285785757718952,-0.048
1748285785765405934,-0.046
1748285785773092916,-0.024
1748285785780779898,-0.017
1748285785788466880,-0.012
1748285785796153862,0.002
1748285785803840844,0.014
1748285785811527826,0.019
1748285785819214808,0.029
1748285785826901790,0.036000000000000004
1748285785834588772,0.043000000000000003
1748285785842275754,0.053
1748285785849962736,0.063
1748285785857649718,0.07
1748285785865336700,0.085
1748285785873023682,0.099
1748285785880710664,0.109
1748285785888397646,0.116
1748285785896084628,0.133
1748285785903771610,0.15
1748285785911458592,0.163
1748285785919145574,0.17500000000000002
1748285785926832556,0.184
1748285785934519538,0.194
1748285785942206561,0.197,57,943
1748285785949893404,0.201
1748285785957580247,0.201
1748285785965267090,0.197
1748285785972953933,0.187
1748285785980640776,0.17
1748285785988327619,0.133
1748285785996014462,0.08700000000000001
1748285786003701305,0.038
1748285786011388148,-0.007
1748285786019074991,-0.048
1748285786026761834,-0.08
1748285786034448677,-0.10200000000000001
1748285786042135520,-0.11900000000000001
1748285786049822363,-0.128
1748285786057509206,-0.131
1748285786065196049,-0.128
1748285786072882892,-0.124
1748285786080569735,-0.11900000000000001
1748285786088256578,-0.116
1748285786095943421,-0.114
1748285786103630264,-0.109
1748285786111317107,-0.107
1748285786119003950,-0.109
1748285786126690793,-0.109
1748285786134377636,-0.10200000000000001
1748285786142064479,-0.099
1748285786149751322,-0.10200000000000001
1748285786157438165,-0.10400000000000001
1748285786165125008,-0.10400000000000001
1748285786172811851,-0.10400000000000001
1748285786180498694,-0.10200000000000001
1748285786188185537,-0.10200000000000001
1748285786195872380,-0.10200000000000001
1748285786203559223,-0.10400000000000001
1748285786211246066,-0.097
1748285786218932909,-0.094
1748285786226619752,-0.099
1748285786234306595,-0.097
1748285786241993438,-0.08700000000000001
1748285786249680281,-0.09
1748285786257367124,-0.09
1748285786265053967,-0.085
1748285786272740810,-0.082
1748285786280427653,-0.085
1748285786288114496,-0.08
1748285786295801339,-0.07200000000000001
1748285786303488182,-0.07200000000000001
1748285786311175025,-0.07200000000000001
1748285786318861868,-0.068
1748285786326548711,-0.063
1748285786334235554,-0.063
1748285786341922397,-0.063
1748285786349609240,-0.058
1748285786357296083,-0.055
1748285786364982926,-0.055
1748285786372669769,-0.051000000000000004
1748285786380356612,-0.051000000000000004
1748285786388043455,-0.051000000000000004
1748285786395730298,-0.048
1748285786403417141,-0.046
1748285786411103984,-0.046
1748285786418790827,-0.043000000000000003
1748285786426477670,-0.043000000000000003
1748285786434164513,-0.046
1748285786441851356,-0.041
1748285786449538199,-0.038
1748285786457225042,-0.036000000000000004
1748285786464911885,-0.036000000000000004
1748285786472598728,-0.038
1748285786480285571,-0.041
1748285786487972414,-0.043000000000000003
1748285786495659257,-0.041
1748285786503346110,-0.038
1748285786511033231,-0.038
1748285786518720352,-0.026000000000000002
1748285786526407473,-0.009000000000000001
1748285786534094594,-0.002
1748285786541781715,0.002
1748285786549468836,0.002
1748285786557155957,-0.017
1748285786564843078,-0.036000000000000004
1748285786572530199,-0.041
1748285786580217320,-0.041
1748285786587904441,-0.038
1748285786595591562,-0.034
1748285786603278683,-0.036000000000000004
1748285786610965804,-0.043000000000000003
1748285786618652925,-0.065
1748285786626340046,-0.021
1748285786634027167,0.377
1748285786641714288,1.1460000000000001
1748285786649401409,1.457
1748285786657088530,0.644
1748285786664775651,-0.515
1748285786672462772,-0.773
1748285786680149893,-0.367
1748285786687837014,-0.25
1748285786695524135,-0.267
1748285786703211256,-0.10400000000000001
1748285786710898377,-0.038
1748285786718585498,-0.08700000000000001
1748285786726272619,-0.06
1748285786733959740,-0.021
1748285786741646861,-0.029
1748285786749333982,-0.026000000000000002
1748285786757021103,-0.007
1748285786764708224,0.0
1748285786772395345,0.004
1748285786780082466,0.014
1748285786787769587,0.024
1748285786795456708,0.031
1748285786803143829,0.043000000000000003
1748285786810830950,0.053
1748285786818518071,0.06
1748285786826205192,0.07
1748285786833892313,0.077
1748285786841579434,0.08700000000000001
1748285786849266555,0.10200000000000001
1748285786856953676,0.116
1748285786864640797,0.131
1748285786872327918,0.145
1748285786880015039,0.163
1748285786887702160,0.182
1748285786895389281,0.199
1748285786903076402,0.216
1748285786910763523,0.231
1748285786918450644,0.24
1748285786926137765,0.245
1748285786933824886,0.245
1748285786941512007,0.243
1748285786949199128,0.23600000000000002
1748285786956886249,0.218
1748285786964573370,0.18
1748285786972260491,0.124
1748285786979947612,0.058
1748285786987634733,-0.007
1748285786995321854,-0.063
1748285787003008975,-0.109
1748285787010696096,-0.138
1748285787018383217,-0.155
1748285787026070338,-0.165
1748285787033757459,-0.17
1748285787041444580,-0.167
1748285787049131701,-0.158
1748285787056818822,-0.15
1748285787064506007,-0.14300000000000002,57,997
1748285787072193128,-0.133
1748285787079880249,-0.126
1748285787087567370,-0.121
1748285787095254491,-0.11900000000000001
1748285787102941612,-0.11900000000000001
1748285787110628733,-0.116
1748285787118315854,-0.114
1748285787126002975,-0.116
1748285787133690096,-0.11900000000000001
1748285787141377217,-0.11900000000000001
1748285787149064338,-0.121
1748285787156751459,-0.124
1748285787164438580,-0.124
1748285787172125701,-0.126
1748285787179812822,-0.124
1748285787187499943,-0.124
1748285787195187064,-0.121
1748285787202874185,-0.11900000000000001
1748285787210561306,-0.116
1748285787218248427,-0.114
1748285787225935548,-0.111
1748285787233622669,-0.109
1748285787241309790,-0.107
1748285787248996911,-0.10400000000000001
1748285787256684032,-0.10200000000000001
1748285787264371153,-0.099
1748285787272058274,-0.097
1748285787279745395,-0.092
1748285787287432516,-0.09
1748285787295119637,-0.08700000000000001
1748285787302806758,-0.085
1748285787310493879,-0.082
1748285787318181000,-0.08
1748285787325868121,-0.08
1748285787333555242,-0.077
1748285787341242363,-0.075
1748285787348929484,-0.07200000000000001
1748285787356616605,-0.07
1748285787364303726,-0.07
1748285787371990847,-0.068
1748285787379677968,-0.065
1748285787387365089,-0.063
1748285787395052210,-0.063
1748285787402739331,-0.06
1748285787410426452,-0.06
1748285787418113573,-0.058
1748285787425800694,-0.055
1748285787433487815,-0.055
1748285787441174936,-0.053
1748285787448862057,-0.053
1748285787456549178,-0.055
1748285787464236299,-0.06
1748285787471923420,-0.063
1748285787479610541,-0.058
1748285787487297662,-0.048
1748285787494984783,-0.034
1748285787502671904,-0.019
1748285787510359025,-0.017
1748285787518046146,-0.012
1748285787525733267,-0.012
1748285787533420388,-0.031
1748285787541107509,-0.051000000000000004
1748285787548794630,-0.051000000000000004
1748285787556481751,-0.048
1748285787564168872,-0.048
1748285787571855993,-0.046
1748285787579543114,-0.046
1748285787587230235,-0.058
1748285787594917356,-0.10400000000000001
1748285787602604477,-0.094
1748285787610291598,0.28200000000000003
1748285787617978719,1.063
1748285787625665908,1.5110000000000001
1748285787633352751,0.927
1748285787641039594,-0.228
1748285787648726437,-0.6980000000000001
1748285787656413280,-0.34500000000000003
1748285787664100123,-0.17200000000000001
1748285787671786966,-0.24
1748285787679473809,-0.138
1748285787687160652,-0.07200000000000001
1748285787694847495,-0.116
1748285787702534338,-0.10200000000000001
1748285787710221181,-0.06
1748285787717908024,-0.065
1748285787725594867,-0.065
1748285787733281710,-0.043000000000000003
1748285787740968553,-0.038
1748285787748655396,-0.036000000000000004
1748285787756342239,-0.024
1748285787764029082,-0.012
1748285787771715925,-0.007
1748285787779402768,0.002
1748285787787089611,0.014
1748285787794776454,0.021
1748285787802463297,0.031
1748285787810150140,0.041
1748285787817836983,0.051000000000000004
1748285787825523826,0.063
1748285787833210669,0.077
1748285787840897512,0.09
1748285787848584355,0.107
1748285787856271198,0.124
1748285787863958041,0.138
1748285787871644884,0.155
1748285787879331727,0.17200000000000001
1748285787887018570,0.189
1748285787894705413,0.199
1748285787902392256,0.20600000000000002
1748285787910079099,0.209
1748285787917765942,0.209
1748285787925452785,0.20400000000000001
1748285787933139628,0.187
1748285787940826471,0.155
1748285787948513314,0.111
1748285787956200157,0.055
1748285787963887000,0.002
1748285787971573843,-0.048
1748285787979260686,-0.092
1748285787986947529,-0.121
1748285787994634372,-0.14100000000000001
1748285788002321215,-0.153
1748285788010008058,-0.158
1748285788017694901,-0.158
1748285788025381744,-0.153
1748285788033068587,-0.15
1748285788040755430,-0.145
1748285788048442273,-0.14100000000000001
1748285788056129116,-0.136
1748285788063815959,-0.131
1748285788071502802,-0.128
1748285788079189645,-0.124
1748285788086876488,-0.121
1748285788094563331,-0.11900000000000001
1748285788102250174,-0.11900000000000001
1748285788109937017,-0.116
1748285788117623860,-0.116
1748285788125310703,-0.116
1748285788132997546,-0.116
1748285788140684389,-0.116
1748285788148371232,-0.116
1748285788156058075,-0.116
1748285788163744918,-0.116
1748285788171431761,-0.114
1748285788179118604,-0.111
1748285788186805461,-0.109,57,1060
1748285788194492443,-0.107
1748285788202179425,-0.107
1748285788209866407,-0.10400000000000001
1748285788217553389,-0.10200000000000001
1748285788225240371,-0.097
1748285788232927353,-0.094
1748285788240614335,-0.092
1748285788248301317,-0.09
1748285788255988299,-0.085
1748285788263675281,-0.082
1748285788271362263,-0.082
1748285788279049245,-0.08
1748285788286736227,-0.077
1748285788294423209,-0.075
1748285788302110191,-0.07200000000000001
1748285788309797173,-0.07
1748285788317484155,-0.07
1748285788325171137,-0.07
1748285788332858119,-0.068
1748285788340545101,-0.065
1748285788348232083,-0.065
1748285788355919065,-0.063
1748285788363606047,-0.06
1748285788371293029,-0.06
1748285788378980011,-0.058
1748285788386666993,-0.055
1748285788394353975,-0.055
1748285788402040957,-0.053
1748285788409727939,-0.053
1748285788417414921,-0.051000000000000004
1748285788425101903,-0.051000000000000004
1748285788432788885,-0.048
1748285788440475867,-0.048
1748285788448162849,-0.046
1748285788455849831,-0.046
1748285788463536813,-0.046
1748285788471223795,-0.043000000000000003
1748285788478910777,-0.041
1748285788486597759,-0.041
1748285788494284741,-0.041
1748285788501971723,-0.038
1748285788509658705,-0.036000000000000004
1748285788517345687,-0.036000000000000004
1748285788525032669,-0.036000000000000004
1748285788532719651,-0.036000000000000004
1748285788540406633,-0.036000000000000004
1748285788548093615,-0.034
1748285788555780597,-0.034
1748285788563467579,-0.034
1748285788571154561,-0.031
1748285788578841543,-0.031
1748285788586528525,-0.031
1748285788594215507,-0.031
1748285788601902489,-0.029
1748285788609589471,-0.031
1748285788617276453,-0.029
1748285788624963435,-0.029
1748285788632650417,-0.029
1748285788640337399,-0.026000000000000002
1748285788648024381,-0.026000000000000002
1748285788655711363,-0.026000000000000002
1748285788663398345,-0.026000000000000002
1748285788671085327,-0.026000000000000002
1748285788678772309,-0.026000000000000002
1748285788686459291,-0.026000000000000002
1748285788694146273,-0.026000000000000002
1748285788701833255,-0.026000000000000002
1748285788709520237,-0.026000000000000002
1748285788717207219,-0.031
1748285788724894201,-0.036000000000000004
1748285788732581183,-0.036000000000000004
1748285788740268165,-0.031
1748285788747955184,-0.021,57,982
1748285788755642305,-0.004
1748285788763329426,0.002
1748285788771016547,0.002
1748285788778703668,0.007
1748285788786390789,0.0
1748285788794077910,-0.024
1748285788801765031,-0.036000000000000004
1748285788809452152,-0.036000000000000004
1748285788817139273,-0.036000000000000004
1748285788824826394,-0.038
1748285788832513515,-0.036000000000000004
1748285788840200636,-0.041
1748285788847887757,-0.065
1748285788855574878,-0.114
1748285788863261999,-0.007
1748285788870949120,0.554
1748285788878636241,1.304
1748285788886323362,1.391
1748285788894010483,0.484
1748285788901697604,-0.503
1748285788909384725,-0.562
1748285788917071846,-0.211
1748285788924758967,-0.199
1748285788932446088,-0.216
1748285788940133209,-0.10200000000000001
1748285788947820330,-0.097
1748285788955507451,-0.126
1748285788963194572,-0.08700000000000001
1748285788970881693,-0.068
1748285788978568814,-0.075
1748285788986255935,-0.063
1748285788993943056,-0.048
1748285789001630177,-0.043000000000000003
1748285789009317298,-0.036000000000000004
1748285789017004419,-0.026000000000000002
1748285789024691540,-0.017
1748285789032378661,-0.007
1748285789040065782,0.002
1748285789047752903,0.012
1748285789055440024,0.019
1748285789063127145,0.029
1748285789070814266,0.038
1748285789078501387,0.048
1748285789086188508,0.06
1748285789093875629,0.07
1748285789101562750,0.08
1748285789109249871,0.092
1748285789116936992,0.10400000000000001
1748285789124624113,0.116
1748285789132311234,0.128
1748285789139998355,0.14100000000000001
1748285789147685476,0.153
1748285789155372597,0.16
1748285789163059718,0.165
1748285789170746839,0.167
1748285789178433960,0.17
1748285789186121081,0.167
1748285789193808202,0.16
1748285789201495323,0.14300000000000002
1748285789209182444,0.114
1748285789216869565,0.075
1748285789224556686,0.031
1748285789232243807,-0.009000000000000001
1748285789239930928,-0.048
1748285789247618049,-0.08
1748285789255305170,-0.10400000000000001
1748285789262992291,-0.11900000000000001
1748285789270679412,-0.128
1748285789278366533,-0.131
1748285789286053654,-0.128
1748285789293740775,-0.128
1748285789301427896,-0.126
1748285789309115081,-0.124
1748285789316802202,-0.11900000000000001
1748285789324489323,-0.11900000000000001
1748285789332176444,-0.116
1748285789339863565,-0.114
1748285789347550686,-0.114
1748285789355237807,-0.114
1748285789362924928,-0.111
1748285789370612049,-0.111
1748285789378299170,-0.114
1748285789385986291,-0.114
1748285789393673412,-0.111
1748285789401360533,-0.114
1748285789409047654,-0.116
1748285789416734775,-0.116
1748285789424421896,-0.114
1748285789432109017,-0.114
1748285789439796138,-0.114
1748285789447483259,-0.111
1748285789455170380,-0.109
1748285789462857501,-0.109
1748285789470544622,-0.107
1748285789478231743,-0.107
1748285789485918864,-0.10200000000000001
1748285789493605985,-0.099
1748285789501293106,-0.097
1748285789508980227,-0.092
1748285789516667348,-0.09
1748285789524354469,-0.085
1748285789532041590,-0.082
1748285789539728711,-0.082
1748285789547415832,-0.08
1748285789555102953,-0.077
1748285789562790074,-0.077
1748285789570477195,-0.075
1748285789578164316,-0.07200000000000001
1748285789585851437,-0.07
1748285789593538558,-0.065
1748285789601225679,-0.063
1748285789608912800,-0.063
1748285789616599921,-0.063
1748285789624287042,-0.063
1748285789631974163,-0.063
1748285789639661284,-0.063
1748285789647348405,-0.058
1748285789655035526,-0.055
1748285789662722647,-0.055
1748285789670409768,-0.053
1748285789678096889,-0.053
1748285789685784010,-0.055
1748285789693471131,-0.053
1748285789701158252,-0.048
1748285789708845373,-0.048
1748285789716532494,-0.051000000000000004
1748285789724219615,-0.053
1748285789731906736,-0.046
1748285789739593857,-0.043000000000000003
1748285789747280978,-0.041
1748285789754968099,-0.041
1748285789762655220,-0.038
1748285789770342341,-0.038
1748285789778029462,-0.038
1748285789785716583,-0.036000000000000004
1748285789793403704,-0.036000000000000004
1748285789801090825,-0.036000000000000004
1748285789808777946,-0.036000000000000004
1748285789816465067,-0.038
1748285789824152188,-0.036000000000000004
1748285789831839309,-0.036000000000000004
1748285789839526430,-0.038
1748285789847213551,-0.034
1748285789854900672,-0.034
1748285789862587793,-0.034
1748285789870274978,-0.031,57
1748285789877961681,-0.029
1748285789885648384,-0.034
1748285789893335087,-0.036000000000000004
1748285789901021790,-0.034
1748285789908708493,-0.031
1748285789916395196,-0.034
1748285789924081899,-0.034
1748285789931768602,-0.034
1748285789939455305,-0.029
1748285789947142008,-0.029
1748285789954828711,-0.031
1748285789962515414,-0.031
1748285789970202117,-0.026000000000000002
1748285789977888820,-0.029
1748285789985575523,-0.036000000000000004
1748285789993262226,-0.041
1748285790000948929,-0.041
1748285790008635632,-0.038
1748285790016322335,-0.031
1748285790024009038,-0.012
1748285790031695741,0.0
1748285790039382444,0.0
1748285790047069147,0.002
1748285790054755850,-0.004
1748285790062442553,-0.026000000000000002
1748285790070129256,-0.038
1748285790077815959,-0.041
1748285790085502662,-0.046
1748285790093189365,-0.043000000000000003
1748285790100876068,-0.041
1748285790108562771,-0.043000000000000003
1748285790116249474,-0.06
1748285790123936177,-0.092
1748285790131622880,0.004
1748285790139309583,0.525
1748285790146996286,1.2570000000000001
1748285790154682989,1.323
1748285790162369692,0.384
1748285790170056395,-0.603
1748285790177743098,-0.652
1748285790185429801,-0.279
1748285790193116504,-0.23800000000000002
1748285790200803207,-0.231
1748285790208489910,-0.09
1748285790216176613,-0.075
1748285790223863316,-0.109
1748285790231550019,-0.07
1748285790239236722,-0.046
1748285790246923425,-0.055
1748285790254610128,-0.046
1748285790262296831,-0.026000000000000002
1748285790269983534,-0.024
1748285790277670237,-0.019
1748285790285356940,-0.007
1748285790293043643,0.0
1748285790300730346,0.007
1748285790308417049,0.019
1748285790316103752,0.029
1748285790323790455,0.036000000000000004
1748285790331477158,0.043000000000000003
1748285790339163861,0.051000000000000004
1748285790346850564,0.063
1748285790354537267,0.07200000000000001
1748285790362223970,0.085
1748285790369910673,0.097
1748285790377597376,0.109
1748285790385284079,0.124
1748285790392970782,0.138
1748285790400657485,0.155
1748285790408344188,0.17
1748285790416030891,0.18
1748285790423717594,0.189
1748285790431404357,0.194
1748285790439091478,0.194
1748285790446778599,0.194
1748285790454465720,0.192
1748285790462152841,0.18
1748285790469839962,0.158
1748285790477527083,0.11900000000000001
1748285790485214204,0.07
1748285790492901325,0.017
1748285790500588446,-0.034
1748285790508275567,-0.077
1748285790515962688,-0.114
1748285790523649809,-0.138
1748285790531336930,-0.155
1748285790539024051,-0.163
1748285790546711172,-0.163
1748285790554398293,-0.16
1748285790562085414,-0.155
1748285790569772535,-0.148
1748285790577459656,-0.14100000000000001
1748285790585146777,-0.136
1748285790592833898,-0.128
1748285790600521019,-0.124
1748285790608208140,-0.121
1748285790615895261,-0.121
1748285790623582382,-0.11900000000000001
1748285790631269503,-0.11900000000000001
1748285790638956624,-0.121
1748285790646643745,-0.121
1748285790654330866,-0.124
1748285790662017987,-0.126
1748285790669705108,-0.128
1748285790677392229,-0.128
1748285790685079350,-0.128
1748285790692766471,-0.126
1748285790700453592,-0.124
1748285790708140713,-0.124
1748285790715827834,-0.121
1748285790723514955,-0.121
1748285790731202076,-0.11900000000000001
1748285790738889197,-0.114
1748285790746576318,-0.111
1748285790754263439,-0.109
1748285790761950560,-0.107
1748285790769637681,-0.10200000000000001
1748285790777324802,-0.10200000000000001
1748285790785011923,-0.097
1748285790792699044,-0.094
1748285790800386165,-0.092
1748285790808073286,-0.08700000000000001
1748285790815760407,-0.08700000000000001
1748285790823447528,-0.085
1748285790831134649,-0.082
1748285790838821770,-0.08
1748285790846508891,-0.08
1748285790854196012,-0.077
1748285790861883133,-0.075
1748285790869570254,-0.07200000000000001
1748285790877257375,-0.07200000000000001
1748285790884944496,-0.07
1748285790892631617,-0.068
1748285790900318738,-0.065
1748285790908005859,-0.065
1748285790915692980,-0.063
1748285790923380101,-0.06
1748285790931067222,-0.058
1748285790938754343,-0.058
1748285790946441464,-0.058
1748285790954128585,-0.055
1748285790961815706,-0.053
1748285790969502827,-0.053
1748285790977189948,-0.053
1748285790984877069,-0.051000000000000004
1748285790992564258,-0.051000000000000004,58,978
1748285791000251379,-0.051000000000000004
1748285791007938500,-0.048
1748285791015625621,-0.048
1748285791023312742,-0.046
1748285791030999863,-0.046
1748285791038686984,-0.046
1748285791046374105,-0.046
1748285791054061226,-0.046
1748285791061748347,-0.046
1748285791069435468,-0.043000000000000003
1748285791077122589,-0.041
1748285791084809710,-0.041
1748285791092496831,-0.043000000000000003
1748285791100183952,-0.041
1748285791107871073,-0.038
1748285791115558194,-0.038
1748285791123245315,-0.038
1748285791130932436,-0.038
1748285791138619557,-0.036000000000000004
1748285791146306678,-0.036000000000000004
1748285791153993799,-0.038
1748285791161680920,-0.043000000000000003
1748285791169368041,-0.048
1748285791177055162,-0.048
1748285791184742283,-0.043000000000000003
1748285791192429404,-0.029
1748285791200116525,-0.012
1748285791207803646,-0.009000000000000001
1748285791215490767,-0.007
1748285791223177888,-0.002
1748285791230865009,-0.017
1748285791238552130,-0.041
1748285791246239251,-0.046
1748285791253926372,-0.043000000000000003
1748285791261613493,-0.046
1748285791269300614,-0.046
1748285791276987735,-0.043000000000000003
1748285791284674856,-0.048
1748285791292361977,-0.077
1748285791300049098,-0.11900000000000001
1748285791307736219,0.053
1748285791315423340,0.686
1748285791323110461,1.365
1748285791330797582,1.2550000000000001
1748285791338484703,0.23800000000000002
1748285791346171824,-0.627
1748285791353858945,-0.532
1748285791361546066,-0.201
1748285791369233187,-0.221
1748285791376920308,-0.197
1748285791384607429,-0.08700000000000001
1748285791392294550,-0.10200000000000001
1748285791399981671,-0.11900000000000001
1748285791407668792,-0.077
1748285791415355913,-0.068
1748285791423043034,-0.07200000000000001
1748285791430730155,-0.058
1748285791438417276,-0.043000000000000003
1748285791446104397,-0.043000000000000003
1748285791453791518,-0.031
1748285791461478639,-0.021
1748285791469165760,-0.014
1748285791476852881,-0.004
1748285791484540002,0.007
1748285791492227123,0.014
1748285791499914244,0.021
1748285791507601365,0.034
1748285791515288486,0.043000000000000003
1748285791522975607,0.053
1748285791530662728,0.063
1748285791538349849,0.075
1748285791546036970,0.08700000000000001
1748285791553724155,0.10200000000000001
1748285791561410858,0.114
1748285791569097561,0.128
1748285791576784264,0.145
1748285791584470967,0.158
1748285791592157670,0.17
1748285791599844373,0.177
1748285791607531076,0.182
1748285791615217779,0.182
1748285791622904482,0.18
1748285791630591185,0.17200000000000001
1748285791638277888,0.158
1748285791645964591,0.128
1748285791653651294,0.09
1748285791661337997,0.043000000000000003
1748285791669024700,-0.004
1748285791676711403,-0.051000000000000004
1748285791684398106,-0.09
1748285791692084809,-0.121
1748285791699771512,-0.14300000000000002
1748285791707458215,-0.155
1748285791715144918,-0.16
1748285791722831621,-0.16
1748285791730518324,-0.158
1748285791738205027,-0.153
1748285791745891730,-0.148
1748285791753578433,-0.14300000000000002
1748285791761265136,-0.138
1748285791768951839,-0.133
1748285791776638542,-0.128
1748285791784325245,-0.124
1748285791792011948,-0.124
1748285791799698651,-0.121
1748285791807385354,-0.11900000000000001
1748285791815072057,-0.11900000000000001
1748285791822758760,-0.11900000000000001
1748285791830445463,-0.11900000000000001
1748285791838132166,-0.11900000000000001
1748285791845818869,-0.121
1748285791853505572,-0.121
1748285791861192275,-0.11900000000000001
1748285791868878978,-0.116
1748285791876565681,-0.11900000000000001
1748285791884252384,-0.116
1748285791891939087,-0.114
1748285791899625790,-0.114
1748285791907312493,-0.111
1748285791914999196,-0.107
1748285791922685899,-0.10400000000000001
1748285791930372602,-0.10400000000000001
1748285791938059305,-0.10200000000000001
1748285791945746008,-0.097
1748285791953432711,-0.094
1748285791961119414,-0.094
1748285791968806117,-0.09
1748285791976492820,-0.08700000000000001
1748285791984179523,-0.085
1748285791991866226,-0.082
1748285791999552929,-0.08
1748285792007239632,-0.077
1748285792014926335,-0.075
1748285792022613038,-0.075
1748285792030299741,-0.07200000000000001
1748285792037986444,-0.07
1748285792045673147,-0.068
1748285792053359850,-0.068
1748285792061046553,-0.065
1748285792068733256,-0.063
1748285792076419959,-0.065
1748285792084106662,-0.063
1748285792091793365,-0.06
1748285792099480068,-0.058
1748285792107166771,-0.06
1748285792114853534,-0.058,58,1258
1748285792122540655,-0.058
1748285792130227776,-0.055
1748285792137914897,-0.053
1748285792145602018,-0.053
1748285792153289139,-0.053
1748285792160976260,-0.053
1748285792168663381,-0.051000000000000004
1748285792176350502,-0.051000000000000004
1748285792184037623,-0.051000000000000004
1748285792191724744,-0.051000000000000004
1748285792199411865,-0.051000000000000004
1748285792207098986,-0.048
1748285792214786107,-0.048
1748285792222473228,-0.048
1748285792230160349,-0.046
1748285792237847470,-0.046
1748285792245534591,-0.046
1748285792253221712,-0.043000000000000003
1748285792260908833,-0.043000000000000003
1748285792268595954,-0.043000000000000003
1748285792276283075,-0.043000000000000003
1748285792283970196,-0.041
1748285792291657317,-0.041
1748285792299344438,-0.041
1748285792307031559,-0.041
1748285792314718680,-0.041
1748285792322405801,-0.041
1748285792330092922,-0.041
1748285792337780043,-0.041
1748285792345467164,-0.038
1748285792353154285,-0.038
1748285792360841406,-0.041
1748285792368528527,-0.041
1748285792376215648,-0.038
1748285792383902769,-0.038
1748285792391589890,-0.041
1748285792399277011,-0.041
1748285792406964132,-0.038
1748285792414651253,-0.038
1748285792422338374,-0.041
1748285792430025495,-0.043000000000000003
1748285792437712616,-0.046
1748285792445399737,-0.051000000000000004
1748285792453086858,-0.048
1748285792460773979,-0.041
1748285792468461100,-0.026000000000000002
1748285792476148221,-0.012
1748285792483835342,-0.009000000000000001
1748285792491522463,-0.012
1748285792499209584,-0.009000000000000001
1748285792506896705,-0.024
1748285792514583826,-0.046
1748285792522270947,-0.048
1748285792529958068,-0.046
1748285792537645189,-0.051000000000000004
1748285792545332310,-0.048
1748285792553019431,-0.046
1748285792560706552,-0.055
1748285792568393673,-0.092
1748285792576080794,-0.10200000000000001
1748285792583767915,0.187
1748285792591455036,0.888
1748285792599142157,1.372
1748285792606829278,0.929
1748285792614516399,-0.136
1748285792622203520,-0.678
1748285792629890641,-0.394
1748285792637577762,-0.182
1748285792645264883,-0.233
1748285792652952004,-0.153
1748285792660639125,-0.08
1748285792668326246,-0.116
1748285792676013431,-0.107
1748285792683700483,-0.07
1748285792691387535,-0.07
1748285792699074587,-0.07
1748285792706761639,-0.051000000000000004
1748285792714448691,-0.043000000000000003
1748285792722135743,-0.038
1748285792729822795,-0.026000000000000002
1748285792737509847,-0.017
1748285792745196899,-0.012
1748285792752883951,-0.002
1748285792760571003,0.007
1748285792768258055,0.017
1748285792775945107,0.026000000000000002
1748285792783632159,0.036000000000000004
1748285792791319211,0.043000000000000003
1748285792799006263,0.055
1748285792806693315,0.065
1748285792814380367,0.075
1748285792822067419,0.085
1748285792829754471,0.097
1748285792837441523,0.109
1748285792845128575,0.121
1748285792852815627,0.133
1748285792860502679,0.14300000000000002
1748285792868189731,0.15
1748285792875876783,0.155
1748285792883563835,0.158
1748285792891250887,0.158
1748285792898937939,0.153
1748285792906624991,0.148
1748285792914312043,0.133
1748285792921999095,0.111
1748285792929686147,0.077
1748285792937373199,0.036000000000000004
1748285792945060251,-0.004
1748285792952747303,-0.046
1748285792960434355,-0.082
1748285792968121407,-0.109
1748285792975808459,-0.128
1748285792983495511,-0.14300000000000002
1748285792991182563,-0.15
1748285792998869615,-0.15
1748285793006556667,-0.15
1748285793014243719,-0.145
1748285793021930771,-0.14100000000000001
1748285793029617823,-0.138
1748285793037304875,-0.133
1748285793044991927,-0.131
1748285793052678979,-0.128
1748285793060366031,-0.126
1748285793068053083,-0.124
1748285793075740135,-0.121
1748285793083427187,-0.124
1748285793091114239,-0.124
1748285793098801291,-0.124
1748285793106488343,-0.126
1748285793114175395,-0.124
1748285793121862447,-0.126
1748285793129549499,-0.128
1748285793137236551,-0.126
1748285793144923603,-0.124
1748285793152610655,-0.121
1748285793160297707,-0.121
1748285793167984759,-0.11900000000000001
1748285793175671811,-0.116
1748285793183358863,-0.114
1748285793191045915,-0.114
1748285793198732967,-0.111
1748285793206420019,-0.109
1748285793214107071,-0.107
1748285793221794123,-0.10400000000000001
1748285793229481175,-0.10200000000000001
1748285793237168245,-0.099,58,1269
1748285793244855018,-0.097
1748285793252541791,-0.094
1748285793260228564,-0.092
1748285793267915337,-0.09
1748285793275602110,-0.08700000000000001
1748285793283288883,-0.08700000000000001
1748285793290975656,-0.085
1748285793298662429,-0.082
1748285793306349202,-0.08
1748285793314035975,-0.08
1748285793321722748,-0.08
1748285793329409521,-0.077
1748285793337096294,-0.075
1748285793344783067,-0.075
1748285793352469840,-0.07200000000000001
1748285793360156613,-0.07
1748285793367843386,-0.07
1748285793375530159,-0.07
1748285793383216932,-0.07
1748285793390903705,-0.07
1748285793398590478,-0.068
1748285793406277251,-0.063
1748285793413964024,-0.06
1748285793421650797,-0.06
1748285793429337570,-0.058
1748285793437024343,-0.055
1748285793444711116,-0.058
1748285793452397889,-0.058
1748285793460084662,-0.055
1748285793467771435,-0.055
1748285793475458208,-0.055
1748285793483144981,-0.051000000000000004
1748285793490831754,-0.048
1748285793498518527,-0.048
1748285793506205300,-0.048
1748285793513892073,-0.046
1748285793521578846,-0.046
1748285793529265619,-0.046
1748285793536952392,-0.043000000000000003
1748285793544639165,-0.043000000000000003
1748285793552325938,-0.046
1748285793560012711,-0.043000000000000003
1748285793567699484,-0.043000000000000003
1748285793575386257,-0.043000000000000003
1748285793583073030,-0.043000000000000003
1748285793590759803,-0.041
1748285793598446576,-0.041
1748285793606133349,-0.041
1748285793613820122,-0.041
1748285793621506895,-0.041
1748285793629193668,-0.041
1748285793636880441,-0.038
1748285793644567214,-0.038
1748285793652253987,-0.038
1748285793659940760,-0.038
1748285793667627533,-0.038
1748285793675314306,-0.038
1748285793683001079,-0.038
1748285793690687852,-0.038
1748285793698374625,-0.036000000000000004
1748285793706061398,-0.038
1748285793713748171,-0.041
1748285793721434944,-0.041
1748285793729121717,-0.038
1748285793736808490,-0.043000000000000003
1748285793744495263,-0.046
1748285793752182036,-0.046
1748285793759868809,-0.041
1748285793767555582,-0.029
1748285793775242355,-0.009000000000000001
1748285793782929128,-0.004
1748285793790615901,-0.007
1748285793798302707,-0.009000000000000001,57,1175
1748285793805989828,-0.024
1748285793813676949,-0.043000000000000003
1748285793821364070,-0.046
1748285793829051191,-0.043000000000000003
1748285793836738312,-0.046
1748285793844425433,-0.046
1748285793852112554,-0.043000000000000003
1748285793859799675,-0.053
1748285793867486796,-0.09
1748285793875173917,-0.077
1748285793882861038,0.26
1748285793890548159,0.978
1748285793898235280,1.365
1748285793905922401,0.764
1748285793913609522,-0.321
1748285793921296643,-0.727
1748285793928983764,-0.386
1748285793936670885,-0.209
1748285793944358006,-0.243
1748285793952045127,-0.126
1748285793959732248,-0.06
1748285793967419369,-0.10200000000000001
1748285793975106490,-0.085
1748285793982793611,-0.046
1748285793990480732,-0.053
1748285793998167853,-0.048
1748285794005854974,-0.029
1748285794013542095,-0.021
1748285794021229216,-0.021
1748285794028916337,-0.009000000000000001
1748285794036603458,0.0
1748285794044290579,0.007
1748285794051977700,0.014
1748285794059664821,0.024
1748285794067351942,0.031
1748285794075039063,0.041
1748285794082726184,0.051000000000000004
1748285794090413305,0.058
1748285794098100426,0.07
1748285794105787547,0.082
1748285794113474668,0.094
1748285794121161789,0.10400000000000001
1748285794128848910,0.116
1748285794136536031,0.128
1748285794144223152,0.14300000000000002
1748285794151910273,0.155
1748285794159597394,0.165
1748285794167284515,0.17500000000000002
1748285794174971636,0.177
1748285794182658757,0.177
1748285794190345878,0.17200000000000001
1748285794198032999,0.17
1748285794205720120,0.163
1748285794213407241,0.148
1748285794221094362,0.124
1748285794228781483,0.08700000000000001
1748285794236468604,0.041
1748285794244155725,-0.004
1748285794251842846,-0.048
1748285794259529967,-0.08700000000000001
1748285794267217088,-0.116
1748285794274904209,-0.138
1748285794282591330,-0.153
1748285794290278451,-0.155
1748285794297965572,-0.155
1748285794305652693,-0.153
1748285794313339814,-0.148
1748285794321026935,-0.14300000000000002
1748285794328714056,-0.14100000000000001
1748285794336401177,-0.133
1748285794344088298,-0.128
1748285794351775419,-0.126
1748285794359462608,-0.124
1748285794367149451,-0.124
1748285794374836294,-0.126
1748285794382523137,-0.126
1748285794390209980,-0.126
1748285794397896823,-0.126
1748285794405583666,-0.128
1748285794413270509,-0.128
1748285794420957352,-0.128
1748285794428644195,-0.126
1748285794436331038,-0.126
1748285794444017881,-0.126
1748285794451704724,-0.126
1748285794459391567,-0.126
1748285794467078410,-0.124
1748285794474765253,-0.11900000000000001
1748285794482452096,-0.114
1748285794490138939,-0.111
1748285794497825782,-0.111
1748285794505512625,-0.109
1748285794513199468,-0.10400000000000001
1748285794520886311,-0.10200000000000001
1748285794528573154,-0.099
1748285794536259997,-0.094
1748285794543946840,-0.094
1748285794551633683,-0.092
1748285794559320526,-0.08700000000000001
1748285794567007369,-0.085
1748285794574694212,-0.082
1748285794582381055,-0.082
1748285794590067898,-0.08
1748285794597754741,-0.077
1748285794605441584,-0.077
1748285794613128427,-0.075
1748285794620815270,-0.07200000000000001
1748285794628502113,-0.07
1748285794636188956,-0.07
1748285794643875799,-0.068
1748285794651562642,-0.068
1748285794659249485,-0.065
1748285794666936328,-0.063
1748285794674623171,-0.06
1748285794682310014,-0.06
1748285794689996857,-0.058
1748285794697683700,-0.055
1748285794705370543,-0.055
1748285794713057386,-0.053
1748285794720744229,-0.053
1748285794728431072,-0.053
1748285794736117915,-0.051000000000000004
1748285794743804758,-0.048
1748285794751491601,-0.051000000000000004
1748285794759178444,-0.048
1748285794766865287,-0.046
1748285794774552130,-0.046
1748285794782238973,-0.048
1748285794789925816,-0.046
1748285794797612659,-0.043000000000000003
1748285794805299502,-0.043000000000000003
1748285794812986345,-0.043000000000000003
1748285794820673188,-0.041
1748285794828360031,-0.041
1748285794836046874,-0.041
1748285794843733717,-0.038
1748285794851420560,-0.041
1748285794859107403,-0.041
1748285794866794246,-0.041
1748285794874481089,-0.038
1748285794882167932,-0.041
1748285794889854775,-0.041
1748285794897541618,-0.038
1748285794905228461,-0.038
1748285794912915304,-0.038
1748285794920602161,-0.036000000000000004,57
1748285794928289143,-0.036000000000000004
1748285794935976125,-0.036000000000000004
1748285794943663107,-0.038
1748285794951350089,-0.043000000000000003
1748285794959037071,-0.046
1748285794966724053,-0.043000000000000003
1748285794974411035,-0.041
1748285794982098017,-0.029
1748285794989784999,-0.012
1748285794997471981,-0.007
1748285795005158963,-0.007
1748285795012845945,-0.004
1748285795020532927,-0.017
1748285795028219909,-0.041
1748285795035906891,-0.046
1748285795043593873,-0.046
1748285795051280855,-0.048
1748285795058967837,-0.046
1748285795066654819,-0.043000000000000003
1748285795074341801,-0.051000000000000004
1748285795082028783,-0.082
1748285795089715765,-0.099
1748285795097402747,0.14300000000000002
1748285795105089729,0.8200000000000001
1748285795112776711,1.377
1748285795120463693,1.041
1748285795128150675,-0.029
1748285795135837657,-0.681
1748285795143524639,-0.44
1748285795151211621,-0.182
1748285795158898603,-0.226
1748285795166585585,-0.158
1748285795174272567,-0.07
1748285795181959549,-0.10400000000000001
1748285795189646531,-0.10200000000000001
1748285795197333513,-0.063
1748285795205020495,-0.06
1748285795212707477,-0.063
1748285795220394459,-0.043000000000000003
1748285795228081441,-0.034
1748285795235768423,-0.031
1748285795243455405,-0.019
1748285795251142387,-0.009000000000000001
1748285795258829369,-0.002
1748285795266516351,0.007
1748285795274203333,0.017
1748285795281890315,0.026000000000000002
1748285795289577297,0.036000000000000004
1748285795297264279,0.046
1748285795304951261,0.058
1748285795312638243,0.068
1748285795320325225,0.077
1748285795328012207,0.09
1748285795335699189,0.099
1748285795343386171,0.111
1748285795351073153,0.124
1748285795358760135,0.136
1748285795366447117,0.15
1748285795374134099,0.16
1748285795381821081,0.167
1748285795389508063,0.17200000000000001
1748285795397195045,0.17200000000000001
1748285795404882027,0.17200000000000001
1748285795412569009,0.167
1748285795420255991,0.16
1748285795427942973,0.145
1748285795435629955,0.11900000000000001
1748285795443316937,0.082
1748285795451003919,0.041
1748285795458690901,0.0
1748285795466377883,-0.043000000000000003
1748285795474064865,-0.08
1748285795481751884,-0.109
1748285795489439005,-0.126
1748285795497126126,-0.138
1748285795504813247,-0.145
1748285795512500368,-0.145
1748285795520187489,-0.14300000000000002
1748285795527874610,-0.14100000000000001
1748285795535561731,-0.136
1748285795543248852,-0.131
1748285795550935973,-0.128
1748285795558623094,-0.126
1748285795566310215,-0.121
1748285795573997336,-0.121
1748285795581684457,-0.11900000000000001
1748285795589371578,-0.116
1748285795597058699,-0.114
1748285795604745820,-0.116
1748285795612432941,-0.116
1748285795620120062,-0.116
1748285795627807183,-0.116
1748285795635494304,-0.116
1748285795643181425,-0.116
1748285795650868546,-0.116
1748285795658555667,-0.116
1748285795666242788,-0.116
1748285795673929909,-0.116
1748285795681617030,-0.114
1748285795689304151,-0.111
1748285795696991272,-0.109
1748285795704678393,-0.107
1748285795712365514,-0.10400000000000001
1748285795720052635,-0.10400000000000001
1748285795727739756,-0.099
1748285795735426877,-0.094
1748285795743113998,-0.092
1748285795750801119,-0.09
1748285795758488240,-0.08700000000000001
1748285795766175361,-0.085
1748285795773862482,-0.082
1748285795781549603,-0.082
1748285795789236724,-0.08
1748285795796923845,-0.077
1748285795804610966,-0.077
1748285795812298087,-0.075
1748285795819985208,-0.07200000000000001
1748285795827672329,-0.07
1748285795835359450,-0.07
1748285795843046571,-0.07
1748285795850733692,-0.07
1748285795858420813,-0.065
1748285795866107934,-0.065
1748285795873795055,-0.065
1748285795881482176,-0.063
1748285795889169297,-0.063
1748285795896856418,-0.06
1748285795904543539,-0.06
1748285795912230660,-0.06
1748285795919917781,-0.058
1748285795927604902,-0.058
1748285795935292023,-0.055
1748285795942979144,-0.055
1748285795950666265,-0.055
1748285795958353386,-0.053
1748285795966040507,-0.053
1748285795973727628,-0.051000000000000004
1748285795981414749,-0.048
1748285795989101870,-0.048
1748285795996788991,-0.046
1748285796004476112,-0.043000000000000003
1748285796012163233,-0.046
1748285796019850354,-0.046
1748285796027537475,-0.041
1748285796035224596,-0.041
1748285796042911781,-0.043000000000000003,56,1273
1748285796050598484,-0.041
1748285796058285187,-0.036000000000000004
1748285796065971890,-0.036000000000000004
1748285796073658593,-0.038
1748285796081345296,-0.038
1748285796089031999,-0.038
1748285796096718702,-0.038
1748285796104405405,-0.038
1748285796112092108,-0.036000000000000004
1748285796119778811,-0.034
1748285796127465514,-0.036000000000000004
1748285796135152217,-0.036000000000000004
1748285796142838920,-0.036000000000000004
1748285796150525623,-0.034
1748285796158212326,-0.034
1748285796165899029,-0.034
1748285796173585732,-0.038
1748285796181272435,-0.043000000000000003
1748285796188959138,-0.046
1748285796196645841,-0.041
1748285796204332544,-0.034
1748285796212019247,-0.017
1748285796219705950,-0.004
1748285796227392653,-0.007
1748285796235079356,-0.002
1748285796242766059,-0.004
1748285796250452762,-0.026000000000000002
1748285796258139465,-0.041
1748285796265826168,-0.041
1748285796273512871,-0.041
1748285796281199574,-0.043000000000000003
1748285796288886277,-0.038
1748285796296572980,-0.041
1748285796304259683,-0.06
1748285796311946386,-0.10200000000000001
1748285796319633089,-0.019
1748285796327319792,0.47600000000000003
1748285796335006495,1.194
1748285796342693198,1.321
1748285796350379901,0.486
1748285796358066604,-0.486
1748285796365753307,-0.601
1748285796373440010,-0.253
1748285796381126713,-0.197
1748285796388813416,-0.211
1748285796396500119,-0.10200000000000001
1748285796404186822,-0.085
1748285796411873525,-0.116
1748285796419560228,-0.082
1748285796427246931,-0.06
1748285796434933634,-0.068
1748285796442620337,-0.055
1748285796450307040,-0.038
1748285796457993743,-0.036000000000000004
1748285796465680446,-0.029
1748285796473367149,-0.014
1748285796481053852,-0.007
1748285796488740555,-0.002
1748285796496427258,0.009000000000000001
1748285796504113961,0.019
1748285796511800664,0.029
1748285796519487367,0.036000000000000004
1748285796527174070,0.046
1748285796534860773,0.058
1748285796542547476,0.068
1748285796550234179,0.075
1748285796557920882,0.08700000000000001
1748285796565607585,0.099
1748285796573294288,0.111
1748285796580980991,0.124
1748285796588667694,0.136
1748285796596354397,0.145
1748285796604041160,0.155
1748285796611728281,0.163
1748285796619415402,0.165
1748285796627102523,0.165
1748285796634789644,0.163
1748285796642476765,0.155
1748285796650163886,0.14300000000000002
1748285796657851007,0.124
1748285796665538128,0.094
1748285796673225249,0.055
1748285796680912370,0.012
1748285796688599491,-0.031
1748285796696286612,-0.07200000000000001
1748285796703973733,-0.107
1748285796711660854,-0.131
1748285796719347975,-0.148
1748285796727035096,-0.158
1748285796734722217,-0.16
1748285796742409338,-0.16
1748285796750096459,-0.16
1748285796757783580,-0.158
1748285796765470701,-0.153
1748285796773157822,-0.15
1748285796780844943,-0.148
1748285796788532064,-0.145
1748285796796219185,-0.145
1748285796803906306,-0.14300000000000002
1748285796811593427,-0.14300000000000002
1748285796819280548,-0.14300000000000002
1748285796826967669,-0.145
1748285796834654790,-0.145
1748285796842341911,-0.148
1748285796850029032,-0.148
1748285796857716153,-0.15
1748285796865403274,-0.153
1748285796873090395,-0.153
1748285796880777516,-0.153
1748285796888464637,-0.153
1748285796896151758,-0.15
1748285796903838879,-0.153
1748285796911526000,-0.153
1748285796919213121,-0.15
1748285796926900242,-0.15
1748285796934587363,-0.148
1748285796942274484,-0.145
1748285796949961605,-0.14300000000000002
1748285796957648726,-0.14100000000000001
1748285796965335847,-0.14100000000000001
1748285796973022968,-0.14100000000000001
1748285796980710089,-0.138
1748285796988397210,-0.136
1748285796996084331,-0.133
1748285797003771452,-0.133
1748285797011458573,-0.133
1748285797019145694,-0.133
1748285797026832815,-0.131
1748285797034519936,-0.128
1748285797042207057,-0.128
1748285797049894178,-0.128
1748285797057581299,-0.128
1748285797065268420,-0.128
1748285797072955541,-0.128
1748285797080642662,-0.126
1748285797088329783,-0.124
1748285797096016904,-0.126
1748285797103704025,-0.126
1748285797111391146,-0.126
1748285797119078267,-0.126
1748285797126765388,-0.126
1748285797134452509,-0.126
1748285797142139630,-0.124
1748285797149826751,-0.124
1748285797157513872,-0.124
1748285797165201057,-0.121,55,1298
1748285797172888178,-0.121
1748285797180575299,-0.121
1748285797188262420,-0.121
1748285797195949541,-0.11900000000000001
1748285797203636662,-0.11900000000000001
1748285797211323783,-0.11900000000000001
1748285797219010904,-0.11900000000000001
1748285797226698025,-0.116
1748285797234385146,-0.114
1748285797242072267,-0.114
1748285797249759388,-0.114
1748285797257446509,-0.114
1748285797265133630,-0.114
1748285797272820751,-0.114
1748285797280507872,-0.116
1748285797288194993,-0.114
1748285797295882114,-0.111
1748285797303569235,-0.114
1748285797311256356,-0.121
1748285797318943477,-0.121
1748285797326630598,-0.11900000000000001
1748285797334317719,-0.114
1748285797342004840,-0.10400000000000001
1748285797349691961,-0.08700000000000001
1748285797357379082,-0.082
1748285797365066203,-0.082
1748285797372753324,-0.08
1748285797380440445,-0.097
1748285797388127566,-0.11900000000000001
1748285797395814687,-0.11900000000000001
1748285797403501808,-0.114
1748285797411188929,-0.121
1748285797418876050,-0.121
