time,ecg,hr,rr,marker
1748368908095517595,-0.067
1748368908103204716,-0.081
1748368908110891837,-0.048
1748368908118578958,-0.036000000000000004
1748368908126266079,-0.038
1748368908133953200,-0.019
1748368908141640321,-0.007
1748368908149327442,-0.007
1748368908157014563,0.0
1748368908164701684,0.009000000000000001
1748368908172388805,0.019
1748368908180075926,0.031
1748368908187763047,0.043000000000000003
1748368908195450168,0.057
1748368908203137289,0.074
1748368908210824410,0.088
1748368908218511531,0.101
1748368908226198652,0.113
1748368908233885773,0.125
1748368908241572894,0.129
1748368908249260015,0.132
1748368908256947136,0.134
1748368908264634257,0.139
1748368908272321378,0.134
1748368908280008499,0.117
1748368908287695620,0.08600000000000001
1748368908295382741,0.043000000000000003
1748368908303069862,-0.004
1748368908310756983,-0.05
1748368908318444104,-0.084
1748368908326131225,-0.10300000000000001
1748368908333818346,-0.11
1748368908341505467,-0.115
1748368908349192588,-0.113
1748368908356879709,-0.11
1748368908364566830,-0.108
1748368908372253951,-0.10300000000000001
1748368908379941072,-0.098
1748368908387628193,-0.098
1748368908395315314,-0.098
1748368908403002435,-0.096
1748368908410689556,-0.096
1748368908418376677,-0.096
1748368908426063798,-0.096
1748368908433750919,-0.098
1748368908441438040,-0.101
1748368908449125161,-0.10300000000000001
1748368908456812282,-0.105
1748368908464499403,-0.105
1748368908472186524,-0.10300000000000001
1748368908479873645,-0.105
1748368908487560766,-0.105
1748368908495247887,-0.108
1748368908502935008,-0.117
1748368908510622129,-0.12
1748368908518309250,-0.117
1748368908525996371,-0.108
1748368908533683492,-0.093
1748368908541370613,-0.084
1748368908549057734,-0.069
1748368908556744855,-0.045
1748368908564431976,-0.048
1748368908572119097,-0.074
1748368908579806218,-0.084
1748368908587493339,-0.076
1748368908595180460,-0.076
1748368908602867581,-0.074
1748368908610554702,-0.069
1748368908618241823,-0.074
1748368908625928944,-0.108
1748368908633616065,-0.139
1748368908641303186,0.057
1748368908648990307,0.625
1748368908656677492,1.034,95,629
1748368908664364613,0.632,,622
1748368908672051734,-0.228
1748368908679738855,-0.586
1748368908687425976,-0.365
1748368908695113097,-0.223
1748368908702800218,-0.221
1748368908710487339,-0.115
1748368908718174460,-0.052000000000000005
1748368908725861581,-0.079
1748368908733548702,-0.067
1748368908741235823,-0.033
1748368908748922944,-0.031
1748368908756610065,-0.026000000000000002
1748368908764297186,-0.009000000000000001
1748368908771984307,0.0
1748368908779671428,0.007
1748368908787358549,0.016
1748368908795045670,0.024
1748368908802732791,0.033
1748368908810419912,0.048
1748368908818107033,0.06
1748368908825794154,0.069
1748368908833481275,0.08600000000000001
1748368908841168396,0.10300000000000001
1748368908848855517,0.115
1748368908856542638,0.122
1748368908864229759,0.127
1748368908871916880,0.129
1748368908879604001,0.134
1748368908887291122,0.139
1748368908894978243,0.14100000000000001
1748368908902665364,0.129
1748368908910352485,0.105
1748368908918039606,0.07200000000000001
1748368908925726727,0.026000000000000002
1748368908933413848,-0.024
1748368908941100969,-0.064
1748368908948788090,-0.091
1748368908956475211,-0.108
1748368908964162332,-0.117
1748368908971849453,-0.115
1748368908979536574,-0.113
1748368908987223695,-0.11
1748368908994910816,-0.10300000000000001
1748368909002597937,-0.101
1748368909010285058,-0.101
1748368909017972179,-0.096
1748368909025659300,-0.093
1748368909033346421,-0.093
1748368909041033542,-0.093
1748368909048720663,-0.093
1748368909056407784,-0.098
1748368909064094905,-0.101
1748368909071782026,-0.10300000000000001
1748368909079469147,-0.105
1748368909087156268,-0.105
1748368909094843389,-0.10300000000000001
1748368909102530510,-0.108
1748368909110217631,-0.11
1748368909117904752,-0.105
1748368909125591873,-0.10300000000000001
1748368909133278994,-0.115
1748368909140966115,-0.12
1748368909148653236,-0.115
1748368909156340357,-0.108
1748368909164027478,-0.098
1748368909171714599,-0.08600000000000001
1748368909179401720,-0.067
1748368909187088841,-0.04
1748368909194775962,-0.04
1748368909202463083,-0.069
1748368909210150204,-0.081
1748368909217837389,-0.074
1748368909225524510,-0.074
1748368909233211631,-0.07200000000000001
1748368909240898752,-0.064
1748368909248585873,-0.069
1748368909256272994,-0.098
1748368909263960115,-0.132
1748368909271647236,0.036000000000000004
1748368909279334357,0.5690000000000001
1748368909287021478,1.024
1748368909294708599,0.707
1748368909302395720,-0.165
1748368909310082841,-0.622
1748368909317769962,-0.42
1748368909325457083,-0.23
1748368909333144204,-0.223
1748368909340831325,-0.125
1748368909348518446,-0.04
1748368909356205567,-0.064
1748368909363892688,-0.062
1748368909371579809,-0.031
1748368909379266930,-0.026000000000000002
1748368909386954051,-0.019
1748368909394641172,-0.002
1748368909402328293,0.004
1748368909410015414,0.014
1748368909417702535,0.024
1748368909425389656,0.033
1748368909433076777,0.043000000000000003
1748368909440763898,0.057
1748368909448451019,0.074
1748368909456138140,0.091
1748368909463825261,0.10300000000000001
1748368909471512382,0.117
1748368909479199503,0.132
1748368909486886624,0.14100000000000001
1748368909494573745,0.149
1748368909502260866,0.153
1748368909509947987,0.156
1748368909517635108,0.161
1748368909525322229,0.165
1748368909533009350,0.158
1748368909540696471,0.134
1748368909548383592,0.098
1748368909556070713,0.057
1748368909563757834,0.007
1748368909571444955,-0.04
1748368909579132076,-0.07200000000000001
1748368909586819197,-0.088
1748368909594506318,-0.101
1748368909602193439,-0.10300000000000001
1748368909609880560,-0.098
1748368909617567681,-0.096
1748368909625254802,-0.096
1748368909632941923,-0.091
1748368909640629044,-0.088
1748368909648316165,-0.088
1748368909656003286,-0.08600000000000001
1748368909663690407,-0.08600000000000001
1748368909671377528,-0.088
1748368909679064649,-0.091
1748368909686751770,-0.088
1748368909694438891,-0.091
1748368909702126012,-0.096
1748368909709813133,-0.098
1748368909717500254,-0.096
1748368909725187375,-0.096
1748368909732874496,-0.096
1748368909740561617,-0.098
1748368909748248738,-0.105
1748368909755935859,-0.11
1748368909763622980,-0.108
1748368909771310101,-0.105
1748368909778997290,-0.096,95,628
1748368909786684411,-0.08600000000000001
1748368909794371532,-0.081
1748368909802058653,-0.06
1748368909809745774,-0.036000000000000004
1748368909817432895,-0.05
1748368909825120016,-0.076
1748368909832807137,-0.076
1748368909840494258,-0.07200000000000001
1748368909848181379,-0.076
1748368909855868500,-0.074
1748368909863555621,-0.069
1748368909871242742,-0.081
1748368909878929863,-0.12
1748368909886616984,-0.096
1748368909894304105,0.242
1748368909901991226,0.834
1748368909909678347,0.9540000000000001
1748368909917365468,0.211
1748368909925052589,-0.5740000000000001
1748368909932739710,-0.613
1748368909940426831,-0.331
1748368909948113952,-0.271
1748368909955801073,-0.218
1748368909963488194,-0.079
1748368909971175315,-0.05
1748368909978862436,-0.074
1748368909986549557,-0.043000000000000003
1748368909994236678,-0.021
1748368910001923799,-0.024
1748368910009610920,-0.014
1748368910017298041,-0.002
1748368910024985162,0.002
1748368910032672283,0.009000000000000001
1748368910040359404,0.024
1748368910048046525,0.033
1748368910055733646,0.045
1748368910063420767,0.057
1748368910071107888,0.07200000000000001
1748368910078795009,0.091
1748368910086482130,0.105
1748368910094169251,0.117
1748368910101856372,0.132
1748368910109543493,0.146
1748368910117230614,0.151
1748368910124917735,0.153
1748368910132604856,0.156
1748368910140291977,0.161
1748368910147979098,0.158
1748368910155666219,0.139
1748368910163353340,0.105
1748368910171040461,0.064
1748368910178727582,0.007
1748368910186414703,-0.052000000000000005
1748368910194101824,-0.093
1748368910201788945,-0.117
1748368910209476066,-0.132
1748368910217163187,-0.139
1748368910224850308,-0.134
1748368910232537429,-0.129
1748368910240224550,-0.127
1748368910247911671,-0.125
1748368910255598792,-0.117
1748368910263285913,-0.11
1748368910270973034,-0.108
1748368910278660155,-0.113
1748368910286347276,-0.115
1748368910294034397,-0.11
1748368910301721518,-0.108
1748368910309408639,-0.113
1748368910317095760,-0.12
1748368910324782881,-0.12
1748368910332470002,-0.117
1748368910340157187,-0.117
1748368910347844308,-0.12
1748368910355531429,-0.125
1748368910363218550,-0.129
1748368910370905671,-0.137
1748368910378592792,-0.137
1748368910386279913,-0.132
1748368910393967034,-0.122
1748368910401654155,-0.11
1748368910409341276,-0.096
1748368910417028397,-0.069
1748368910424715518,-0.062
1748368910432402639,-0.084
1748368910440089760,-0.101
1748368910447776881,-0.096
1748368910455464002,-0.093
1748368910463151123,-0.093
1748368910470838244,-0.091
1748368910478525365,-0.088
1748368910486212486,-0.113
1748368910493899607,-0.165
1748368910501586728,-0.081
1748368910509273849,0.384
1748368910516960970,0.9520000000000001
1748368910524648091,0.884
1748368910532335212,0.081
1748368910540022333,-0.55
1748368910547709454,-0.452
1748368910555396575,-0.226
1748368910563083696,-0.23
1748368910570770817,-0.17300000000000001
1748368910578457938,-0.079
1748368910586145059,-0.091
1748368910593832180,-0.101
1748368910601519301,-0.064
1748368910609206422,-0.055
1748368910616893543,-0.055
1748368910624580664,-0.04
1748368910632267785,-0.031
1748368910639954906,-0.026000000000000002
1748368910647642027,-0.019
1748368910655329148,-0.009000000000000001
1748368910663016269,-0.004
1748368910670703390,0.002
1748368910678390511,0.019
1748368910686077632,0.031
1748368910693764753,0.04
1748368910701451874,0.055
1748368910709138995,0.062
1748368910716826116,0.07200000000000001
1748368910724513237,0.076
1748368910732200358,0.074
1748368910739887479,0.07200000000000001
1748368910747574600,0.076
1748368910755261721,0.074
1748368910762948842,0.069
1748368910770635963,0.057
1748368910778323084,0.033
1748368910786010205,0.004
1748368910793697326,-0.031
1748368910801384447,-0.074
1748368910809071568,-0.101
1748368910816758689,-0.113
1748368910824445810,-0.122
1748368910832132931,-0.127
1748368910839820052,-0.125
1748368910847507173,-0.122
1748368910855194294,-0.122
1748368910862881415,-0.117
1748368910870568536,-0.113
1748368910878255657,-0.113
1748368910885942778,-0.115
1748368910893629899,-0.115
1748368910901317084,-0.113,95,627
1748368910909004205,-0.113,,631
1748368910916691326,-0.115
1748368910924378447,-0.12
1748368910932065568,-0.122
1748368910939752689,-0.125
1748368910947439810,-0.127
1748368910955126931,-0.125
1748368910962814052,-0.129
1748368910970501173,-0.137
1748368910978188294,-0.14400000000000002
1748368910985875415,-0.146
1748368910993562536,-0.139
1748368911001249657,-0.127
1748368911008936778,-0.12
1748368911016623899,-0.108
1748368911024311020,-0.081
1748368911031998141,-0.064
1748368911039685262,-0.088
1748368911047372383,-0.113
1748368911055059504,-0.108
1748368911062746625,-0.105
1748368911070433746,-0.108
1748368911078120867,-0.10300000000000001
1748368911085807988,-0.101
1748368911093495109,-0.117
1748368911101182230,-0.168
1748368911108869351,-0.149
1748368911116556472,0.202
1748368911124243593,0.808
1748368911131930714,0.9590000000000001
1748368911139617835,0.295
1748368911147304956,-0.464
1748368911154992077,-0.543
1748368911162679198,-0.28800000000000003
1748368911170366319,-0.242
1748368911178053440,-0.221
1748368911185740561,-0.115
1748368911193427682,-0.098
1748368911201114803,-0.117
1748368911208801924,-0.088
1748368911216489045,-0.069
1748368911224176166,-0.07200000000000001
1748368911231863287,-0.062
1748368911239550408,-0.048
1748368911247237529,-0.04
1748368911254924650,-0.033
1748368911262611771,-0.026000000000000002
1748368911270298892,-0.019
1748368911277986013,-0.004
1748368911285673134,0.007
1748368911293360255,0.016
1748368911301047376,0.028
1748368911308734497,0.04
1748368911316421618,0.052000000000000005
1748368911324108739,0.062
1748368911331795860,0.067
1748368911339482981,0.062
1748368911347170102,0.062
1748368911354857223,0.067
1748368911362544344,0.067
1748368911370231465,0.057
1748368911377918586,0.045
1748368911385605707,0.024
1748368911393292828,-0.007
1748368911400979949,-0.05
1748368911408667070,-0.093
1748368911416354191,-0.125
1748368911424041312,-0.139
1748368911431728433,-0.153
1748368911439415554,-0.163
1748368911447102675,-0.161
1748368911454789796,-0.156
1748368911462476981,-0.151
1748368911470164102,-0.149
1748368911477851223,-0.14400000000000002
1748368911485538344,-0.14100000000000001
1748368911493225465,-0.139
1748368911500912586,-0.14100000000000001
1748368911508599707,-0.14400000000000002
1748368911516286828,-0.14400000000000002
1748368911523973949,-0.146
1748368911531661070,-0.149
1748368911539348191,-0.149
1748368911547035312,-0.153
1748368911554722433,-0.158
1748368911562409554,-0.158
1748368911570096675,-0.158
1748368911577783796,-0.165
1748368911585470917,-0.17
1748368911593158038,-0.17300000000000001
1748368911600845159,-0.17
1748368911608532280,-0.156
1748368911616219401,-0.14400000000000002
1748368911623906522,-0.134
1748368911631593643,-0.115
1748368911639280764,-0.096
1748368911646967885,-0.113
1748368911654655006,-0.139
1748368911662342127,-0.139
1748368911670029248,-0.134
1748368911677716369,-0.134
1748368911685403490,-0.129
1748368911693090611,-0.125
1748368911700777732,-0.139
1748368911708464853,-0.187
1748368911716151974,-0.194
1748368911723839095,0.105
1748368911731526216,0.711
1748368911739213337,0.9470000000000001
1748368911746900458,0.343
1748368911754587579,-0.456
1748368911762274700,-0.606
1748368911769961821,-0.339
1748368911777648942,-0.266
1748368911785336063,-0.254
1748368911793023184,-0.139
1748368911800710305,-0.10300000000000001
1748368911808397426,-0.134
1748368911816084547,-0.11
1748368911823771668,-0.084
1748368911831458789,-0.084
1748368911839145910,-0.074
1748368911846833031,-0.055
1748368911854520152,-0.048
1748368911862207273,-0.045
1748368911869894394,-0.036000000000000004
1748368911877581515,-0.021
1748368911885268636,-0.009000000000000001
1748368911892955757,-0.002
1748368911900642878,0.009000000000000001
1748368911908329999,0.028
1748368911916017120,0.045
1748368911923704241,0.057
1748368911931391362,0.067
1748368911939078483,0.07200000000000001
1748368911946765604,0.07200000000000001
1748368911954452725,0.076
1748368911962139846,0.079
1748368911969826967,0.081
1748368911977514088,0.079
1748368911985201209,0.07200000000000001
1748368911992888330,0.05
1748368912000575451,0.014
1748368912008262572,-0.026000000000000002
1748368912015949693,-0.069
1748368912023636878,-0.105,95,619
1748368912031323999,-0.122,,613
1748368912039011120,-0.137
1748368912046698241,-0.14400000000000002
1748368912054385362,-0.14400000000000002
1748368912062072483,-0.137
1748368912069759604,-0.129
1748368912077446725,-0.125
1748368912085133846,-0.122
1748368912092820967,-0.12
1748368912100508088,-0.113
1748368912108195209,-0.113
1748368912115882330,-0.117
1748368912123569451,-0.115
1748368912131256572,-0.113
1748368912138943693,-0.115
1748368912146630814,-0.115
1748368912154317935,-0.113
1748368912162005056,-0.113
1748368912169692177,-0.113
1748368912177379298,-0.115
1748368912185066419,-0.12
1748368912192753540,-0.122
1748368912200440661,-0.122
1748368912208127782,-0.122
1748368912215814903,-0.117
1748368912223502024,-0.105
1748368912231189145,-0.098
1748368912238876266,-0.074
1748368912246563387,-0.043000000000000003
1748368912254250508,-0.048
1748368912261937629,-0.079
1748368912269624750,-0.088
1748368912277311871,-0.081
1748368912284998992,-0.084
1748368912292686113,-0.081
1748368912300373234,-0.07200000000000001
1748368912308060355,-0.076
1748368912315747476,-0.113
1748368912323434597,-0.14400000000000002
1748368912331121718,0.057
1748368912338808839,0.63
1748368912346495960,1.0190000000000001
1748368912354183081,0.577
1748368912361870202,-0.29
1748368912369557323,-0.613
1748368912377244444,-0.355
1748368912384931565,-0.214
1748368912392618686,-0.218
1748368912400305807,-0.105
1748368912407992928,-0.033
1748368912415680049,-0.057
1748368912423367170,-0.045
1748368912431054291,-0.016
1748368912438741412,-0.019
1748368912446428533,-0.007
1748368912454115654,0.012
1748368912461802775,0.016
1748368912469489896,0.021
1748368912477177017,0.033
1748368912484864138,0.045
1748368912492551259,0.057
1748368912500238380,0.074
1748368912507925501,0.088
1748368912515612622,0.101
1748368912523299743,0.115
1748368912530986864,0.129
1748368912538673985,0.14100000000000001
1748368912546361106,0.149
1748368912554048227,0.153
1748368912561735348,0.161
1748368912569422469,0.17
1748368912577109590,0.17500000000000002
1748368912584796775,0.17300000000000001,96,609
1748368912592483966,0.161
1748368912600171157,0.137
1748368912607858348,0.105
1748368912615545539,0.06
1748368912623232730,0.007
1748368912630919921,-0.033
1748368912638607112,-0.06
1748368912646294303,-0.076
1748368912653981494,-0.084
1748368912661668685,-0.084
1748368912669355876,-0.08600000000000001
1748368912677043067,-0.088
1748368912684730258,-0.08600000000000001
1748368912692417449,-0.079
1748368912700104640,-0.079
1748368912707791831,-0.076
1748368912715479022,-0.074
1748368912723166213,-0.07200000000000001
1748368912730853404,-0.07200000000000001
1748368912738540595,-0.074
1748368912746227786,-0.076
1748368912753914977,-0.081
1748368912761602168,-0.084
1748368912769289359,-0.084
1748368912776976550,-0.08600000000000001
1748368912784663741,-0.088
1748368912792350932,-0.084
1748368912800038123,-0.08600000000000001
1748368912807725314,-0.091
1748368912815412505,-0.096
1748368912823099696,-0.098
1748368912830786887,-0.098
1748368912838474078,-0.098
1748368912846161269,-0.088
1748368912853848460,-0.081
1748368912861535651,-0.067
1748368912869222842,-0.036000000000000004
1748368912876910033,-0.024
1748368912884597224,-0.05
1748368912892284415,-0.067
1748368912899971606,-0.06
1748368912907658797,-0.062
1748368912915345988,-0.064
1748368912923033179,-0.057
1748368912930720370,-0.055
1748368912938407561,-0.074
1748368912946094752,-0.117
1748368912953781943,-0.055
1748368912961469134,0.365
1748368912969156325,0.9570000000000001
1748368912976843516,0.966
1748368912984530707,0.168
1748368912992217898,-0.548
1748368912999905089,-0.512
1748368913007592280,-0.254
1748368913015279471,-0.23
1748368913022966662,-0.177
1748368913030653853,-0.057
1748368913038341044,-0.052000000000000005
1748368913046028235,-0.067
1748368913053715426,-0.031
1748368913061402617,-0.014
1748368913069089808,-0.016
1748368913076776999,-0.002
1748368913084464190,0.012
1748368913092151381,0.012
1748368913099838572,0.016
1748368913107525763,0.031
1748368913115212954,0.04
1748368913122900145,0.045
1748368913130587336,0.06
1748368913138274527,0.076
1748368913145961763,0.088
1748368913153648954,0.098
1748368913161336145,0.11
1748368913169023336,0.125
1748368913176710527,0.132
1748368913184397718,0.129
1748368913192084909,0.129
1748368913199772100,0.137
1748368913207459291,0.14100000000000001
1748368913215146482,0.14400000000000002
1748368913222833673,0.132
1748368913230520864,0.105
1748368913238208055,0.07200000000000001
1748368913245895246,0.031
1748368913253582437,-0.012
1748368913261269628,-0.048
1748368913268956819,-0.069
1748368913276644010,-0.084
1748368913284331201,-0.088
1748368913292018392,-0.088
1748368913299705583,-0.088
1748368913307392774,-0.091
1748368913315079965,-0.08600000000000001
1748368913322767156,-0.081
1748368913330454347,-0.081
1748368913338141538,-0.081
1748368913345828729,-0.079
1748368913353515920,-0.079
1748368913361203111,-0.081
1748368913368890302,-0.08600000000000001
1748368913376577493,-0.093
1748368913384264684,-0.091
1748368913391951875,-0.088
1748368913399639066,-0.088
1748368913407326257,-0.091
1748368913415013448,-0.088
1748368913422700639,-0.091
1748368913430387830,-0.088
1748368913438075021,-0.084
1748368913445762212,-0.081
1748368913453449403,-0.084
1748368913461136594,-0.088
1748368913468823785,-0.096
1748368913476510976,-0.098
1748368913484198167,-0.093
1748368913491885358,-0.084
1748368913499572549,-0.074
1748368913507259740,-0.06
1748368913514946931,-0.033
1748368913522634122,-0.024
1748368913530321313,-0.048
1748368913538008504,-0.064
1748368913545695695,-0.06
1748368913553382886,-0.062
1748368913561070077,-0.064
1748368913568757268,-0.06
1748368913576444459,-0.055
1748368913584131650,-0.074
1748368913591818841,-0.117
1748368913599506032,-0.057
1748368913607193223,0.34600000000000003
1748368913614880414,0.9420000000000001
1748368913622567605,1.014
1748368913630254796,0.28600000000000003
1748368913637941987,-0.456
1748368913645629178,-0.48
1748368913653316369,-0.228
1748368913661003560,-0.199
1748368913668690751,-0.163
1748368913676377942,-0.062
1748368913684065133,-0.067
1748368913691752324,-0.08600000000000001
1748368913699439515,-0.045
1748368913707126747,-0.026000000000000002,97,608
1748368913714813938,-0.031,,609
1748368913722501129,-0.016
1748368913730188320,-0.002
1748368913737875511,0.0
1748368913745562702,0.007
1748368913753249893,0.014
1748368913760937084,0.021
1748368913768624275,0.033
1748368913776311466,0.045
1748368913783998657,0.052000000000000005
1748368913791685848,0.06
1748368913799373039,0.069
1748368913807060230,0.081
1748368913814747421,0.088
1748368913822434612,0.091
1748368913830121803,0.088
1748368913837808994,0.091
1748368913845496185,0.096
1748368913853183376,0.096
1748368913860870567,0.096
1748368913868557758,0.091
1748368913876244949,0.076
1748368913883932140,0.05
1748368913891619331,0.019
1748368913899306522,-0.016
1748368913906993713,-0.05
1748368913914680904,-0.069
1748368913922368095,-0.079
1748368913930055286,-0.084
1748368913937742477,-0.088
1748368913945429668,-0.08600000000000001
1748368913953116859,-0.081
1748368913960804050,-0.076
1748368913968491241,-0.076
1748368913976178432,-0.074
1748368913983865623,-0.074
1748368913991552814,-0.074
1748368913999240005,-0.074
1748368914006927196,-0.074
1748368914014614387,-0.079
1748368914022301578,-0.081
1748368914029988769,-0.084
1748368914037675960,-0.084
1748368914045363151,-0.08600000000000001
1748368914053050342,-0.088
1748368914060737533,-0.088
1748368914068424724,-0.08600000000000001
1748368914076111915,-0.084
1748368914083799106,-0.084
1748368914091486297,-0.08600000000000001
1748368914099173488,-0.08600000000000001
1748368914106860679,-0.084
1748368914114547870,-0.084
1748368914122235061,-0.088
1748368914129922252,-0.093
1748368914137609443,-0.096
1748368914145296634,-0.091
1748368914152983825,-0.079
1748368914160671016,-0.067
1748368914168358207,-0.057
1748368914176045398,-0.038
1748368914183732589,-0.024
1748368914191419780,-0.04
1748368914199106971,-0.057
1748368914206794162,-0.062
1748368914214481353,-0.062
1748368914222168544,-0.062
1748368914229855735,-0.057
1748368914237542926,-0.055
1748368914245230117,-0.067
1748368914252917308,-0.105
1748368914260604499,-0.07200000000000001
1748368914268291731,0.29
1748368914275978922,0.887
1748368914283666113,1.029
1748368914291353304,0.35100000000000003
1748368914299040495,-0.432
1748368914306727686,-0.524
1748368914314414877,-0.259
1748368914322102068,-0.211
1748368914329789259,-0.187
1748368914337476450,-0.076
1748368914345163641,-0.062
1748368914352850832,-0.08600000000000001
1748368914360538023,-0.052000000000000005
1748368914368225214,-0.031
1748368914375912405,-0.033
1748368914383599596,-0.024
1748368914391286787,-0.007
1748368914398973978,-0.002
1748368914406661169,0.004
1748368914414348360,0.016
1748368914422035551,0.026000000000000002
1748368914429722742,0.036000000000000004
1748368914437409933,0.05
1748368914445097124,0.06
1748368914452784315,0.067
1748368914460471506,0.076
1748368914468158697,0.088
1748368914475845888,0.098
1748368914483533079,0.101
1748368914491220270,0.101
1748368914498907461,0.10300000000000001
1748368914506594652,0.10300000000000001
1748368914514281843,0.105
1748368914521969034,0.11
1748368914529656225,0.105
1748368914537343416,0.091
1748368914545030607,0.064
1748368914552717798,0.026000000000000002
1748368914560404989,-0.014
1748368914568092180,-0.048
1748368914575779371,-0.07200000000000001
1748368914583466562,-0.088
1748368914591153753,-0.096
1748368914598840944,-0.096
1748368914606528135,-0.096
1748368914614215326,-0.096
1748368914621902517,-0.093
1748368914629589708,-0.088
1748368914637276899,-0.08600000000000001
1748368914644964090,-0.088
1748368914652651281,-0.088
1748368914660338472,-0.091
1748368914668025663,-0.091
1748368914675712854,-0.093
1748368914683400045,-0.096
1748368914691087236,-0.096
1748368914698774427,-0.096
1748368914706461618,-0.098
1748368914714148809,-0.101
1748368914721836000,-0.101
1748368914729523191,-0.098
1748368914737210382,-0.101
1748368914744897573,-0.101
1748368914752584764,-0.096
1748368914760271955,-0.093
1748368914767959146,-0.091
1748368914775646337,-0.091
1748368914783333528,-0.096
1748368914791020719,-0.101
1748368914798707910,-0.10300000000000001
1748368914806395101,-0.105
1748368914814082292,-0.098
1748368914821769483,-0.084
1748368914829456715,-0.07200000000000001,97,627
1748368914837143906,-0.052000000000000005
1748368914844831097,-0.031
1748368914852518288,-0.04
1748368914860205479,-0.067
1748368914867892670,-0.074
1748368914875579861,-0.07200000000000001
1748368914883267052,-0.069
1748368914890954243,-0.067
1748368914898641434,-0.062
1748368914906328625,-0.067
1748368914914015816,-0.096
1748368914921703007,-0.115
1748368914929390198,0.091
1748368914937077389,0.651
1748368914944764580,1.055
1748368914952451771,0.661
1748368914960138962,-0.214
1748368914967826153,-0.601
1748368914975513344,-0.367
1748368914983200535,-0.214
1748368914990887726,-0.223
1748368914998574917,-0.122
1748368915006262108,-0.055
1748368915013949299,-0.084
1748368915021636490,-0.07200000000000001
1748368915029323681,-0.036000000000000004
1748368915037010872,-0.033
1748368915044698063,-0.028
1748368915052385254,-0.014
1748368915060072445,-0.007
1748368915067759636,0.0
1748368915075446827,0.009000000000000001
1748368915083134018,0.016
1748368915090821209,0.024
1748368915098508400,0.036000000000000004
1748368915106195591,0.048
1748368915113882782,0.057
1748368915121569973,0.069
1748368915129257164,0.084
1748368915136944355,0.093
1748368915144631546,0.098
1748368915152318737,0.098
1748368915160005928,0.101
1748368915167693119,0.10300000000000001
1748368915175380310,0.108
1748368915183067501,0.11
1748368915190754692,0.108
1748368915198441883,0.096
1748368915206129074,0.074
1748368915213816265,0.038
1748368915221503456,-0.004
1748368915229190647,-0.045
1748368915236877838,-0.074
1748368915244565029,-0.093
1748368915252252220,-0.105
1748368915259939411,-0.11
1748368915267626602,-0.11
1748368915275313793,-0.108
1748368915283000984,-0.105
1748368915290688175,-0.10300000000000001
1748368915298375366,-0.101
1748368915306062557,-0.101
1748368915313749748,-0.098
1748368915321436939,-0.098
1748368915329124130,-0.101
1748368915336811321,-0.105
1748368915344498512,-0.105
1748368915352185703,-0.108
1748368915359872894,-0.11
1748368915367560085,-0.11
1748368915375247276,-0.11
1748368915382934467,-0.11
1748368915390621699,-0.11
1748368915398308890,-0.108
1748368915405996081,-0.105
1748368915413683272,-0.105
1748368915421370463,-0.101
1748368915429057654,-0.093
1748368915436744845,-0.091
1748368915444432036,-0.098
1748368915452119227,-0.10300000000000001
1748368915459806418,-0.108
1748368915467493609,-0.108
1748368915475180800,-0.098
1748368915482867991,-0.081
1748368915490555182,-0.074
1748368915498242373,-0.062
1748368915505929564,-0.038
1748368915513616755,-0.033
1748368915521303946,-0.06
1748368915528991137,-0.07200000000000001
1748368915536678328,-0.064
1748368915544365519,-0.067
1748368915552052710,-0.069
1748368915559739901,-0.064
1748368915567427092,-0.064
1748368915575114283,-0.08600000000000001
1748368915582801474,-0.122
1748368915590488665,-0.004
1748368915598175856,0.485
1748368915605863047,1.002
1748368915613550238,0.8320000000000001
1748368915621237429,-0.012
1748368915628924620,-0.586
1748368915636611811,-0.444
1748368915644299002,-0.226
1748368915651986193,-0.228
1748368915659673384,-0.153
1748368915667360575,-0.057
1748368915675047766,-0.07200000000000001
1748368915682734957,-0.076
1748368915690422148,-0.043000000000000003
1748368915698109339,-0.036000000000000004
1748368915705796530,-0.031
1748368915713483721,-0.014
1748368915721170912,-0.007
1748368915728858103,-0.004
1748368915736545294,0.004
1748368915744232485,0.016
1748368915751919676,0.026000000000000002
1748368915759606867,0.036000000000000004
1748368915767294058,0.04
1748368915774981249,0.05
1748368915782668440,0.067
1748368915790355631,0.081
1748368915798042822,0.088
1748368915805730013,0.096
1748368915813417204,0.105
1748368915821104395,0.108
1748368915828791586,0.11
1748368915836478777,0.115
1748368915844165968,0.12
1748368915851853159,0.122
1748368915859540350,0.113
1748368915867227541,0.088
1748368915874914732,0.052000000000000005
1748368915882601923,0.009000000000000001
1748368915890289114,-0.033
1748368915897976305,-0.064
1748368915905663496,-0.088
1748368915913350687,-0.10300000000000001
1748368915921037878,-0.108
1748368915928725069,-0.11
1748368915936412260,-0.108
1748368915944099451,-0.105
1748368915951786683,-0.101,97,646
1748368915959473804,-0.098,,662
1748368915967160925,-0.101
1748368915974848046,-0.101
1748368915982535167,-0.101
1748368915990222288,-0.098
1748368915997909409,-0.098
1748368916005596530,-0.10300000000000001
1748368916013283651,-0.105
1748368916020970772,-0.108
1748368916028657893,-0.105
1748368916036345014,-0.105
1748368916044032135,-0.105
1748368916051719256,-0.105
1748368916059406377,-0.105
1748368916067093498,-0.10300000000000001
1748368916074780619,-0.10300000000000001
1748368916082467740,-0.10300000000000001
1748368916090154861,-0.10300000000000001
1748368916097841982,-0.096
1748368916105529103,-0.091
1748368916113216224,-0.096
1748368916120903345,-0.096
1748368916128590466,-0.088
1748368916136277587,-0.091
1748368916143964708,-0.101
1748368916151651829,-0.10300000000000001
1748368916159338950,-0.098
1748368916167026071,-0.088
1748368916174713192,-0.081
1748368916182400313,-0.074
1748368916190087434,-0.052000000000000005
1748368916197774555,-0.04
1748368916205461676,-0.052000000000000005
1748368916213148797,-0.043000000000000003
1748368916220835918,-0.036000000000000004
1748368916228523039,-0.064
1748368916236210160,-0.067
1748368916243897281,-0.031
1748368916251584402,-0.012
1748368916259271523,-0.06
1748368916266958644,-0.14400000000000002
1748368916274645765,-0.151
1748368916282332886,0.125
1748368916290020007,0.704
1748368916297707128,1.036
1748368916305394249,0.581
1748368916313081370,-0.257
1748368916320768491,-0.5720000000000001
1748368916328455612,-0.334
1748368916336142733,-0.17300000000000001
1748368916343829854,-0.151
1748368916351516975,-0.125
1748368916359204096,-0.10300000000000001
1748368916366891217,-0.076
1748368916374578338,-0.064
1748368916382265459,-0.033
1748368916389952580,-0.004
1748368916397639701,-0.026000000000000002
1748368916405326822,-0.038
1748368916413013943,-0.009000000000000001
1748368916420701064,0.028
1748368916428388185,0.067
1748368916436075306,0.033
1748368916443762427,-0.028
1748368916451449548,0.016
1748368916459136669,0.08600000000000001
1748368916466823790,0.064
1748368916474510911,0.06
1748368916482198032,0.105
1748368916489885153,0.129
1748368916497572274,0.115
1748368916505259395,0.098
1748368916512946580,0.096,96,664
1748368916520633841,0.115
1748368916528321102,0.132
1748368916536008363,0.139
1748368916543695624,0.14400000000000002
1748368916551382885,0.132
1748368916559070146,0.108
1748368916566757407,0.081
1748368916574444668,0.038
1748368916582131929,-0.002
1748368916589819190,-0.026000000000000002
1748368916597506451,-0.045
1748368916605193712,-0.062
1748368916612880973,-0.076
1748368916620568234,-0.088
1748368916628255495,-0.081
1748368916635942756,-0.06
1748368916643630017,-0.062
1748368916651317278,-0.084
1748368916659004539,-0.079
1748368916666691800,-0.064
1748368916674379061,-0.07200000000000001
1748368916682066322,-0.079
1748368916689753583,-0.067
1748368916697440844,-0.052000000000000005
1748368916705128105,-0.069
1748368916712815366,-0.088
1748368916720502627,-0.079
1748368916728189888,-0.074
1748368916735877149,-0.084
1748368916743564410,-0.074
1748368916751251671,-0.067
1748368916758938932,-0.084
1748368916766626193,-0.101
1748368916774313454,-0.07200000000000001
1748368916782000715,-0.057
1748368916789687976,-0.093
1748368916797375237,-0.11
1748368916805062498,-0.101
1748368916812749759,-0.098
1748368916820437020,-0.08600000000000001
1748368916828124281,-0.076
1748368916835811542,-0.08600000000000001
1748368916843498803,-0.067
1748368916851186064,-0.033
1748368916858873325,-0.038
1748368916866560586,-0.06
1748368916874247847,-0.067
1748368916881935108,-0.074
1748368916889622369,-0.079
1748368916897309630,-0.064
1748368916904996891,-0.06
1748368916912684152,-0.074
1748368916920371413,-0.088
1748368916928058674,-0.113
1748368916935745935,0.007
1748368916943433196,0.483
1748368916951120457,0.978
1748368916958807718,0.769
1748368916966494979,-0.064
1748368916974182240,-0.584
1748368916981869501,-0.449
1748368916989556762,-0.271
1748368916997244023,-0.269
1748368917004931284,-0.165
1748368917012618545,-0.057
1748368917020305806,-0.076
1748368917027993067,-0.08600000000000001
1748368917035680328,-0.055
1748368917043367589,-0.043000000000000003
1748368917051054850,-0.04
1748368917058742111,-0.033
1748368917066429372,-0.024
1748368917074116651,-0.021
1748368917081803842,-0.016
1748368917089491033,-0.004
1748368917097178224,0.014
1748368917104865415,0.026000000000000002
1748368917112552606,0.033
1748368917120239797,0.045
1748368917127926988,0.06
1748368917135614179,0.069
1748368917143301370,0.081
1748368917150988561,0.091
1748368917158675752,0.093
1748368917166362943,0.101
1748368917174050134,0.108
1748368917181737325,0.113
1748368917189424516,0.12
1748368917197111707,0.117
1748368917204798898,0.098
1748368917212486089,0.062
1748368917220173280,0.019
1748368917227860471,-0.028
1748368917235547662,-0.076
1748368917243234853,-0.12
1748368917250922044,-0.14400000000000002
1748368917258609235,-0.158
1748368917266296426,-0.165
1748368917273983617,-0.163
1748368917281670808,-0.156
1748368917289357999,-0.156
1748368917297045190,-0.158
1748368917304732381,-0.151
1748368917312419572,-0.14400000000000002
1748368917320106763,-0.14400000000000002
1748368917327793954,-0.146
1748368917335481145,-0.146
1748368917343168336,-0.14400000000000002
1748368917350855527,-0.14400000000000002
1748368917358542718,-0.14400000000000002
1748368917366229909,-0.149
1748368917373917100,-0.151
1748368917381604291,-0.146
1748368917389291482,-0.14100000000000001
1748368917396978673,-0.14400000000000002
1748368917404665864,-0.14100000000000001
1748368917412353055,-0.139
1748368917420040246,-0.14400000000000002
1748368917427727437,-0.149
1748368917435414628,-0.151
1748368917443101819,-0.153
1748368917450789010,-0.151
1748368917458476201,-0.137
1748368917466163392,-0.122
1748368917473850583,-0.11
1748368917481537774,-0.084
1748368917489224965,-0.067
1748368917496912156,-0.081
1748368917504599347,-0.10300000000000001
1748368917512286538,-0.108
1748368917519973729,-0.108
1748368917527660920,-0.10300000000000001
1748368917535348111,-0.098
1748368917543035302,-0.096
1748368917550722493,-0.11
1748368917558409684,-0.153
1748368917566096875,-0.101
1748368917573784066,0.295
1748368917581471257,0.88
1748368917589158448,0.937
1748368917596845639,0.214
1748368917604532830,-0.5
1748368917612220021,-0.524
1748368917619907212,-0.28800000000000003
1748368917627594403,-0.259
1748368917635281635,-0.214,94,663
1748368917642968826,-0.101,,689
1748368917650656017,-0.096
1748368917658343208,-0.113
1748368917666030399,-0.079
1748368917673717590,-0.055
1748368917681404781,-0.055
1748368917689091972,-0.045
1748368917696779163,-0.031
1748368917704466354,-0.024
1748368917712153545,-0.019
1748368917719840736,-0.014
1748368917727527927,-0.004
1748368917735215118,0.009000000000000001
1748368917742902309,0.021
1748368917750589500,0.031
1748368917758276691,0.048
1748368917765963882,0.062
1748368917773651073,0.069
1748368917781338264,0.084
1748368917789025455,0.098
1748368917796712646,0.101
1748368917804399837,0.10300000000000001
1748368917812087028,0.11
1748368917819774219,0.113
1748368917827461410,0.11
1748368917835148601,0.105
1748368917842835792,0.08600000000000001
1748368917850522983,0.05
1748368917858210174,0.009000000000000001
1748368917865897365,-0.031
1748368917873584556,-0.069
1748368917881271747,-0.093
1748368917888958938,-0.108
1748368917896646129,-0.115
1748368917904333320,-0.12
1748368917912020511,-0.117
1748368917919707702,-0.113
1748368917927394893,-0.11
1748368917935082084,-0.108
1748368917942769275,-0.105
1748368917950456466,-0.10300000000000001
1748368917958143657,-0.101
1748368917965830848,-0.098
1748368917973518039,-0.101
1748368917981205230,-0.105
1748368917988892421,-0.108
1748368917996579612,-0.113
1748368918004266803,-0.113
1748368918011953994,-0.113
1748368918019641185,-0.113
1748368918027328376,-0.113
1748368918035015567,-0.11
1748368918042702758,-0.113
1748368918050389949,-0.125
1748368918058077140,-0.132
1748368918065764331,-0.125
1748368918073451522,-0.115
1748368918081138713,-0.105
1748368918088825904,-0.098
1748368918096513095,-0.074
1748368918104200286,-0.052000000000000005
1748368918111887477,-0.069
1748368918119574668,-0.093
1748368918127261859,-0.096
1748368918134949050,-0.093
1748368918142636241,-0.098
1748368918150323432,-0.093
1748368918158010623,-0.091
1748368918165697814,-0.098
1748368918173385005,-0.14400000000000002
1748368918181072196,-0.151
1748368918188759387,0.132
1748368918196446619,0.731
1748368918204133810,1.0050000000000001
1748368918211821001,0.452
1748368918219508192,-0.363
1748368918227195383,-0.584
1748368918234882574,-0.339
1748368918242569765,-0.245
1748368918250256956,-0.23500000000000001
1748368918257944147,-0.127
1748368918265631338,-0.084
1748368918273318529,-0.113
1748368918281005720,-0.093
1748368918288692911,-0.064
1748368918296380102,-0.062
1748368918304067293,-0.05
1748368918311754484,-0.038
1748368918319441675,-0.036000000000000004
1748368918327128866,-0.031
1748368918334816057,-0.019
1748368918342503248,-0.012
1748368918350190439,0.0
1748368918357877630,0.012
1748368918365564821,0.021
1748368918373252012,0.033
1748368918380939203,0.048
1748368918388626394,0.06
1748368918396313585,0.067
1748368918404000776,0.076
1748368918411687967,0.084
1748368918419375158,0.084
1748368918427062349,0.08600000000000001
1748368918434749540,0.088
1748368918442436731,0.08600000000000001
1748368918450123922,0.084
1748368918457811113,0.07200000000000001
1748368918465498304,0.036000000000000004
1748368918473185495,-0.009000000000000001
1748368918480872686,-0.05
1748368918488559877,-0.084
1748368918496247068,-0.11
1748368918503934259,-0.127
1748368918511621450,-0.137
1748368918519308641,-0.139
1748368918526995832,-0.139
1748368918534683023,-0.139
1748368918542370214,-0.137
1748368918550057405,-0.132
1748368918557744596,-0.132
1748368918565431787,-0.127
1748368918573118978,-0.129
1748368918580806169,-0.129
1748368918588493360,-0.127
1748368918596180551,-0.132
1748368918603867742,-0.139
1748368918611554933,-0.137
1748368918619242124,-0.134
1748368918626929315,-0.137
1748368918634616506,-0.139
1748368918642303697,-0.14100000000000001
1748368918649990888,-0.151
1748368918657678079,-0.156
1748368918665365270,-0.156
1748368918673052461,-0.151
1748368918680739652,-0.139
1748368918688426843,-0.132
1748368918696114034,-0.115
1748368918703801225,-0.084
1748368918711488416,-0.079
1748368918719175607,-0.108
1748368918726862798,-0.125
1748368918734549989,-0.117
1748368918742237180,-0.117
1748368918749924371,-0.117
1748368918757611603,-0.113,93,656
1748368918765298794,-0.11
1748368918772985985,-0.137
1748368918780673176,-0.189
1748368918788360367,-0.108
1748368918796047558,0.35100000000000003
1748368918803734749,0.896
1748368918811421940,0.803
1748368918819109131,0.014
1748368918826796322,-0.579
1748368918834483513,-0.49
1748368918842170704,-0.274
1748368918849857895,-0.264
1748368918857545086,-0.202
1748368918865232277,-0.10300000000000001
1748368918872919468,-0.11
1748368918880606659,-0.115
1748368918888293850,-0.081
1748368918895981041,-0.074
1748368918903668232,-0.074
1748368918911355423,-0.057
1748368918919042614,-0.05
1748368918926729805,-0.052000000000000005
1748368918934416996,-0.04
1748368918942104187,-0.026000000000000002
1748368918949791378,-0.014
1748368918957478569,0.0
1748368918965165760,0.009000000000000001
1748368918972852951,0.019
1748368918980540142,0.031
1748368918988227333,0.048
1748368918995914524,0.062
1748368919003601715,0.069
1748368919011288906,0.076
1748368919018976097,0.081
1748368919026663288,0.084
1748368919034350479,0.084
1748368919042037670,0.088
1748368919049724861,0.088
1748368919057412052,0.07200000000000001
1748368919065099243,0.048
1748368919072786434,0.016
1748368919080473625,-0.026000000000000002
1748368919088160816,-0.07200000000000001
1748368919095848007,-0.10300000000000001
1748368919103535198,-0.122
1748368919111222389,-0.132
1748368919118909580,-0.134
1748368919126596771,-0.132
1748368919134283962,-0.132
1748368919141971153,-0.132
1748368919149658344,-0.125
1748368919157345535,-0.117
1748368919165032726,-0.117
1748368919172719917,-0.117
1748368919180407108,-0.117
1748368919188094299,-0.117
1748368919195781490,-0.122
1748368919203468681,-0.125
1748368919211155872,-0.122
1748368919218843063,-0.12
1748368919226530254,-0.125
1748368919234217445,-0.127
1748368919241904636,-0.129
1748368919249591827,-0.134
1748368919257279018,-0.139
1748368919264966209,-0.139
1748368919272653400,-0.129
1748368919280340591,-0.117
1748368919288027782,-0.108
1748368919295714973,-0.084
1748368919303402164,-0.064
1748368919311089355,-0.079
1748368919318776587,-0.101
1748368919326463708,-0.101
1748368919334150829,-0.093
1748368919341837950,-0.096
1748368919349525071,-0.091
1748368919357212192,-0.088
1748368919364899313,-0.098
1748368919372586434,-0.139
1748368919380273555,-0.14100000000000001
1748368919387960676,0.151
1748368919395647797,0.745
1748368919403334918,0.9570000000000001
1748368919411022039,0.319
1748368919418709160,-0.485
1748368919426396281,-0.615
1748368919434083402,-0.334
1748368919441770523,-0.247
1748368919449457644,-0.223
1748368919457144765,-0.093
1748368919464831886,-0.048
1748368919472519007,-0.076
1748368919480206128,-0.06
1748368919487893249,-0.031
1748368919495580370,-0.028
1748368919503267491,-0.019
1748368919510954612,-0.002
1748368919518641733,0.0
1748368919526328854,0.002
1748368919534015975,0.019
1748368919541703096,0.031
1748368919549390217,0.04
1748368919557077338,0.052000000000000005
1748368919564764459,0.07200000000000001
1748368919572451580,0.088
1748368919580138701,0.098
1748368919587825822,0.11
1748368919595512943,0.129
1748368919603200064,0.139
1748368919610887185,0.146
1748368919618574306,0.158
1748368919626261427,0.165
1748368919633948548,0.163
1748368919641635669,0.165
1748368919649322790,0.158
1748368919657009911,0.127
1748368919664697032,0.084
1748368919672384153,0.033
1748368919680071274,-0.014
1748368919687758395,-0.052000000000000005
1748368919695445516,-0.081
1748368919703132637,-0.098
1748368919710819758,-0.105
1748368919718506879,-0.108
1748368919726194000,-0.108
1748368919733881121,-0.105
1748368919741568242,-0.10300000000000001
1748368919749255363,-0.098
1748368919756942484,-0.093
1748368919764629605,-0.091
1748368919772316726,-0.088
1748368919780003847,-0.091
1748368919787690968,-0.093
1748368919795378089,-0.096
1748368919803065210,-0.098
1748368919810752331,-0.098
1748368919818439452,-0.105
1748368919826126573,-0.113
1748368919833813694,-0.115
1748368919841500815,-0.113
1748368919849187936,-0.113
1748368919856875057,-0.108
1748368919864562178,-0.10300000000000001
1748368919872249299,-0.101
1748368919879936484,-0.079,93,633
1748368919887623605,-0.05,,617
1748368919895310726,-0.052000000000000005
1748368919902997847,-0.081
1748368919910684968,-0.088
1748368919918372089,-0.081
1748368919926059210,-0.08600000000000001
1748368919933746331,-0.08600000000000001
1748368919941433452,-0.076
1748368919949120573,-0.084
1748368919956807694,-0.117
1748368919964494815,-0.139
1748368919972181936,0.067
1748368919979869057,0.63
1748368919987556178,0.988
1748368919995243299,0.502
1748368920002930420,-0.372
1748368920010617541,-0.656
1748368920018304662,-0.387
1748368920025991783,-0.25
1748368920033678904,-0.245
1748368920041366025,-0.12
1748368920049053146,-0.04
1748368920056740267,-0.062
1748368920064427388,-0.052000000000000005
1748368920072114509,-0.021
1748368920079801630,-0.019
1748368920087488751,-0.014
1748368920095175872,0.0
1748368920102862993,0.004
1748368920110550114,0.009000000000000001
1748368920118237235,0.019
1748368920125924356,0.028
1748368920133611477,0.04
1748368920141298598,0.055
1748368920148985719,0.064
1748368920156672840,0.07200000000000001
1748368920164359961,0.088
1748368920172047082,0.105
1748368920179734203,0.12
1748368920187421324,0.129
1748368920195108445,0.134
1748368920202795566,0.14100000000000001
1748368920210482687,0.146
1748368920218169808,0.151
1748368920225856929,0.156
1748368920233544050,0.151
1748368920241231171,0.132
1748368920248918292,0.098
1748368920256605413,0.05
1748368920264292534,-0.002
1748368920271979655,-0.048
1748368920279666776,-0.074
1748368920287353897,-0.091
1748368920295041018,-0.101
1748368920302728139,-0.105
1748368920310415260,-0.108
1748368920318102381,-0.10300000000000001
1748368920325789502,-0.098
1748368920333476623,-0.096
1748368920341163744,-0.093
1748368920348850865,-0.088
1748368920356537986,-0.08600000000000001
1748368920364225107,-0.08600000000000001
1748368920371912228,-0.088
1748368920379599349,-0.093
1748368920387286470,-0.091
1748368920394973591,-0.091
1748368920402660712,-0.101
1748368920410347833,-0.105
1748368920418034954,-0.108
1748368920425722075,-0.115
1748368920433409196,-0.12
1748368920441096381,-0.113
1748368920448783502,-0.098
1748368920456470623,-0.08600000000000001
1748368920464157744,-0.07200000000000001
1748368920471844865,-0.05
1748368920479531986,-0.045
1748368920487219107,-0.069
1748368920494906228,-0.081
1748368920502593349,-0.076
1748368920510280470,-0.079
1748368920517967591,-0.081
1748368920525654712,-0.07200000000000001
1748368920533341833,-0.074
1748368920541028954,-0.10300000000000001
1748368920548716075,-0.156
1748368920556403196,-0.045
1748368920564090317,0.454
1748368920571777438,1.01
1748368920579464559,0.884
1748368920587151680,0.06
1748368920594838801,-0.521
1748368920602525922,-0.389
1748368920610213043,-0.189
1748368920617900164,-0.211
1748368920625587285,-0.151
1748368920633274406,-0.069
1748368920640961527,-0.08600000000000001
1748368920648648648,-0.084
1748368920656335769,-0.048
1748368920664022890,-0.045
1748368920671710011,-0.045
1748368920679397132,-0.026000000000000002
1748368920687084253,-0.019
1748368920694771374,-0.021
1748368920702458495,-0.009000000000000001
1748368920710145616,0.002
1748368920717832737,0.009000000000000001
1748368920725519858,0.019
1748368920733206979,0.028
1748368920740894100,0.036000000000000004
1748368920748581221,0.045
1748368920756268342,0.057
1748368920763955463,0.064
1748368920771642584,0.069
1748368920779329705,0.07200000000000001
1748368920787016826,0.069
1748368920794703947,0.067
1748368920802391068,0.067
1748368920810078189,0.074
1748368920817765310,0.076
1748368920825452431,0.067
1748368920833139552,0.052000000000000005
1748368920840826673,0.026000000000000002
1748368920848513794,-0.002
1748368920856200915,-0.033
1748368920863888036,-0.057
1748368920871575157,-0.07200000000000001
1748368920879262278,-0.079
1748368920886949399,-0.084
1748368920894636520,-0.084
1748368920902323641,-0.081
1748368920910010762,-0.084
1748368920917697883,-0.084
1748368920925385004,-0.079
1748368920933072125,-0.079
1748368920940759246,-0.081
1748368920948446367,-0.084
1748368920956133488,-0.081
1748368920963820609,-0.081
1748368920971507730,-0.08600000000000001
1748368920979194851,-0.08600000000000001
1748368920986881972,-0.08600000000000001
1748368920994569093,-0.091
1748368921002256278,-0.101,94,604
1748368921009943399,-0.108,,595
1748368921017630520,-0.115
1748368921025317641,-0.11
1748368921033004762,-0.096
1748368921040691883,-0.08600000000000001
1748368921048379004,-0.076
1748368921056066125,-0.052000000000000005
1748368921063753246,-0.038
1748368921071440367,-0.06
1748368921079127488,-0.084
1748368921086814609,-0.081
1748368921094501730,-0.076
1748368921102188851,-0.079
1748368921109875972,-0.076
1748368921117563093,-0.074
1748368921125250214,-0.088
1748368921132937335,-0.139
1748368921140624456,-0.139
1748368921148311577,0.187
1748368921155998698,0.8
1748368921163685819,1.01
1748368921171372940,0.389
1748368921179060061,-0.401
1748368921186747182,-0.531
1748368921194434303,-0.266
1748368921202121424,-0.20400000000000001
1748368921209808545,-0.194
1748368921217495666,-0.088
1748368921225182787,-0.067
1748368921232869908,-0.091
1748368921240557029,-0.06
1748368921248244150,-0.038
1748368921255931271,-0.043000000000000003
1748368921263618392,-0.031
1748368921271305513,-0.016
1748368921278992634,-0.014
1748368921286679755,-0.007
1748368921294366876,0.0
1748368921302053997,0.009000000000000001
1748368921309741118,0.019
1748368921317428239,0.031
1748368921325115360,0.04
1748368921332802481,0.05
1748368921340489602,0.064
1748368921348176723,0.076
1748368921355863844,0.084
1748368921363550965,0.081
1748368921371238086,0.079
1748368921378925207,0.081
1748368921386612328,0.084
1748368921394299449,0.088
1748368921401986570,0.088
1748368921409673691,0.08600000000000001
1748368921417360812,0.07200000000000001
1748368921425047933,0.043000000000000003
1748368921432735054,0.004
1748368921440422175,-0.028
1748368921448109296,-0.057
1748368921455796417,-0.079
1748368921463483538,-0.091
1748368921471170659,-0.098
1748368921478857780,-0.096
1748368921486544901,-0.088
1748368921494232022,-0.088
1748368921501919143,-0.088
1748368921509606264,-0.088
1748368921517293385,-0.08600000000000001
1748368921524980506,-0.084
1748368921532667627,-0.084
1748368921540354748,-0.091
1748368921548041869,-0.098
1748368921555728990,-0.096
1748368921563416175,-0.091,96,586
1748368921571103296,-0.091,,587
1748368921578790417,-0.096
1748368921586477538,-0.098
1748368921594164659,-0.098
1748368921601851780,-0.105
1748368921609538901,-0.11
1748368921617226022,-0.108
1748368921624913143,-0.10300000000000001
1748368921632600264,-0.098
1748368921640287385,-0.091
1748368921647974506,-0.074
1748368921655661627,-0.045
1748368921663348748,-0.04
1748368921671035869,-0.069
1748368921678722990,-0.084
1748368921686410111,-0.076
1748368921694097232,-0.076
1748368921701784353,-0.076
1748368921709471474,-0.069
1748368921717158595,-0.074
1748368921724845716,-0.098
1748368921732532837,-0.137
1748368921740219958,-0.024
1748368921747907079,0.466
1748368921755594200,0.981
1748368921763281321,0.759
1748368921770968442,-0.115
1748368921778655563,-0.651
1748368921786342684,-0.48
1748368921794029805,-0.254
1748368921801716926,-0.247
1748368921809404047,-0.165
1748368921817091168,-0.055
1748368921824778289,-0.06
1748368921832465410,-0.067
1748368921840152531,-0.033
1748368921847839652,-0.024
1748368921855526773,-0.024
1748368921863213894,-0.004
1748368921870901015,0.002
1748368921878588136,0.002
1748368921886275257,0.012
1748368921893962378,0.024
1748368921901649499,0.036000000000000004
1748368921909336620,0.05
1748368921917023741,0.064
1748368921924710862,0.07200000000000001
1748368921932397983,0.088
1748368921940085104,0.10300000000000001
1748368921947772225,0.115
1748368921955459346,0.132
1748368921963146467,0.14100000000000001
1748368921970833588,0.14100000000000001
1748368921978520709,0.146
1748368921986207830,0.156
1748368921993894951,0.163
1748368922001582072,0.163
1748368922009269193,0.149
1748368922016956314,0.122
1748368922024643435,0.081
1748368922032330556,0.031
1748368922040017677,-0.016
1748368922047704798,-0.048
1748368922055391919,-0.067
1748368922063079040,-0.08600000000000001
1748368922070766161,-0.096
1748368922078453282,-0.093
1748368922086140403,-0.093
1748368922093827524,-0.093
1748368922101514645,-0.091
1748368922109201766,-0.096
1748368922116888887,-0.096
1748368922124576072,-0.091
1748368922132263193,-0.093
1748368922139950314,-0.098
1748368922147637435,-0.098
1748368922155324556,-0.101
1748368922163011677,-0.105
1748368922170698798,-0.108
1748368922178385919,-0.11
1748368922186073040,-0.11
1748368922193760161,-0.115
1748368922201447282,-0.12
1748368922209134403,-0.125
1748368922216821524,-0.122
1748368922224508645,-0.115
1748368922232195766,-0.11
1748368922239882887,-0.105
1748368922247570008,-0.084
1748368922255257129,-0.057
1748368922262944250,-0.057
1748368922270631371,-0.084
1748368922278318492,-0.096
1748368922286005613,-0.088
1748368922293692734,-0.091
1748368922301379855,-0.091
1748368922309066976,-0.084
1748368922316754097,-0.084
1748368922324441218,-0.113
1748368922332128339,-0.134
1748368922339815460,0.062
1748368922347502581,0.62
1748368922355189702,1.01
1748368922362876823,0.548
1748368922370563944,-0.365
1748368922378251065,-0.6990000000000001
1748368922385938186,-0.428
1748368922393625307,-0.271
1748368922401312428,-0.262
1748368922408999549,-0.134
1748368922416686670,-0.05
1748368922424373791,-0.074
1748368922432060912,-0.067
1748368922439748033,-0.031
1748368922447435154,-0.028
1748368922455122275,-0.026000000000000002
1748368922462809396,-0.009000000000000001
1748368922470496517,-0.002
1748368922478183638,-0.002
1748368922485870759,0.009000000000000001
1748368922493557880,0.024
1748368922501245001,0.031
1748368922508932122,0.04
1748368922516619243,0.052000000000000005
1748368922524306364,0.064
1748368922531993485,0.076
1748368922539680606,0.088
1748368922547367727,0.101
1748368922555054848,0.11
1748368922562741969,0.115
1748368922570429090,0.12
1748368922578116211,0.127
1748368922585803332,0.132
1748368922593490453,0.132
1748368922601177574,0.129
1748368922608864695,0.115
1748368922616551816,0.079
1748368922624238937,0.033
1748368922631926058,-0.012
1748368922639613179,-0.055
1748368922647300300,-0.08600000000000001
1748368922654987421,-0.108
1748368922662674542,-0.122
1748368922670361663,-0.125
1748368922678048784,-0.125
1748368922685735969,-0.122,97,587
1748368922693423160,-0.12
1748368922701110351,-0.117
1748368922708797542,-0.113
1748368922716484733,-0.11
1748368922724171924,-0.113
1748368922731859115,-0.115
1748368922739546306,-0.115
1748368922747233497,-0.117
1748368922754920688,-0.122
1748368922762607879,-0.122
1748368922770295070,-0.125
1748368922777982261,-0.125
1748368922785669452,-0.125
1748368922793356643,-0.127
1748368922801043834,-0.134
1748368922808731025,-0.139
1748368922816418216,-0.14400000000000002
1748368922824105407,-0.139
1748368922831792598,-0.125
1748368922839479789,-0.113
1748368922847166980,-0.101
1748368922854854171,-0.074
1748368922862541362,-0.064
1748368922870228553,-0.088
1748368922877915744,-0.105
1748368922885602935,-0.101
1748368922893290126,-0.098
1748368922900977317,-0.096
1748368922908664508,-0.091
1748368922916351699,-0.093
1748368922924038890,-0.117
1748368922931726081,-0.163
1748368922939413272,-0.079
1748368922947100463,0.377
1748368922954787654,0.9570000000000001
1748368922962474845,0.9450000000000001
1748368922970162036,0.163
1748368922977849227,-0.519
1748368922985536418,-0.461
1748368922993223609,-0.223
1748368923000910800,-0.226
1748368923008597991,-0.18
1748368923016285182,-0.08600000000000001
1748368923023972373,-0.101
1748368923031659564,-0.11
1748368923039346755,-0.069
1748368923047033946,-0.055
1748368923054721137,-0.06
1748368923062408328,-0.048
1748368923070095519,-0.04
1748368923077782710,-0.036000000000000004
1748368923085469901,-0.024
1748368923093157092,-0.014
1748368923100844283,-0.009000000000000001
1748368923108531474,0.0
1748368923116218665,0.007
1748368923123905856,0.012
1748368923131593047,0.021
1748368923139280238,0.028
1748368923146967429,0.036000000000000004
1748368923154654620,0.04
1748368923162341811,0.045
1748368923170029002,0.04
1748368923177716193,0.036000000000000004
1748368923185403384,0.038
1748368923193090575,0.038
1748368923200777766,0.04
1748368923208464957,0.04
1748368923216152148,0.028
1748368923223839339,0.007
1748368923231526530,-0.019
1748368923239213721,-0.045
1748368923246900957,-0.069
1748368923254588427,-0.08600000000000001
1748368923262275897,-0.096
1748368923269963367,-0.096
1748368923277650837,-0.098
1748368923285338307,-0.101
1748368923293025777,-0.096
1748368923300713247,-0.091
1748368923308400717,-0.091
1748368923316088187,-0.093
1748368923323775657,-0.096
1748368923331463127,-0.096
1748368923339150597,-0.093
1748368923346838067,-0.096
1748368923354525537,-0.101
1748368923362213007,-0.101
1748368923369900477,-0.098
1748368923377587947,-0.098
1748368923385275417,-0.101
1748368923392962887,-0.101
1748368923400650357,-0.10300000000000001
1748368923408337827,-0.115
1748368923416025297,-0.122
1748368923423712767,-0.122
1748368923431400237,-0.117
1748368923439087707,-0.10300000000000001
1748368923446775177,-0.093
1748368923454462647,-0.084
1748368923462150117,-0.062
1748368923469837587,-0.05
1748368923477525057,-0.069
1748368923485212527,-0.088
1748368923492899997,-0.08600000000000001
1748368923500587467,-0.08600000000000001
1748368923508274937,-0.088
1748368923515962407,-0.084
1748368923523649877,-0.079
1748368923531337347,-0.093
1748368923539024817,-0.14400000000000002
1748368923546712287,-0.11
1748368923554399757,0.269
1748368923562087227,0.87
1748368923569774697,0.983
1748368923577462167,0.293
1748368923585149637,-0.456
1748368923592837107,-0.514
1748368923600524577,-0.259
1748368923608212047,-0.221
1748368923615899517,-0.192
1748368923623586987,-0.091
1748368923631274457,-0.08600000000000001
1748368923638961927,-0.105
1748368923646649397,-0.069
1748368923654336867,-0.05
1748368923662024337,-0.052000000000000005
1748368923669711807,-0.04
1748368923677399277,-0.031
1748368923685086747,-0.028
1748368923692774217,-0.019
1748368923700461687,-0.009000000000000001
1748368923708149157,-0.002
1748368923715836627,0.007
1748368923723524097,0.019
1748368923731211567,0.028
1748368923738899037,0.036000000000000004
1748368923746586507,0.045
1748368923754273977,0.057
1748368923761961447,0.06
1748368923769648917,0.06
1748368923777336387,0.057
1748368923785023857,0.06
1748368923792711327,0.062
1748368923800398797,0.062
1748368923808086285,0.062,99,596
1748368923815773406,0.06,,598
1748368923823460527,0.045
1748368923831147648,0.019
1748368923838834769,-0.009000000000000001
1748368923846521890,-0.04
1748368923854209011,-0.069
1748368923861896132,-0.088
1748368923869583253,-0.098
1748368923877270374,-0.105
1748368923884957495,-0.11
1748368923892644616,-0.11
1748368923900331737,-0.11
1748368923908018858,-0.108
1748368923915705979,-0.108
1748368923923393100,-0.105
1748368923931080221,-0.10300000000000001
1748368923938767342,-0.105
1748368923946454463,-0.11
1748368923954141584,-0.11
1748368923961828705,-0.11
1748368923969515826,-0.115
1748368923977202947,-0.115
1748368923984890068,-0.113
1748368923992577189,-0.115
1748368924000264310,-0.117
1748368924007951431,-0.12
1748368924015638552,-0.115
1748368924023325673,-0.115
1748368924031012794,-0.122
1748368924038699915,-0.129
1748368924046387036,-0.132
1748368924054074157,-0.127
1748368924061761278,-0.115
1748368924069448399,-0.10300000000000001
1748368924077135520,-0.096
1748368924084822641,-0.074
1748368924092509762,-0.05
1748368924100196883,-0.062
1748368924107884004,-0.091
1748368924115571125,-0.096
1748368924123258246,-0.088
1748368924130945367,-0.084
1748368924138632488,-0.08600000000000001
1748368924146319609,-0.088
1748368924154006730,-0.091
1748368924161693851,-0.125
1748368924169380972,-0.132
1748368924177068093,0.127
1748368924184755214,0.711
1748368924192442335,1.012
1748368924200129456,0.488
1748368924207816577,-0.355
1748368924215503698,-0.601
1748368924223190819,-0.336
1748368924230877940,-0.226
1748368924238565061,-0.226
1748368924246252182,-0.11
1748368924253939303,-0.062
1748368924261626424,-0.093
1748368924269313545,-0.074
1748368924277000666,-0.043000000000000003
1748368924284687787,-0.043000000000000003
1748368924292374908,-0.038
1748368924300062029,-0.021
1748368924307749150,-0.016
1748368924315436271,-0.009000000000000001
1748368924323123392,0.0
1748368924330810513,0.009000000000000001
1748368924338497634,0.019
1748368924346184755,0.033
1748368924353871876,0.043000000000000003
1748368924361558997,0.052000000000000005
1748368924369246182,0.062
1748368924376933303,0.074
1748368924384620424,0.084
1748368924392307545,0.091
1748368924399994666,0.096
1748368924407681787,0.105
1748368924415368908,0.11
1748368924423056029,0.115
1748368924430743150,0.125
1748368924438430271,0.12
1748368924446117392,0.098
1748368924453804513,0.069
1748368924461491634,0.031
1748368924469178755,-0.007
1748368924476865876,-0.04
1748368924484552997,-0.067
1748368924492240118,-0.088
1748368924499927239,-0.098
1748368924507614360,-0.105
1748368924515301481,-0.11
1748368924522988602,-0.108
1748368924530675723,-0.108
1748368924538362844,-0.108
1748368924546049965,-0.105
1748368924553737086,-0.105
1748368924561424207,-0.108
1748368924569111328,-0.105
1748368924576798449,-0.10300000000000001
1748368924584485570,-0.11
1748368924592172691,-0.113
1748368924599859812,-0.113
1748368924607546933,-0.113
1748368924615234054,-0.115
1748368924622921175,-0.113
1748368924630608296,-0.11
1748368924638295417,-0.108
1748368924645982538,-0.113
1748368924653669659,-0.12
1748368924661356780,-0.12
1748368924669043901,-0.12
1748368924676731022,-0.122
1748368924684418143,-0.113
1748368924692105264,-0.098
1748368924699792385,-0.093
1748368924707479506,-0.074
1748368924715166627,-0.05
1748368924722853748,-0.064
1748368924730540869,-0.091
1748368924738227990,-0.091
1748368924745915111,-0.091
1748368924753602232,-0.091
1748368924761289353,-0.084
1748368924768976474,-0.084
1748368924776663595,-0.093
1748368924784350716,-0.12
1748368924792037837,-0.067
1748368924799724958,0.31
1748368924807412079,0.88
1748368924815099200,0.887
1748368924822786321,0.081
1748368924830473442,-0.637
1748368924838160563,-0.586
1748368924845847684,-0.315
1748368924853534805,-0.276
1748368924861221926,-0.209
1748368924868909047,-0.07200000000000001
1748368924876596168,-0.055
1748368924884283289,-0.076
1748368924891970410,-0.045
1748368924899657531,-0.021
1748368924907344652,-0.021
1748368924915031773,-0.014
1748368924922718894,-0.002
1748368924930406079,0.004,99,604
1748368924938093200,0.012
1748368924945780321,0.024
1748368924953467442,0.036000000000000004
1748368924961154563,0.048
1748368924968841684,0.057
1748368924976528805,0.069
1748368924984215926,0.081
1748368924991903047,0.098
1748368924999590168,0.113
1748368925007277289,0.122
1748368925014964410,0.132
1748368925022651531,0.146
1748368925030338652,0.151
1748368925038025773,0.156
1748368925045712894,0.161
1748368925053400015,0.163
1748368925061087136,0.146
1748368925068774257,0.113
1748368925076461378,0.067
1748368925084148499,0.016
1748368925091835620,-0.036000000000000004
1748368925099522741,-0.079
1748368925107209862,-0.108
1748368925114896983,-0.125
1748368925122584104,-0.137
1748368925130271225,-0.14400000000000002
1748368925137958346,-0.146
1748368925145645467,-0.14100000000000001
1748368925153332588,-0.139
1748368925161019709,-0.137
1748368925168706830,-0.137
1748368925176393951,-0.134
1748368925184081072,-0.132
1748368925191768193,-0.137
1748368925199455314,-0.14100000000000001
1748368925207142435,-0.139
1748368925214829556,-0.139
1748368925222516677,-0.14100000000000001
1748368925230203798,-0.14100000000000001
1748368925237890919,-0.14400000000000002
1748368925245578040,-0.149
1748368925253265161,-0.146
1748368925260952282,-0.149
1748368925268639403,-0.156
1748368925276326524,-0.163
1748368925284013645,-0.163
1748368925291700766,-0.158
1748368925299387887,-0.151
1748368925307075008,-0.14400000000000002
1748368925314762129,-0.132
1748368925322449250,-0.108
1748368925330136371,-0.088
1748368925337823492,-0.105
1748368925345510613,-0.129
1748368925353197734,-0.127
1748368925360884855,-0.125
1748368925368571976,-0.129
1748368925376259097,-0.127
1748368925383946218,-0.12
1748368925391633339,-0.134
1748368925399320460,-0.17300000000000001
1748368925407007581,-0.146
1748368925414694702,0.197
1748368925422381823,0.788
1748368925430068944,0.9570000000000001
1748368925437756065,0.293
1748368925445443186,-0.512
1748368925453130307,-0.613
1748368925460817428,-0.329
1748368925468504549,-0.274
1748368925476191670,-0.254
1748368925483878791,-0.132
1748368925491565976,-0.108
1748368925499253097,-0.137
1748368925506940218,-0.105
1748368925514627339,-0.076
1748368925522314460,-0.081
1748368925530001581,-0.074
1748368925537688702,-0.062
1748368925545375823,-0.057
1748368925553062944,-0.052000000000000005
1748368925560750065,-0.043000000000000003
1748368925568437186,-0.036000000000000004
1748368925576124307,-0.031
1748368925583811428,-0.021
1748368925591498549,-0.009000000000000001
1748368925599185670,0.002
1748368925606872791,0.012
1748368925614559912,0.021
1748368925622247033,0.028
1748368925629934154,0.028
1748368925637621275,0.033
1748368925645308396,0.038
1748368925652995517,0.038
1748368925660682638,0.038
1748368925668369759,0.04
1748368925676056880,0.038
1748368925683744001,0.024
1748368925691431122,-0.002
1748368925699118243,-0.04
1748368925706805364,-0.079
1748368925714492485,-0.105
1748368925722179606,-0.127
1748368925729866727,-0.146
1748368925737553848,-0.153
1748368925745240969,-0.156
1748368925752928090,-0.156
1748368925760615211,-0.156
1748368925768302332,-0.151
1748368925775989453,-0.151
1748368925783676574,-0.153
1748368925791363695,-0.153
1748368925799050816,-0.153
1748368925806737937,-0.153
1748368925814425058,-0.156
1748368925822112179,-0.156
1748368925829799300,-0.156
1748368925837486421,-0.158
1748368925845173542,-0.158
1748368925852860663,-0.158
1748368925860547784,-0.158
1748368925868234905,-0.156
1748368925875922026,-0.156
1748368925883609147,-0.156
1748368925891296268,-0.163
1748368925898983389,-0.17300000000000001
1748368925906670510,-0.17500000000000002
1748368925914357631,-0.161
1748368925922044752,-0.14400000000000002
1748368925929731873,-0.137
1748368925937418994,-0.117
1748368925945106115,-0.091
1748368925952793236,-0.096
1748368925960480357,-0.125
1748368925968167478,-0.134
1748368925975854599,-0.127
1748368925983541720,-0.127
1748368925991228841,-0.122
1748368925998915962,-0.117
1748368926006603083,-0.125
1748368926014290204,-0.151
1748368926021977325,-0.185
1748368926029664446,-0.033
1748368926037351567,0.48
1748368926045038688,0.966
1748368926052725873,0.743,99,608
1748368926060413064,-0.098,,625
1748368926068100255,-0.615
1748368926075787446,-0.442
1748368926083474637,-0.247
1748368926091161828,-0.259
1748368926098849019,-0.18
1748368926106536210,-0.101
1748368926114223401,-0.127
1748368926121910592,-0.122
1748368926129597783,-0.081
1748368926137284974,-0.076
1748368926144972165,-0.076
1748368926152659356,-0.062
1748368926160346547,-0.052000000000000005
1748368926168033738,-0.048
1748368926175720929,-0.043000000000000003
1748368926183408120,-0.031
1748368926191095311,-0.024
1748368926198782502,-0.016
1748368926206469693,-0.009000000000000001
1748368926214156884,0.0
1748368926221844075,0.012
1748368926229531266,0.021
1748368926237218457,0.024
1748368926244905648,0.024
1748368926252592839,0.026000000000000002
1748368926260280030,0.028
1748368926267967221,0.028
1748368926275654412,0.028
1748368926283341603,0.033
1748368926291028794,0.036000000000000004
1748368926298715985,0.028
1748368926306403176,0.009000000000000001
1748368926314090367,-0.016
1748368926321777558,-0.045
1748368926329464749,-0.079
1748368926337151940,-0.105
1748368926344839131,-0.122
1748368926352526322,-0.134
1748368926360213513,-0.139
1748368926367900704,-0.134
1748368926375587895,-0.132
1748368926383275086,-0.129
1748368926390962277,-0.127
1748368926398649468,-0.127
1748368926406336659,-0.129
1748368926414023850,-0.129
1748368926421711041,-0.127
1748368926429398232,-0.129
1748368926437085423,-0.129
1748368926444772614,-0.127
1748368926452459805,-0.129
1748368926460146996,-0.132
1748368926467834187,-0.132
1748368926475521378,-0.132
1748368926483208569,-0.132
1748368926490895760,-0.134
1748368926498582951,-0.132
1748368926506270142,-0.129
1748368926513957333,-0.132
1748368926521644524,-0.137
1748368926529331715,-0.14400000000000002
1748368926537018906,-0.149
1748368926544706097,-0.146
1748368926552393288,-0.132
1748368926560080479,-0.117
1748368926567767670,-0.108
1748368926575454861,-0.08600000000000001
1748368926583142052,-0.07200000000000001
1748368926590829243,-0.088
1748368926598516434,-0.11
1748368926606203625,-0.113
1748368926613890861,-0.113,98,620
1748368926621578052,-0.11,,616
1748368926629265243,-0.105
1748368926636952434,-0.10300000000000001
1748368926644639625,-0.113
1748368926652326816,-0.149
1748368926660014007,-0.132
1748368926667701198,0.182
1748368926675388389,0.764
1748368926683075580,0.9590000000000001
1748368926690762771,0.341
1748368926698449962,-0.459
1748368926706137153,-0.596
1748368926713824344,-0.322
1748368926721511535,-0.245
1748368926729198726,-0.226
1748368926736885917,-0.115
1748368926744573108,-0.088
1748368926752260299,-0.113
1748368926759947490,-0.08600000000000001
1748368926767634681,-0.06
1748368926775321872,-0.06
1748368926783009063,-0.048
1748368926790696254,-0.038
1748368926798383445,-0.036000000000000004
1748368926806070636,-0.028
1748368926813757827,-0.014
1748368926821445018,-0.004
1748368926829132209,0.004
1748368926836819400,0.014
1748368926844506591,0.024
1748368926852193782,0.033
1748368926859880973,0.043000000000000003
1748368926867568164,0.055
1748368926875255355,0.062
1748368926882942546,0.062
1748368926890629737,0.067
1748368926898316928,0.074
1748368926906004119,0.076
1748368926913691310,0.081
1748368926921378501,0.08600000000000001
1748368926929065692,0.084
1748368926936752883,0.067
1748368926944440074,0.038
1748368926952127265,0.004
1748368926959814456,-0.033
1748368926967501647,-0.069
1748368926975188838,-0.091
1748368926982876029,-0.105
1748368926990563220,-0.117
1748368926998250411,-0.122
1748368927005937602,-0.122
1748368927013624793,-0.117
1748368927021311984,-0.115
1748368927028999175,-0.115
1748368927036686366,-0.11
1748368927044373557,-0.11
1748368927052060748,-0.11
1748368927059747939,-0.11
1748368927067435130,-0.11
1748368927075122321,-0.108
1748368927082809512,-0.11
1748368927090496703,-0.115
1748368927098183894,-0.115
1748368927105871085,-0.115
1748368927113558276,-0.115
1748368927121245467,-0.113
1748368927128932658,-0.11
1748368927136619849,-0.11
1748368927144307040,-0.113
1748368927151994231,-0.113
1748368927159681422,-0.108
1748368927167368613,-0.11
1748368927175055845,-0.117
1748368927182743245,-0.12
1748368927190430645,-0.117
1748368927198118045,-0.11
1748368927205805445,-0.098
1748368927213492845,-0.084
1748368927221180245,-0.069
1748368927228867645,-0.048
1748368927236555045,-0.045
1748368927244242445,-0.07200000000000001
1748368927251929845,-0.084
1748368927259617245,-0.076
1748368927267304645,-0.076
1748368927274992045,-0.076
1748368927282679445,-0.07200000000000001
1748368927290366845,-0.07200000000000001
1748368927298054245,-0.096
1748368927305741645,-0.127
1748368927313429045,0.004
1748368927321116445,0.492
1748368927328803845,0.971
1748368927336491245,0.75
1748368927344178645,-0.093
1748368927351866045,-0.615
1748368927359553445,-0.437
1748368927367240845,-0.223
1748368927374928245,-0.226
1748368927382615645,-0.137
1748368927390303045,-0.045
1748368927397990445,-0.064
1748368927405677845,-0.064
1748368927413365245,-0.028
1748368927421052645,-0.019
1748368927428740045,-0.019
1748368927436427445,-0.002
1748368927444114845,0.004
1748368927451802245,0.004
1748368927459489645,0.014
1748368927467177045,0.021
1748368927474864445,0.026000000000000002
1748368927482551845,0.036000000000000004
1748368927490239245,0.05
1748368927497926645,0.06
1748368927505614045,0.069
1748368927513301445,0.081
1748368927520988845,0.093
1748368927528676245,0.101
1748368927536363645,0.10300000000000001
1748368927544051045,0.11
1748368927551738445,0.117
1748368927559425845,0.125
1748368927567113245,0.132
1748368927574800645,0.134
1748368927582488045,0.12
1748368927590175445,0.093
1748368927597862845,0.057
1748368927605550245,0.016
1748368927613237645,-0.021
1748368927620925045,-0.05
1748368927628612445,-0.07200000000000001
1748368927636299845,-0.08600000000000001
1748368927643987245,-0.093
1748368927651674645,-0.096
1748368927659362045,-0.096
1748368927667049445,-0.096
1748368927674736845,-0.096
1748368927682424245,-0.093
1748368927690111645,-0.093
1748368927697799045,-0.093
1748368927705486445,-0.093
1748368927713173845,-0.093
1748368927720861245,-0.096
1748368927728548645,-0.098
1748368927736236086,-0.098,98,619
1748368927743923486,-0.098
1748368927751610886,-0.101
1748368927759298286,-0.101
1748368927766985686,-0.101
1748368927774673086,-0.098
1748368927782360486,-0.096
1748368927790047886,-0.096
1748368927797735286,-0.098
1748368927805422686,-0.096
1748368927813110086,-0.096
1748368927820797486,-0.101
1748368927828484886,-0.105
1748368927836172286,-0.11
1748368927843859686,-0.105
1748368927851547086,-0.091
1748368927859234486,-0.079
1748368927866921886,-0.074
1748368927874609286,-0.052000000000000005
1748368927882296686,-0.031
1748368927889984086,-0.045
1748368927897671486,-0.069
1748368927905358886,-0.07200000000000001
1748368927913046286,-0.067
1748368927920733686,-0.067
1748368927928421086,-0.064
1748368927936108486,-0.062
1748368927943795886,-0.07200000000000001
1748368927951483286,-0.105
1748368927959170686,-0.084
1748368927966858086,0.228
1748368927974545486,0.798
1748368927982232886,0.978
1748368927989920286,0.341
1748368927997607686,-0.454
1748368928005295086,-0.5720000000000001
1748368928012982486,-0.293
1748368928020669886,-0.216
1748368928028357286,-0.187
1748368928036044686,-0.067
1748368928043732086,-0.04
1748368928051419486,-0.069
1748368928059106886,-0.04
1748368928066794286,-0.014
1748368928074481686,-0.014
1748368928082169086,-0.002
1748368928089856486,0.009000000000000001
1748368928097543886,0.012
1748368928105231286,0.016
1748368928112918686,0.028
1748368928120606086,0.036000000000000004
1748368928128293486,0.043000000000000003
1748368928135980886,0.055
1748368928143668286,0.064
1748368928151355686,0.074
1748368928159043086,0.084
1748368928166730486,0.096
1748368928174417886,0.105
1748368928182105286,0.113
1748368928189792686,0.122
1748368928197480086,0.132
1748368928205167486,0.14100000000000001
1748368928212854886,0.146
1748368928220542286,0.151
1748368928228229686,0.146
1748368928235917086,0.122
1748368928243604486,0.08600000000000001
1748368928251291886,0.043000000000000003
1748368928258979286,0.0
1748368928266666686,-0.038
1748368928274354086,-0.064
1748368928282041486,-0.084
1748368928289728886,-0.096
1748368928297416331,-0.101
1748368928305103522,-0.101
1748368928312790713,-0.098
1748368928320477904,-0.101
1748368928328165095,-0.096
1748368928335852286,-0.093
1748368928343539477,-0.096
1748368928351226668,-0.096
1748368928358913859,-0.096
1748368928366601050,-0.098
1748368928374288241,-0.10300000000000001
1748368928381975432,-0.10300000000000001
1748368928389662623,-0.105
1748368928397349814,-0.105
1748368928405037005,-0.108
1748368928412724196,-0.105
1748368928420411387,-0.10300000000000001
1748368928428098578,-0.10300000000000001
1748368928435785769,-0.101
1748368928443472960,-0.098
1748368928451160151,-0.098
1748368928458847342,-0.101
1748368928466534533,-0.10300000000000001
1748368928474221724,-0.11
1748368928481908915,-0.113
1748368928489596106,-0.108
1748368928497283297,-0.096
1748368928504970488,-0.08600000000000001
1748368928512657679,-0.074
1748368928520344870,-0.048
1748368928528032061,-0.033
1748368928535719252,-0.052000000000000005
1748368928543406443,-0.074
1748368928551093634,-0.07200000000000001
1748368928558780825,-0.069
1748368928566468016,-0.074
1748368928574155207,-0.069
1748368928581842398,-0.067
1748368928589529589,-0.079
1748368928597216780,-0.115
1748368928604903971,-0.07200000000000001
1748368928612591162,0.29
1748368928620278353,0.853
1748368928627965544,0.928
1748368928635652735,0.209
1748368928643339926,-0.529
1748368928651027117,-0.545
1748368928658714308,-0.274
1748368928666401499,-0.226
1748368928674088690,-0.182
1748368928681775881,-0.064
1748368928689463072,-0.055
1748368928697150263,-0.076
1748368928704837454,-0.045
1748368928712524645,-0.024
1748368928720211836,-0.024
1748368928727899027,-0.009000000000000001
1748368928735586218,0.0
1748368928743273409,0.002
1748368928750960600,0.009000000000000001
1748368928758647791,0.016
1748368928766334982,0.026000000000000002
1748368928774022173,0.036000000000000004
1748368928781709364,0.045
1748368928789396555,0.055
1748368928797083746,0.067
1748368928804770937,0.079
1748368928812458128,0.088
1748368928820145319,0.101
1748368928827832510,0.108
1748368928835519701,0.115
1748368928843206892,0.122
1748368928850894083,0.129
1748368928858581315,0.137,98,634
1748368928866268506,0.137,,649
1748368928873955697,0.127
1748368928881642888,0.101
1748368928889330079,0.062
1748368928897017270,0.019
1748368928904704461,-0.024
1748368928912391652,-0.06
1748368928920078843,-0.08600000000000001
1748368928927766034,-0.10300000000000001
1748368928935453225,-0.113
1748368928943140416,-0.115
1748368928950827607,-0.115
1748368928958514798,-0.11
1748368928966201989,-0.108
1748368928973889180,-0.108
1748368928981576371,-0.108
1748368928989263562,-0.105
1748368928996950753,-0.105
1748368929004637944,-0.108
1748368929012325135,-0.11
1748368929020012326,-0.108
1748368929027699517,-0.11
1748368929035386708,-0.113
1748368929043073899,-0.113
1748368929050761090,-0.11
1748368929058448281,-0.108
1748368929066135472,-0.108
1748368929073822663,-0.11
1748368929081509854,-0.11
1748368929089197045,-0.105
1748368929096884236,-0.10300000000000001
1748368929104571427,-0.108
1748368929112258618,-0.115
1748368929119945809,-0.117
1748368929127633000,-0.117
1748368929135320191,-0.11
1748368929143007382,-0.098
1748368929150694573,-0.088
1748368929158381764,-0.076
1748368929166068955,-0.05
1748368929173756146,-0.04
1748368929181443337,-0.067
1748368929189130528,-0.084
1748368929196817719,-0.079
1748368929204504910,-0.079
1748368929212192101,-0.081
1748368929219879292,-0.074
1748368929227566483,-0.07200000000000001
1748368929235253674,-0.088
1748368929242940865,-0.122
1748368929250628056,-0.028
1748368929258315247,0.40800000000000003
1748368929266002438,0.93
1748368929273689629,0.8290000000000001
1748368929281376820,0.014
1748368929289064011,-0.606
1748368929296751202,-0.492
1748368929304438393,-0.25
1748368929312125584,-0.23500000000000001
1748368929319812775,-0.158
1748368929327499966,-0.052000000000000005
1748368929335187157,-0.062
1748368929342874348,-0.074
1748368929350561539,-0.038
1748368929358248730,-0.026000000000000002
1748368929365935921,-0.026000000000000002
1748368929373623112,-0.009000000000000001
1748368929381310303,0.0
1748368929388997494,0.004
1748368929396684685,0.012
1748368929404371876,0.019
1748368929412059067,0.026000000000000002
1748368929419746299,0.036000000000000004
1748368929427433420,0.045
1748368929435120541,0.055
1748368929442807662,0.067
1748368929450494783,0.079
1748368929458181904,0.091
1748368929465869025,0.101
1748368929473556146,0.108
1748368929481243267,0.113
1748368929488930388,0.122
1748368929496617509,0.129
1748368929504304630,0.137
1748368929511991751,0.139
1748368929519678872,0.129
1748368929527365993,0.098
1748368929535053114,0.055
1748368929542740235,0.007
1748368929550427356,-0.036000000000000004
1748368929558114477,-0.069
1748368929565801598,-0.093
1748368929573488719,-0.113
1748368929581175840,-0.12
1748368929588862961,-0.12
1748368929596550082,-0.12
1748368929604237203,-0.117
1748368929611924324,-0.115
1748368929619611445,-0.113
1748368929627298566,-0.113
1748368929634985687,-0.113
1748368929642672808,-0.113
1748368929650359929,-0.115
1748368929658047050,-0.117
1748368929665734171,-0.117
1748368929673421292,-0.117
1748368929681108413,-0.117
1748368929688795534,-0.117
1748368929696482655,-0.117
1748368929704169776,-0.113
1748368929711856897,-0.11
1748368929719544018,-0.115
1748368929727231139,-0.113
1748368929734918260,-0.105
1748368929742605381,-0.113
1748368929750292502,-0.125
1748368929757979623,-0.127
1748368929765666744,-0.12
1748368929773353865,-0.113
1748368929781040986,-0.10300000000000001
1748368929788728107,-0.091
1748368929796415228,-0.074
1748368929804102349,-0.048
1748368929811789470,-0.048
1748368929819476591,-0.074
1748368929827163712,-0.084
1748368929834850833,-0.079
1748368929842537954,-0.081
1748368929850225075,-0.079
1748368929857912196,-0.07200000000000001
1748368929865599317,-0.076
1748368929873286438,-0.10300000000000001
1748368929880973559,-0.127
1748368929888660680,0.05
1748368929896347801,0.577
1748368929904034922,0.99
1748368929911722043,0.63
1748368929919409164,-0.233
1748368929927096285,-0.63
1748368929934783406,-0.399
1748368929942470527,-0.23
1748368929950157648,-0.228
1748368929957844769,-0.12
1748368929965531890,-0.045
1748368929973219011,-0.07200000000000001
1748368929980906196,-0.062,97,649
1748368929988593317,-0.031
1748368929996280438,-0.026000000000000002
1748368930003967559,-0.021
1748368930011654680,-0.007
1748368930019341801,-0.002
1748368930027028922,0.004
1748368930034716043,0.016
1748368930042403164,0.024
1748368930050090285,0.028
1748368930057777406,0.036000000000000004
1748368930065464527,0.05
1748368930073151648,0.064
1748368930080838769,0.076
1748368930088525890,0.088
1748368930096213011,0.096
1748368930103900132,0.10300000000000001
1748368930111587253,0.113
1748368930119274374,0.122
1748368930126961495,0.129
1748368930134648616,0.139
1748368930142335737,0.14400000000000002
1748368930150022858,0.137
1748368930157709979,0.115
1748368930165397100,0.081
1748368930173084221,0.038
1748368930180771342,-0.009000000000000001
1748368930188458463,-0.052000000000000005
1748368930196145584,-0.081
1748368930203832705,-0.101
1748368930211519826,-0.113
1748368930219206947,-0.115
1748368930226894068,-0.115
1748368930234581189,-0.113
1748368930242268310,-0.113
1748368930249955431,-0.113
1748368930257642552,-0.108
1748368930265329673,-0.108
1748368930273016794,-0.11
1748368930280703915,-0.108
1748368930288391036,-0.105
1748368930296078157,-0.11
1748368930303765278,-0.113
1748368930311452399,-0.113
1748368930319139520,-0.113
1748368930326826641,-0.115
1748368930334513762,-0.113
1748368930342200883,-0.11
1748368930349888004,-0.11
1748368930357575125,-0.11
1748368930365262246,-0.108
1748368930372949367,-0.105
1748368930380636488,-0.11
1748368930388323609,-0.12
1748368930396010730,-0.125
1748368930403697851,-0.122
1748368930411384972,-0.113
1748368930419072093,-0.101
1748368930426759214,-0.088
1748368930434446335,-0.067
1748368930442133456,-0.048
1748368930449820577,-0.064
1748368930457507698,-0.088
1748368930465194819,-0.091
1748368930472881940,-0.08600000000000001
1748368930480569061,-0.08600000000000001
1748368930488256182,-0.084
1748368930495943303,-0.081
1748368930503630424,-0.091
1748368930511317545,-0.125
1748368930519004666,-0.11
1748368930526691787,0.194
1748368930534378908,0.764
1748368930542066093,0.9490000000000001,95,645
1748368930549753214,0.317,,645
1748368930557440335,-0.47600000000000003
1748368930565127456,-0.593
1748368930572814577,-0.319
1748368930580501698,-0.23500000000000001
1748368930588188819,-0.202
1748368930595875940,-0.08600000000000001
1748368930603563061,-0.062
1748368930611250182,-0.08600000000000001
1748368930618937303,-0.057
1748368930626624424,-0.036000000000000004
1748368930634311545,-0.036000000000000004
1748368930641998666,-0.026000000000000002
1748368930649685787,-0.012
1748368930657372908,-0.007
1748368930665060029,0.0
1748368930672747150,0.009000000000000001
1748368930680434271,0.014
1748368930688121392,0.024
1748368930695808513,0.033
1748368930703495634,0.043000000000000003
1748368930711182755,0.055
1748368930718869876,0.07200000000000001
1748368930726556997,0.081
1748368930734244118,0.091
1748368930741931239,0.10300000000000001
1748368930749618360,0.11
1748368930757305481,0.113
1748368930764992602,0.12
1748368930772679723,0.127
1748368930780366844,0.132
1748368930788053965,0.125
1748368930795741086,0.098
1748368930803428207,0.057
1748368930811115328,0.009000000000000001
1748368930818802449,-0.038
1748368930826489570,-0.079
1748368930834176691,-0.108
1748368930841863812,-0.125
1748368930849550933,-0.134
1748368930857238054,-0.137
1748368930864925175,-0.139
1748368930872612296,-0.137
1748368930880299417,-0.134
1748368930887986538,-0.134
1748368930895673659,-0.134
1748368930903360780,-0.132
1748368930911047901,-0.132
1748368930918735022,-0.134
1748368930926422143,-0.134
1748368930934109264,-0.134
1748368930941796385,-0.139
1748368930949483506,-0.14100000000000001
1748368930957170627,-0.14400000000000002
1748368930964857748,-0.14100000000000001
1748368930972544869,-0.14100000000000001
1748368930980231990,-0.14100000000000001
1748368930987919111,-0.14100000000000001
1748368930995606232,-0.14100000000000001
1748368931003293353,-0.146
1748368931010980474,-0.151
1748368931018667595,-0.158
1748368931026354716,-0.158
1748368931034041837,-0.149
1748368931041728958,-0.137
1748368931049416079,-0.132
1748368931057103200,-0.115
1748368931064790321,-0.088
1748368931072477442,-0.091
1748368931080164563,-0.12
1748368931087851684,-0.129
1748368931095538805,-0.125
1748368931103225990,-0.125
1748368931110913111,-0.125
1748368931118600232,-0.117
1748368931126287353,-0.122
1748368931133974474,-0.151
1748368931141661595,-0.18
1748368931149348716,-0.009000000000000001
1748368931157035837,0.514
1748368931164722958,0.925
1748368931172410079,0.5720000000000001
1748368931180097200,-0.274
1748368931187784321,-0.668
1748368931195471442,-0.452
1748368931203158563,-0.28300000000000003
1748368931210845684,-0.274
1748368931218532805,-0.17300000000000001
1748368931226219926,-0.098
1748368931233907047,-0.122
1748368931241594168,-0.115
1748368931249281289,-0.081
1748368931256968410,-0.079
1748368931264655531,-0.074
1748368931272342652,-0.057
1748368931280029773,-0.048
1748368931287716894,-0.045
1748368931295404015,-0.036000000000000004
1748368931303091136,-0.024
1748368931310778257,-0.016
1748368931318465378,-0.009000000000000001
1748368931326152499,0.0
1748368931333839620,0.016
1748368931341526741,0.031
1748368931349213862,0.04
1748368931356900983,0.052000000000000005
1748368931364588104,0.062
1748368931372275225,0.067
1748368931379962346,0.074
1748368931387649467,0.081
1748368931395336588,0.088
1748368931403023709,0.096
1748368931410710830,0.091
1748368931418397951,0.067
1748368931426085072,0.033
1748368931433772193,-0.009000000000000001
1748368931441459314,-0.06
1748368931449146435,-0.105
1748368931456833556,-0.132
1748368931464520677,-0.151
1748368931472207798,-0.161
1748368931479894919,-0.165
1748368931487582040,-0.165
1748368931495269161,-0.163
1748368931502956282,-0.158
1748368931510643403,-0.156
1748368931518330524,-0.151
1748368931526017645,-0.151
1748368931533704766,-0.153
1748368931541391887,-0.151
1748368931549079008,-0.151
1748368931556766129,-0.153
1748368931564453250,-0.156
1748368931572140371,-0.153
1748368931579827492,-0.156
1748368931587514613,-0.156
1748368931595201734,-0.153
1748368931602888855,-0.149
1748368931610575976,-0.149
1748368931618263097,-0.151
1748368931625950218,-0.153
1748368931633637339,-0.158
1748368931641324460,-0.158
1748368931649011581,-0.158
1748368931656698702,-0.151
1748368931664385887,-0.137,95,636
1748368931672073008,-0.127,,635
1748368931679760129,-0.105
1748368931687447250,-0.081
1748368931695134371,-0.08600000000000001
1748368931702821492,-0.113
1748368931710508613,-0.12
1748368931718195734,-0.113
1748368931725882855,-0.115
1748368931733569976,-0.113
1748368931741257097,-0.105
1748368931748944218,-0.108
1748368931756631339,-0.139
1748368931764318460,-0.165
1748368931772005581,0.024
1748368931779692702,0.5650000000000001
1748368931787379823,0.9540000000000001
1748368931795066944,0.557
1748368931802754065,-0.29
1748368931810441186,-0.646
1748368931818128307,-0.41300000000000003
1748368931825815428,-0.254
1748368931833502549,-0.247
1748368931841189670,-0.14100000000000001
1748368931848876791,-0.074
1748368931856563912,-0.098
1748368931864251033,-0.08600000000000001
1748368931871938154,-0.05
1748368931879625275,-0.05
1748368931887312396,-0.048
1748368931894999517,-0.028
1748368931902686638,-0.019
1748368931910373759,-0.016
1748368931918060880,-0.007
1748368931925748001,0.002
1748368931933435122,0.012
1748368931941122243,0.024
1748368931948809364,0.038
1748368931956496485,0.052000000000000005
1748368931964183606,0.062
1748368931971870727,0.074
1748368931979557848,0.08600000000000001
1748368931987244969,0.093
1748368931994932090,0.098
1748368932002619211,0.10300000000000001
1748368932010306332,0.115
1748368932017993453,0.125
1748368932025680574,0.122
1748368932033367695,0.115
1748368932041054816,0.101
1748368932048741937,0.064
1748368932056429058,0.019
1748368932064116179,-0.026000000000000002
1748368932071803300,-0.069
1748368932079490421,-0.101
1748368932087177542,-0.117
1748368932094864663,-0.125
1748368932102551784,-0.127
1748368932110238905,-0.127
1748368932117926026,-0.125
1748368932125613147,-0.122
1748368932133300268,-0.12
1748368932140987389,-0.115
1748368932148674510,-0.115
1748368932156361631,-0.115
1748368932164048752,-0.117
1748368932171735873,-0.117
1748368932179422994,-0.115
1748368932187110115,-0.115
1748368932194797236,-0.117
1748368932202484357,-0.12
1748368932210171478,-0.12
1748368932217858599,-0.117
1748368932225545784,-0.117
1748368932233232905,-0.117
1748368932240920026,-0.117
1748368932248607147,-0.122
1748368932256294268,-0.127
1748368932263981389,-0.129
1748368932271668510,-0.127
1748368932279355631,-0.12
1748368932287042752,-0.11
1748368932294729873,-0.101
1748368932302416994,-0.079
1748368932310104115,-0.05
1748368932317791236,-0.057
1748368932325478357,-0.084
1748368932333165478,-0.091
1748368932340852599,-0.08600000000000001
1748368932348539720,-0.088
1748368932356226841,-0.08600000000000001
1748368932363913962,-0.081
1748368932371601083,-0.084
1748368932379288204,-0.113
1748368932386975325,-0.139
1748368932394662446,0.038
1748368932402349567,0.5740000000000001
1748368932410036688,0.988
1748368932417723809,0.622
1748368932425410930,-0.233
1748368932433098051,-0.62
1748368932440785172,-0.396
1748368932448472293,-0.233
1748368932456159414,-0.228
1748368932463846535,-0.122
1748368932471533656,-0.052000000000000005
1748368932479220777,-0.076
1748368932486907898,-0.069
1748368932494595019,-0.033
1748368932502282140,-0.033
1748368932509969261,-0.031
1748368932517656382,-0.012
1748368932525343503,-0.004
1748368932533030624,-0.002
1748368932540717745,0.007
1748368932548404866,0.019
1748368932556091987,0.028
1748368932563779108,0.038
1748368932571466229,0.048
1748368932579153350,0.057
1748368932586840471,0.07200000000000001
1748368932594527592,0.084
1748368932602214713,0.096
1748368932609901834,0.105
1748368932617588955,0.115
1748368932625276076,0.117
1748368932632963197,0.122
1748368932640650318,0.129
1748368932648337439,0.137
1748368932656024560,0.129
1748368932663711681,0.108
1748368932671398802,0.074
1748368932679085923,0.031
1748368932686773044,-0.016
1748368932694460165,-0.06
1748368932702147286,-0.088
1748368932709834407,-0.108
1748368932717521528,-0.12
1748368932725208649,-0.122
1748368932732895770,-0.12
1748368932740582891,-0.117
1748368932748270012,-0.115
1748368932755957133,-0.11
1748368932763644254,-0.108
1748368932771331375,-0.105
1748368932779018496,-0.105
1748368932786705681,-0.105,95,626
1748368932794392872,-0.108
1748368932802080063,-0.108
1748368932809767254,-0.11
1748368932817454445,-0.113
1748368932825141636,-0.115
1748368932832828827,-0.117
1748368932840516018,-0.117
1748368932848203209,-0.115
1748368932855890400,-0.115
1748368932863577591,-0.115
1748368932871264782,-0.12
1748368932878951973,-0.125
1748368932886639164,-0.125
1748368932894326355,-0.12
1748368932902013546,-0.11
1748368932909700737,-0.098
1748368932917387928,-0.088
1748368932925075119,-0.064
1748368932932762310,-0.048
1748368932940449501,-0.069
1748368932948136692,-0.093
1748368932955823883,-0.088
1748368932963511074,-0.084
1748368932971198265,-0.084
1748368932978885456,-0.079
1748368932986572647,-0.076
1748368932994259838,-0.091
1748368933001947029,-0.134
1748368933009634220,-0.10300000000000001
1748368933017321411,0.254
1748368933025008602,0.8320000000000001
1748368933032695793,0.928
1748368933040382984,0.223
1748368933048070175,-0.514
1748368933055757366,-0.55
1748368933063444557,-0.28600000000000003
1748368933071131748,-0.233
1748368933078818939,-0.189
1748368933086506130,-0.074
1748368933094193321,-0.06
1748368933101880512,-0.084
1748368933109567703,-0.052000000000000005
1748368933117254894,-0.028
1748368933124942085,-0.031
1748368933132629276,-0.019
1748368933140316467,-0.004
1748368933148003658,0.0
1748368933155690849,0.004
1748368933163378040,0.014
1748368933171065231,0.024
1748368933178752422,0.033
1748368933186439613,0.043000000000000003
1748368933194126804,0.055
1748368933201813995,0.067
1748368933209501186,0.081
1748368933217188377,0.093
1748368933224875568,0.105
1748368933232562759,0.113
1748368933240249950,0.117
1748368933247937141,0.122
1748368933255624332,0.129
1748368933263311523,0.134
1748368933270998714,0.134
1748368933278685905,0.122
1748368933286373096,0.096
1748368933294060287,0.055
1748368933301747478,0.007
1748368933309434669,-0.038
1748368933317121860,-0.074
1748368933324809051,-0.098
1748368933332496242,-0.113
1748368933340183433,-0.115
1748368933347870669,-0.12
1748368933355557721,-0.122
1748368933363244773,-0.12
1748368933370931825,-0.113
1748368933378618877,-0.108
1748368933386305929,-0.105
1748368933393992981,-0.105
1748368933401680033,-0.105
1748368933409367085,-0.105
1748368933417054137,-0.105
1748368933424741189,-0.11
1748368933432428241,-0.115
1748368933440115293,-0.115
1748368933447802345,-0.113
1748368933455489397,-0.115
1748368933463176449,-0.115
1748368933470863501,-0.115
1748368933478550553,-0.115
1748368933486237605,-0.12
1748368933493924657,-0.127
1748368933501611709,-0.129
1748368933509298761,-0.125
1748368933516985813,-0.117
1748368933524672865,-0.108
1748368933532359917,-0.098
1748368933540046969,-0.079
1748368933547734021,-0.055
1748368933555421073,-0.062
1748368933563108125,-0.08600000000000001
1748368933570795177,-0.096
1748368933578482229,-0.088
1748368933586169281,-0.088
1748368933593856333,-0.088
1748368933601543385,-0.084
1748368933609230437,-0.08600000000000001
1748368933616917489,-0.117
1748368933624604541,-0.146
1748368933632291593,0.048
1748368933639978645,0.601
1748368933647665697,0.993
1748368933655352749,0.589
1748368933663039801,-0.264
1748368933670726853,-0.62
1748368933678413905,-0.387
1748368933686100957,-0.23500000000000001
1748368933693788009,-0.23
1748368933701475061,-0.125
1748368933709162113,-0.057
1748368933716849165,-0.081
1748368933724536217,-0.07200000000000001
1748368933732223269,-0.04
1748368933739910321,-0.036000000000000004
1748368933747597373,-0.028
1748368933755284425,-0.014
1748368933762971477,-0.007
1748368933770658529,-0.002
1748368933778345581,0.007
1748368933786032633,0.016
1748368933793719685,0.024
1748368933801406737,0.033
1748368933809093789,0.045
1748368933816780841,0.06
1748368933824467893,0.07200000000000001
1748368933832154945,0.08600000000000001
1748368933839841997,0.098
1748368933847529049,0.105
1748368933855216101,0.11
1748368933862903153,0.115
1748368933870590205,0.12
1748368933878277257,0.125
1748368933885964309,0.127
1748368933893651361,0.122
1748368933901338413,0.105
1748368933909025479,0.069,95,622
1748368933916712600,0.024,,623
1748368933924399721,-0.024
1748368933932086842,-0.062
1748368933939773963,-0.091
1748368933947461084,-0.11
1748368933955148205,-0.122
1748368933962835326,-0.125
1748368933970522447,-0.125
1748368933978209568,-0.122
1748368933985896689,-0.12
1748368933993583810,-0.115
1748368934001270931,-0.113
1748368934008958052,-0.113
1748368934016645173,-0.11
1748368934024332294,-0.108
1748368934032019415,-0.11
1748368934039706536,-0.113
1748368934047393657,-0.115
1748368934055080778,-0.113
1748368934062767899,-0.117
1748368934070455020,-0.122
1748368934078142141,-0.12
1748368934085829262,-0.117
1748368934093516383,-0.117
1748368934101203504,-0.122
1748368934108890625,-0.127
1748368934116577746,-0.132
1748368934124264867,-0.132
1748368934131951988,-0.127
1748368934139639109,-0.117
1748368934147326230,-0.108
1748368934155013351,-0.096
1748368934162700472,-0.069
1748368934170387593,-0.052000000000000005
1748368934178074714,-0.07200000000000001
1748368934185761835,-0.096
1748368934193448956,-0.093
1748368934201136077,-0.088
1748368934208823198,-0.091
1748368934216510319,-0.084
1748368934224197440,-0.079
1748368934231884561,-0.093
1748368934239571682,-0.139
1748368934247258803,-0.113
1748368934254945924,0.24
1748368934262633045,0.8270000000000001
1748368934270320166,0.9470000000000001
1748368934278007287,0.254
1748368934285694408,-0.5
1748368934293381529,-0.56
1748368934301068650,-0.295
1748368934308755771,-0.24
1748368934316442892,-0.202
1748368934324130013,-0.084
1748368934331817134,-0.069
1748368934339504255,-0.091
1748368934347191376,-0.06
1748368934354878497,-0.038
1748368934362565618,-0.038
1748368934370252739,-0.026000000000000002
1748368934377939860,-0.014
1748368934385626981,-0.009000000000000001
1748368934393314102,0.0
1748368934401001223,0.009000000000000001
1748368934408688344,0.016
1748368934416375465,0.028
1748368934424062586,0.04
1748368934431749707,0.052000000000000005
1748368934439436828,0.064
1748368934447123949,0.079
1748368934454811070,0.088
1748368934462498191,0.098
1748368934470185376,0.108
1748368934477872497,0.113
1748368934485559618,0.115
1748368934493246739,0.122
1748368934500933860,0.127
1748368934508620981,0.127
1748368934516308102,0.115
1748368934523995223,0.091
1748368934531682344,0.055
1748368934539369465,0.007
1748368934547056586,-0.04
1748368934554743707,-0.076
1748368934562430828,-0.101
1748368934570117949,-0.115
1748368934577805070,-0.122
1748368934585492191,-0.122
1748368934593179312,-0.122
1748368934600866433,-0.12
1748368934608553554,-0.117
1748368934616240675,-0.115
1748368934623927796,-0.113
1748368934631614917,-0.11
1748368934639302038,-0.11
1748368934646989159,-0.11
1748368934654676280,-0.11
1748368934662363401,-0.113
1748368934670050522,-0.115
1748368934677737643,-0.117
1748368934685424764,-0.117
1748368934693111885,-0.12
1748368934700799006,-0.117
1748368934708486127,-0.115
1748368934716173248,-0.12
1748368934723860369,-0.125
1748368934731547490,-0.127
1748368934739234611,-0.129
1748368934746921732,-0.132
1748368934754608853,-0.122
1748368934762295974,-0.11
1748368934769983095,-0.101
1748368934777670216,-0.084
1748368934785357337,-0.057
1748368934793044458,-0.062
1748368934800731579,-0.091
1748368934808418700,-0.098
1748368934816105821,-0.091
1748368934823792942,-0.093
1748368934831480063,-0.088
1748368934839167184,-0.084
1748368934846854305,-0.088
1748368934854541426,-0.122
1748368934862228547,-0.149
1748368934869915668,0.057
1748368934877602789,0.618
1748368934885289910,1.0050000000000001
1748368934892977031,0.591
1748368934900664152,-0.266
1748368934908351273,-0.618
1748368934916038394,-0.384
1748368934923725515,-0.233
1748368934931412636,-0.23
1748368934939099757,-0.127
1748368934946786878,-0.06
1748368934954473999,-0.084
1748368934962161120,-0.07200000000000001
1748368934969848241,-0.038
1748368934977535362,-0.036000000000000004
1748368934985222483,-0.031
1748368934992909604,-0.014
1748368935000596725,-0.007
1748368935008283846,-0.004
1748368935015970967,0.004
1748368935023658088,0.014
1748368935031345273,0.024,95,619
1748368935039032743,0.033
1748368935046720213,0.045
1748368935054407683,0.057
1748368935062095153,0.07200000000000001
1748368935069782623,0.084
1748368935077470093,0.093
1748368935085157563,0.105
1748368935092845033,0.11
1748368935100532503,0.11
1748368935108219973,0.115
1748368935115907443,0.122
1748368935123594913,0.125
1748368935131282383,0.117
1748368935138969853,0.101
1748368935146657323,0.067
1748368935154344793,0.024
1748368935162032263,-0.024
1748368935169719733,-0.067
1748368935177407203,-0.096
1748368935185094673,-0.113
1748368935192782143,-0.12
1748368935200469613,-0.125
1748368935208157083,-0.125
1748368935215844553,-0.122
1748368935223532023,-0.117
1748368935231219493,-0.113
1748368935238906963,-0.113
1748368935246594433,-0.113
1748368935254281903,-0.113
1748368935261969373,-0.11
1748368935269656843,-0.11
1748368935277344313,-0.113
1748368935285031783,-0.115
1748368935292719253,-0.115
1748368935300406723,-0.115
1748368935308094193,-0.117
1748368935315781663,-0.12
1748368935323469133,-0.117
1748368935331156603,-0.115
1748368935338844073,-0.117
1748368935346531543,-0.125
1748368935354219013,-0.132
1748368935361906483,-0.134
1748368935369593953,-0.127
1748368935377281423,-0.113
1748368935384968893,-0.105
1748368935392656363,-0.088
1748368935400343833,-0.057
1748368935408031303,-0.057
1748368935415718773,-0.084
1748368935423406243,-0.096
1748368935431093713,-0.091
1748368935438781183,-0.093
1748368935446468653,-0.088
1748368935454156123,-0.084
1748368935461843593,-0.088
1748368935469531063,-0.117
1748368935477218533,-0.153
1748368935484906003,-0.004
1748368935492593473,0.517
1748368935500280943,0.985
1748368935507968413,0.704
1748368935515655883,-0.153
1748368935523343353,-0.622
1748368935531030823,-0.432
1748368935538718293,-0.242
1748368935546405763,-0.242
1748368935554093233,-0.149
1748368935561780703,-0.067
1748368935569468173,-0.08600000000000001
1748368935577155643,-0.084
1748368935584843113,-0.048
1748368935592530605,-0.04,96,618
1748368935600217796,-0.036000000000000004,,619
1748368935607904987,-0.019
1748368935615592178,-0.012
1748368935623279369,-0.009000000000000001
1748368935630966560,0.002
1748368935638653751,0.012
1748368935646340942,0.019
1748368935654028133,0.028
1748368935661715324,0.043000000000000003
1748368935669402515,0.057
1748368935677089706,0.069
1748368935684776897,0.081
1748368935692464088,0.096
1748368935700151279,0.10300000000000001
1748368935707838470,0.108
1748368935715525661,0.113
1748368935723212852,0.117
1748368935730900043,0.122
1748368935738587234,0.125
1748368935746274425,0.12
1748368935753961616,0.10300000000000001
1748368935761648807,0.07200000000000001
1748368935769335998,0.031
1748368935777023189,-0.016
1748368935784710380,-0.06
1748368935792397571,-0.091
1748368935800084762,-0.108
1748368935807771953,-0.117
1748368935815459144,-0.125
1748368935823146335,-0.122
1748368935830833526,-0.12
1748368935838520717,-0.117
1748368935846207908,-0.115
1748368935853895099,-0.113
1748368935861582290,-0.11
1748368935869269481,-0.108
1748368935876956672,-0.11
1748368935884643863,-0.11
1748368935892331054,-0.11
1748368935900018245,-0.113
1748368935907705436,-0.113
1748368935915392627,-0.115
1748368935923079818,-0.117
1748368935930767009,-0.117
1748368935938454200,-0.117
1748368935946141391,-0.117
1748368935953828582,-0.117
1748368935961515773,-0.115
1748368935969202964,-0.117
1748368935976890155,-0.122
1748368935984577346,-0.127
1748368935992264537,-0.129
1748368935999951728,-0.127
1748368936007638919,-0.117
1748368936015326110,-0.105
1748368936023013301,-0.098
1748368936030700492,-0.074
1748368936038387683,-0.05
1748368936046074874,-0.067
1748368936053762065,-0.093
1748368936061449256,-0.093
1748368936069136447,-0.091
1748368936076823638,-0.091
1748368936084510829,-0.08600000000000001
1748368936092198020,-0.081
1748368936099885211,-0.091
1748368936107572402,-0.129
1748368936115259593,-0.134
1748368936122946784,0.134
1748368936130633975,0.728
1748368936138321166,1.026
1748368936146008357,0.48
1748368936153695589,-0.372
1748368936161382710,-0.615
1748368936169069831,-0.355
1748368936176756952,-0.245
1748368936184444073,-0.233
1748368936192131194,-0.117
1748368936199818315,-0.069
1748368936207505436,-0.096
1748368936215192557,-0.076
1748368936222879678,-0.045
1748368936230566799,-0.043000000000000003
1748368936238253920,-0.033
1748368936245941041,-0.016
1748368936253628162,-0.012
1748368936261315283,-0.007
1748368936269002404,0.0
1748368936276689525,0.007
1748368936284376646,0.019
1748368936292063767,0.033
1748368936299750888,0.043000000000000003
1748368936307438009,0.055
1748368936315125130,0.069
1748368936322812251,0.081
1748368936330499372,0.093
1748368936338186493,0.101
1748368936345873614,0.108
1748368936353560735,0.11
1748368936361247856,0.115
1748368936368934977,0.122
1748368936376622098,0.122
1748368936384309219,0.117
1748368936391996340,0.101
1748368936399683461,0.067
1748368936407370582,0.026000000000000002
1748368936415057703,-0.019
1748368936422744824,-0.064
1748368936430431945,-0.093
1748368936438119066,-0.108
1748368936445806187,-0.117
1748368936453493308,-0.122
1748368936461180429,-0.122
1748368936468867550,-0.12
1748368936476554671,-0.117
1748368936484241792,-0.117
1748368936491928913,-0.113
1748368936499616034,-0.11
1748368936507303155,-0.11
1748368936514990276,-0.11
1748368936522677397,-0.113
1748368936530364518,-0.115
1748368936538051639,-0.115
1748368936545738760,-0.117
1748368936553425881,-0.12
1748368936561113002,-0.122
1748368936568800123,-0.12
1748368936576487244,-0.12
1748368936584174365,-0.12
1748368936591861486,-0.12
1748368936599548607,-0.12
1748368936607235728,-0.117
1748368936614922849,-0.12
1748368936622609970,-0.122
1748368936630297091,-0.125
1748368936637984212,-0.127
1748368936645671333,-0.125
1748368936653358454,-0.113
1748368936661045575,-0.10300000000000001
1748368936668732696,-0.098
1748368936676419817,-0.07200000000000001
1748368936684106938,-0.048
1748368936691794059,-0.067
1748368936699481180,-0.091
1748368936707168301,-0.091
1748368936714855486,-0.08600000000000001,96,618
1748368936722542607,-0.088,,616
1748368936730229728,-0.08600000000000001
1748368936737916849,-0.079
1748368936745603970,-0.088
1748368936753291091,-0.125
1748368936760978212,-0.117
1748368936768665333,0.177
1748368936776352454,0.771
1748368936784039575,1.024
1748368936791726696,0.432
1748368936799413817,-0.40800000000000003
1748368936807100938,-0.603
1748368936814788059,-0.331
1748368936822475180,-0.23800000000000002
1748368936830162301,-0.226
1748368936837849422,-0.105
1748368936845536543,-0.067
1748368936853223664,-0.093
1748368936860910785,-0.069
1748368936868597906,-0.043000000000000003
1748368936876285027,-0.043000000000000003
1748368936883972148,-0.033
1748368936891659269,-0.019
1748368936899346390,-0.014
1748368936907033511,-0.009000000000000001
1748368936914720632,0.0
1748368936922407753,0.009000000000000001
1748368936930094874,0.019
1748368936937781995,0.031
1748368936945469116,0.043000000000000003
1748368936953156237,0.057
1748368936960843358,0.067
1748368936968530479,0.079
1748368936976217600,0.088
1748368936983904721,0.098
1748368936991591842,0.10300000000000001
1748368936999278963,0.10300000000000001
1748368937006966084,0.105
1748368937014653205,0.11
1748368937022340326,0.115
1748368937030027447,0.11
1748368937037714568,0.091
1748368937045401689,0.06
1748368937053088810,0.019
1748368937060775931,-0.026000000000000002
1748368937068463052,-0.067
1748368937076150173,-0.096
1748368937083837294,-0.113
1748368937091524415,-0.122
1748368937099211536,-0.127
1748368937106898657,-0.127
1748368937114585778,-0.125
1748368937122272899,-0.12
1748368937129960020,-0.117
1748368937137647141,-0.115
1748368937145334262,-0.115
1748368937153021383,-0.117
1748368937160708504,-0.117
1748368937168395625,-0.117
1748368937176082746,-0.117
1748368937183769867,-0.122
1748368937191456988,-0.125
1748368937199144109,-0.122
1748368937206831230,-0.122
1748368937214518351,-0.125
1748368937222205472,-0.125
1748368937229892593,-0.125
1748368937237579714,-0.125
1748368937245266835,-0.125
1748368937252953956,-0.125
1748368937260641077,-0.129
1748368937268328198,-0.132
1748368937276015383,-0.134
1748368937283702504,-0.129
1748368937291389625,-0.12
1748368937299076746,-0.108
1748368937306763867,-0.098
1748368937314450988,-0.074
1748368937322138109,-0.052000000000000005
1748368937329825230,-0.069
1748368937337512351,-0.096
1748368937345199472,-0.096
1748368937352886593,-0.093
1748368937360573714,-0.093
1748368937368260835,-0.088
1748368937375947956,-0.084
1748368937383635077,-0.093
1748368937391322198,-0.132
1748368937399009319,-0.132
1748368937406696440,0.153
1748368937414383561,0.75
1748368937422070682,1.026
1748368937429757803,0.459
1748368937437444924,-0.394
1748368937445132045,-0.615
1748368937452819166,-0.343
1748368937460506287,-0.245
1748368937468193408,-0.23500000000000001
1748368937475880529,-0.117
1748368937483567650,-0.074
1748368937491254771,-0.10300000000000001
1748368937498941892,-0.081
1748368937506629013,-0.05
1748368937514316134,-0.052000000000000005
1748368937522003255,-0.043000000000000003
1748368937529690376,-0.026000000000000002
1748368937537377497,-0.021
1748368937545064618,-0.014
1748368937552751739,-0.004
1748368937560438860,0.002
1748368937568125981,0.009000000000000001
1748368937575813102,0.021
1748368937583500223,0.036000000000000004
1748368937591187344,0.048
1748368937598874465,0.06
1748368937606561586,0.074
1748368937614248707,0.08600000000000001
1748368937621935828,0.091
1748368937629622949,0.096
1748368937637310070,0.101
1748368937644997191,0.101
1748368937652684312,0.10300000000000001
1748368937660371433,0.105
1748368937668058554,0.101
1748368937675745675,0.081
1748368937683432796,0.052000000000000005
1748368937691119917,0.012
1748368937698807038,-0.033
1748368937706494159,-0.074
1748368937714181280,-0.10300000000000001
1748368937721868401,-0.117
1748368937729555522,-0.125
1748368937737242643,-0.127
1748368937744929764,-0.127
1748368937752616885,-0.127
1748368937760304006,-0.125
1748368937767991127,-0.117
1748368937775678248,-0.115
1748368937783365369,-0.117
1748368937791052490,-0.117
1748368937798739611,-0.117
1748368937806426732,-0.117
1748368937814113853,-0.117
1748368937821800974,-0.117
1748368937829488095,-0.12
1748368937837175280,-0.122,96,636
1748368937844862680,-0.125
1748368937852550080,-0.122
1748368937860237480,-0.122
1748368937867924880,-0.122
1748368937875612280,-0.12
1748368937883299680,-0.12
1748368937890987080,-0.117
1748368937898674480,-0.117
1748368937906361880,-0.115
1748368937914049280,-0.115
1748368937921736680,-0.122
1748368937929424080,-0.127
1748368937937111480,-0.127
1748368937944798880,-0.122
1748368937952486280,-0.11
1748368937960173680,-0.101
1748368937967861080,-0.091
1748368937975548480,-0.062
1748368937983235880,-0.05
1748368937990923280,-0.074
1748368937998610680,-0.093
1748368938006298080,-0.08600000000000001
1748368938013985480,-0.084
1748368938021672880,-0.08600000000000001
1748368938029360280,-0.081
1748368938037047680,-0.079
1748368938044735080,-0.096
1748368938052422480,-0.134
1748368938060109880,-0.05
1748368938067797280,0.387
1748368938075484680,0.9540000000000001
1748368938083172080,0.918
1748368938090859480,0.11
1748368938098546880,-0.581
1748368938106234280,-0.521
1748368938113921680,-0.269
1748368938121609080,-0.254
1748368938129296480,-0.192
1748368938136983880,-0.076
1748368938144671280,-0.081
1748368938152358680,-0.096
1748368938160046080,-0.06
1748368938167733480,-0.043000000000000003
1748368938175420880,-0.043000000000000003
1748368938183108280,-0.028
1748368938190795680,-0.019
1748368938198483080,-0.016
1748368938206170480,-0.009000000000000001
1748368938213857880,0.0
1748368938221545280,0.007
1748368938229232680,0.016
1748368938236920080,0.031
1748368938244607480,0.04
1748368938252294880,0.052000000000000005
1748368938259982280,0.067
1748368938267669680,0.079
1748368938275357080,0.088
1748368938283044480,0.098
1748368938290731880,0.101
1748368938298419280,0.10300000000000001
1748368938306106680,0.108
1748368938313794080,0.113
1748368938321481480,0.113
1748368938329168880,0.105
1748368938336856280,0.08600000000000001
1748368938344543680,0.052000000000000005
1748368938352231080,0.012
1748368938359918480,-0.033
1748368938367605880,-0.07200000000000001
1748368938375293280,-0.098
1748368938382980680,-0.115
1748368938390668080,-0.125
1748368938398355525,-0.127
1748368938406042716,-0.127
1748368938413729907,-0.125
1748368938421417098,-0.122
1748368938429104289,-0.12
1748368938436791480,-0.117
1748368938444478671,-0.117
1748368938452165862,-0.117
1748368938459853053,-0.12
1748368938467540244,-0.122
1748368938475227435,-0.125
1748368938482914626,-0.125
1748368938490601817,-0.125
1748368938498289008,-0.127
1748368938505976199,-0.127
1748368938513663390,-0.127
1748368938521350581,-0.127
1748368938529037772,-0.127
1748368938536724963,-0.127
1748368938544412154,-0.122
1748368938552099345,-0.12
1748368938559786536,-0.12
1748368938567473727,-0.125
1748368938575160918,-0.129
1748368938582848109,-0.132
1748368938590535300,-0.129
1748368938598222491,-0.117
1748368938605909682,-0.105
1748368938613596873,-0.096
1748368938621284064,-0.069
1748368938628971255,-0.055
1748368938636658446,-0.074
1748368938644345637,-0.096
1748368938652032828,-0.093
1748368938659720019,-0.091
1748368938667407210,-0.091
1748368938675094401,-0.08600000000000001
1748368938682781592,-0.081
1748368938690468783,-0.096
1748368938698155974,-0.134
1748368938705843165,-0.101
1748368938713530356,0.257
1748368938721217547,0.853
1748368938728904738,0.995
1748368938736591929,0.303
1748368938744279120,-0.5
1748368938751966311,-0.584
1748368938759653502,-0.305
1748368938767340693,-0.247
1748368938775027884,-0.214
1748368938782715075,-0.091
1748368938790402266,-0.07200000000000001
1748368938798089457,-0.096
1748368938805776648,-0.064
1748368938813463839,-0.043000000000000003
1748368938821151030,-0.045
1748368938828838221,-0.031
1748368938836525412,-0.014
1748368938844212603,-0.014
1748368938851899794,-0.007
1748368938859586985,0.002
1748368938867274176,0.012
1748368938874961367,0.019
1748368938882648558,0.031
1748368938890335749,0.043000000000000003
1748368938898022940,0.052000000000000005
1748368938905710131,0.064
1748368938913397322,0.081
1748368938921084513,0.091
1748368938928771704,0.096
1748368938936458895,0.101
1748368938944146086,0.10300000000000001
1748368938951833277,0.105
1748368938959520509,0.108,96,646
1748368938967207700,0.11,,639
1748368938974894891,0.105
1748368938982582082,0.08600000000000001
1748368938990269273,0.055
1748368938997956464,0.019
1748368939005643655,-0.026000000000000002
1748368939013330846,-0.079
1748368939021018037,-0.11
1748368939028705228,-0.12
1748368939036392419,-0.127
1748368939044079610,-0.132
1748368939051766801,-0.129
1748368939059453992,-0.127
1748368939067141183,-0.125
1748368939074828374,-0.12
1748368939082515565,-0.117
1748368939090202756,-0.117
1748368939097889947,-0.117
1748368939105577138,-0.115
1748368939113264329,-0.117
1748368939120951520,-0.12
1748368939128638711,-0.12
1748368939136325902,-0.12
1748368939144013093,-0.122
1748368939151700284,-0.122
1748368939159387475,-0.122
1748368939167074666,-0.12
1748368939174761857,-0.12
1748368939182449048,-0.12
1748368939190136239,-0.117
1748368939197823430,-0.115
1748368939205510621,-0.117
1748368939213197812,-0.125
1748368939220885003,-0.129
1748368939228572194,-0.127
1748368939236259385,-0.12
1748368939243946576,-0.108
1748368939251633767,-0.10300000000000001
1748368939259320958,-0.088
1748368939267008149,-0.06
1748368939274695340,-0.052000000000000005
1748368939282382531,-0.079
1748368939290069722,-0.093
1748368939297756913,-0.088
1748368939305444104,-0.088
1748368939313131295,-0.088
1748368939320818486,-0.084
1748368939328505677,-0.081
1748368939336192868,-0.105
1748368939343880059,-0.14400000000000002
1748368939351567250,-0.031
1748368939359254441,0.449
1748368939366941632,0.985
1748368939374628823,0.846
1748368939382316014,-0.002
1748368939390003205,-0.62
1748368939397690396,-0.495
1748368939405377587,-0.259
1748368939413064778,-0.257
1748368939420751969,-0.18
1748368939428439160,-0.07200000000000001
1748368939436126351,-0.088
1748368939443813542,-0.098
1748368939451500733,-0.057
1748368939459187924,-0.048
1748368939466875115,-0.048
1748368939474562306,-0.031
1748368939482249497,-0.021
1748368939489936688,-0.019
1748368939497623879,-0.012
1748368939505311070,-0.002
1748368939512998261,0.004
1748368939520685493,0.014,95,658
1748368939528372614,0.026000000000000002
1748368939536059735,0.038
1748368939543746856,0.052000000000000005
1748368939551433977,0.064
1748368939559121098,0.076
1748368939566808219,0.088
1748368939574495340,0.098
1748368939582182461,0.105
1748368939589869582,0.11
1748368939597556703,0.11
1748368939605243824,0.108
1748368939612930945,0.108
1748368939620618066,0.098
1748368939628305187,0.076
1748368939635992308,0.04
1748368939643679429,-0.002
1748368939651366550,-0.048
1748368939659053671,-0.084
1748368939666740792,-0.11
1748368939674427913,-0.125
1748368939682115034,-0.132
1748368939689802155,-0.132
1748368939697489276,-0.129
1748368939705176397,-0.127
1748368939712863518,-0.125
1748368939720550639,-0.122
1748368939728237760,-0.122
1748368939735924881,-0.12
1748368939743612002,-0.12
1748368939751299123,-0.12
1748368939758986244,-0.12
1748368939766673365,-0.122
1748368939774360486,-0.125
1748368939782047607,-0.125
1748368939789734728,-0.127
1748368939797421849,-0.127
1748368939805108970,-0.125
1748368939812796091,-0.125
1748368939820483212,-0.125
1748368939828170333,-0.122
1748368939835857454,-0.122
1748368939843544575,-0.127
1748368939851231696,-0.132
1748368939858918817,-0.137
1748368939866605938,-0.134
1748368939874293059,-0.125
1748368939881980180,-0.113
1748368939889667301,-0.108
1748368939897354422,-0.088
1748368939905041543,-0.062
1748368939912728664,-0.064
1748368939920415785,-0.091
1748368939928102906,-0.098
1748368939935790027,-0.093
1748368939943477148,-0.093
1748368939951164269,-0.091
1748368939958851390,-0.08600000000000001
1748368939966538511,-0.088
1748368939974225632,-0.115
1748368939981912753,-0.146
1748368939989599874,0.014
1748368939997286995,0.545
1748368940004974116,1.024
1748368940012661237,0.745
1748368940020348358,-0.137
1748368940028035479,-0.634
1748368940035722600,-0.437
1748368940043409721,-0.242
1748368940051096842,-0.25
1748368940058783963,-0.153
1748368940066471084,-0.064
1748368940074158205,-0.088
1748368940081845390,-0.08600000000000001
1748368940089532511,-0.048
1748368940097219632,-0.043000000000000003
1748368940104906753,-0.043000000000000003
1748368940112593874,-0.026000000000000002
1748368940120280995,-0.014
1748368940127968116,-0.012
1748368940135655237,-0.002
1748368940143342358,0.004
1748368940151029479,0.012
1748368940158716600,0.024
1748368940166403721,0.036000000000000004
1748368940174090842,0.045
1748368940181777963,0.057
1748368940189465084,0.069
1748368940197152205,0.084
1748368940204839326,0.096
1748368940212526447,0.105
1748368940220213568,0.108
1748368940227900689,0.11
1748368940235587810,0.115
1748368940243274931,0.117
1748368940250962052,0.117
1748368940258649173,0.105
1748368940266336294,0.079
1748368940274023415,0.043000000000000003
1748368940281710536,-0.004
1748368940289397657,-0.05
1748368940297084778,-0.084
1748368940304771899,-0.10300000000000001
1748368940312459020,-0.117
1748368940320146141,-0.125
1748368940327833262,-0.125
1748368940335520383,-0.125
1748368940343207504,-0.122
1748368940350894625,-0.12
1748368940358581746,-0.117
1748368940366268867,-0.115
1748368940373955988,-0.115
1748368940381643109,-0.115
1748368940389330230,-0.117
1748368940397017351,-0.117
1748368940404704472,-0.117
1748368940412391593,-0.12
1748368940420078714,-0.122
1748368940427765835,-0.122
1748368940435452956,-0.122
1748368940443140077,-0.122
1748368940450827198,-0.122
1748368940458514319,-0.122
1748368940466201440,-0.12
1748368940473888561,-0.122
1748368940481575682,-0.125
1748368940489262803,-0.129
1748368940496949924,-0.132
1748368940504637045,-0.129
1748368940512324166,-0.12
