time,ecg,hr,rr,marker
1747252736811245351,0.059000000000000004
1747252736818933378,0.096
1747252736826621405,0.12
1747252736834309432,0.14200000000000002
1747252736841997459,0.164
1747252736849685486,0.177
1747252736857373513,0.184
1747252736865061540,0.182
1747252736872749567,0.164
1747252736880437594,0.15
1747252736888125621,0.14
1747252736895813648,0.113
1747252736903501675,0.061
1747252736911189702,0.0
1747252736918877729,-0.066
1747252736926565756,-0.128
1747252736934253783,-0.169
1747252736941941810,-0.194
1747252736949629837,-0.216
1747252736957317864,-0.224
1747252736965005891,-0.209
1747252736972693918,-0.189
1747252736980381945,-0.184
1747252736988069972,-0.177
1747252736995757999,-0.167
1747252737003446026,-0.157
1747252737011134053,-0.137
1747252737018822080,-0.13
1747252737026510107,-0.14200000000000002
1747252737034198134,-0.14
1747252737041886161,-0.12
1747252737049574188,-0.12
1747252737057262215,-0.13
1747252737064950242,-0.13
1747252737072638269,-0.123
1747252737080326296,-0.11800000000000001
1747252737088014323,-0.108
1747252737095702350,-0.113
1747252737103390377,-0.123
1747252737111078404,-0.108
1747252737118766431,-0.10300000000000001
1747252737126454458,-0.11
1747252737134142485,-0.108
1747252737141830512,-0.098
1747252737149518539,-0.098
1747252737157206566,-0.105
1747252737164894593,-0.10300000000000001
1747252737172582620,-0.10300000000000001
1747252737180270647,-0.123
1747252737187958674,-0.115
1747252737195646701,-0.091
1747252737203334728,-0.105
1747252737211022755,-0.11
1747252737218710782,-0.073
1747252737226398809,-0.07100000000000001
1747252737234086836,-0.083
1747252737241774863,-0.066
1747252737249462890,-0.059000000000000004
1747252737257150917,-0.08600000000000001
1747252737264838944,-0.093
1747252737272526971,-0.059000000000000004
1747252737280214998,-0.044
1747252737287903025,-0.076
1747252737295591052,-0.1
1747252737303279079,-0.078
1747252737310967106,-0.078
1747252737318655133,-0.12
1747252737326343160,-0.187
1747252737334031187,-0.216
1747252737341719214,0.073
1747252737349407241,0.854
1747252737357095268,1.701
1747252737364783295,1.814
1747252737372471375,0.713,92,667
1747252737380159263,-0.497
1747252737387847151,-0.47000000000000003
1747252737395535039,-0.076
1747252737403222927,-0.20600000000000002
1747252737410910815,-0.268
1747252737418598703,-0.132
1747252737426286591,-0.135
1747252737433974479,-0.17200000000000001
1747252737441662367,-0.125
1747252737449350255,-0.10300000000000001
1747252737457038143,-0.105
1747252737464726031,-0.078
1747252737472413919,-0.051000000000000004
1747252737480101807,-0.036000000000000004
1747252737487789695,-0.024
1747252737495477583,0.0
1747252737503165471,0.027
1747252737510853359,0.044
1747252737518541247,0.068
1747252737526229135,0.096
1747252737533917023,0.11800000000000001
1747252737541604911,0.152
1747252737549292799,0.189
1747252737556980687,0.20600000000000002
1747252737564668575,0.214
1747252737572356463,0.219
1747252737580044351,0.214
1747252737587732239,0.199
1747252737595420127,0.187
1747252737603108015,0.162
1747252737610795903,0.113
1747252737618483791,0.044
1747252737626171679,-0.029
1747252737633859567,-0.11
1747252737641547455,-0.17400000000000002
1747252737649235343,-0.209
1747252737656923231,-0.226
1747252737664611119,-0.228
1747252737672299007,-0.226
1747252737679986895,-0.221
1747252737687674783,-0.224
1747252737695362671,-0.231
1747252737703050559,-0.209
1747252737710738447,-0.164
1747252737718426335,-0.15
1747252737726114223,-0.155
1747252737733802111,-0.14200000000000002
1747252737741489999,-0.13
1747252737749177887,-0.135
1747252737756865775,-0.147
1747252737764553663,-0.135
1747252737772241551,-0.11800000000000001
1747252737779929439,-0.125
1747252737787617327,-0.12
1747252737795305215,-0.098
1747252737802993103,-0.098
1747252737810680991,-0.115
1747252737818368879,-0.11800000000000001
1747252737826056767,-0.11
1747252737833744655,-0.098
1747252737841432543,-0.098
1747252737849120431,-0.11800000000000001
1747252737856808319,-0.135
1747252737864496207,-0.11
1747252737872184095,-0.081
1747252737879871983,-0.098
1747252737887559871,-0.11800000000000001
1747252737895247759,-0.108
1747252737902935647,-0.098
1747252737910623535,-0.091
1747252737918311423,-0.073
1747252737925999311,-0.064
1747252737933687221,-0.07100000000000001,91,688
1747252737941375178,-0.078,,715
1747252737949063135,-0.091
1747252737956751092,-0.105
1747252737964439049,-0.093
1747252737972127006,-0.076
1747252737979814963,-0.093
1747252737987502920,-0.096
1747252737995190877,-0.076
1747252738002878834,-0.115
1747252738010566791,-0.221
1747252738018254748,-0.263
1747252738025942705,0.014
1747252738033630662,0.75
1747252738041318619,1.592
1747252738049006576,1.838
1747252738056694533,0.883
1747252738064382490,-0.428
1747252738072070447,-0.5660000000000001
1747252738079758404,-0.108
1747252738087446361,-0.164
1747252738095134318,-0.292
1747252738102822275,-0.169
1747252738110510232,-0.137
1747252738118198189,-0.192
1747252738125886146,-0.152
1747252738133574103,-0.108
1747252738141262060,-0.113
1747252738148950017,-0.093
1747252738156637974,-0.054
1747252738164325931,-0.034
1747252738172013888,-0.024
1747252738179701845,-0.017
1747252738187389802,-0.017
1747252738195077759,-0.007
1747252738202765716,0.022
1747252738210453673,0.068
1747252738218141630,0.115
1747252738225829587,0.123
1747252738233517544,0.10300000000000001
1747252738241205501,0.14
1747252738248893458,0.199
1747252738256581415,0.162
1747252738264269372,0.11
1747252738271957329,0.162
1747252738279645286,0.194
1747252738287333243,0.115
1747252738295021200,0.044
1747252738302709157,0.014
1747252738310397114,-0.056
1747252738318085071,-0.162
1747252738325773028,-0.194
1747252738333460985,-0.164
1747252738341148942,-0.177
1747252738348836899,-0.221
1747252738356524856,-0.246
1747252738364212813,-0.246
1747252738371900770,-0.231
1747252738379588727,-0.182
1747252738387276684,-0.15
1747252738394964641,-0.177
1747252738402652598,-0.196
1747252738410340555,-0.177
1747252738418028512,-0.157
1747252738425716469,-0.14200000000000002
1747252738433404426,-0.105
1747252738441092383,-0.078
1747252738448780340,-0.11
1747252738456468297,-0.14200000000000002
1747252738464156254,-0.13
1747252738471844211,-0.115
1747252738479532168,-0.115
1747252738487220125,-0.113
1747252738494908154,-0.108
1747252738502596111,-0.113
1747252738510284068,-0.12
1747252738517972025,-0.115
1747252738525659982,-0.10300000000000001
1747252738533347939,-0.096
1747252738541035896,-0.096
1747252738548723853,-0.105
1747252738556411810,-0.115
1747252738564099767,-0.115
1747252738571787724,-0.115
1747252738579475681,-0.093
1747252738587163638,-0.076
1747252738594851595,-0.105
1747252738602539552,-0.108
1747252738610227509,-0.076
1747252738617915466,-0.073
1747252738625603423,-0.068
1747252738633291380,-0.036000000000000004
1747252738640979337,-0.046
1747252738648667294,-0.078
1747252738656355251,-0.096
1747252738664043208,-0.08600000000000001
1747252738671731165,-0.066
1747252738679419122,-0.078
1747252738687107079,-0.096
1747252738694795036,-0.096
1747252738702482993,-0.10300000000000001
1747252738710170950,-0.11
1747252738717858907,-0.169
1747252738725546864,-0.209
1747252738733234821,0.167
1747252738740922778,1.033
1747252738748610735,1.824
1747252738756298692,1.728
1747252738763986649,0.47700000000000004
1747252738771674606,-0.595
1747252738779362563,-0.41100000000000003
1747252738787050520,-0.051000000000000004
1747252738794738477,-0.231
1747252738802426434,-0.28500000000000003
1747252738810114391,-0.137
1747252738817802348,-0.14
1747252738825490305,-0.179
1747252738833178262,-0.15
1747252738840866219,-0.13
1747252738848554176,-0.093
1747252738856242133,-0.064
1747252738863930090,-0.076
1747252738871618047,-0.044
1747252738879306004,-0.002
1747252738886993961,-0.022
1747252738894681918,-0.009000000000000001
1747252738902369875,0.049
1747252738910057832,0.073
1747252738917745789,0.073
1747252738925433746,0.076
1747252738933121703,0.105
1747252738940809660,0.169
1747252738948497617,0.20600000000000002
1747252738956185574,0.209
1747252738963873531,0.201
1747252738971561488,0.187
1747252738979249445,0.164
1747252738986937402,0.135
1747252738994625359,0.113
1747252739002313316,0.1
1747252739010001273,0.022
1747252739017689230,-0.073
1747252739025377187,-0.096
1747252739033065144,-0.13
1747252739040753101,-0.214
1747252739048441058,-0.23600000000000002
1747252739056129087,-0.231,90,712
1747252739063817044,-0.241
1747252739071505001,-0.201
1747252739079192958,-0.177
1747252739086880915,-0.187
1747252739094568872,-0.145
1747252739102256829,-0.13
1747252739109944786,-0.17200000000000001
1747252739117632743,-0.187
1747252739125320700,-0.177
1747252739133008657,-0.162
1747252739140696614,-0.14
1747252739148384571,-0.125
1747252739156072528,-0.137
1747252739163760485,-0.182
1747252739171448442,-0.20400000000000001
1747252739179136399,-0.147
1747252739186824356,-0.088
1747252739194512313,-0.088
1747252739202200270,-0.083
1747252739209888227,-0.091
1747252739217576184,-0.132
1747252739225264141,-0.16
1747252739232952098,-0.147
1747252739240640055,-0.125
1747252739248328012,-0.137
1747252739256015969,-0.132
1747252739263703926,-0.108
1747252739271391883,-0.113
1747252739279079840,-0.12
1747252739286767797,-0.1
1747252739294455754,-0.098
1747252739302143711,-0.091
1747252739309831668,-0.068
1747252739317519625,-0.1
1747252739325207582,-0.145
1747252739332895539,-0.12
1747252739340583496,-0.068
1747252739348271453,-0.068
1747252739355959410,-0.07100000000000001
1747252739363647367,-0.024
1747252739371335324,-0.034
1747252739379023281,-0.115
1747252739386711238,-0.14200000000000002
1747252739394399195,-0.108
1747252739402087152,-0.056
1747252739409775109,-0.054
1747252739417463066,-0.108
1747252739425151023,-0.088
1747252739432838980,-0.054
1747252739440526937,-0.137
1747252739448214894,-0.27
1747252739455902851,-0.194
1747252739463590808,0.322
1747252739471278765,1.171
1747252739478966722,1.856
1747252739486654679,1.55
1747252739494342636,0.199
1747252739502030593,-0.612
1747252739509718550,-0.292
1747252739517406507,-0.081
1747252739525094464,-0.23800000000000002
1747252739532782421,-0.209
1747252739540470378,-0.15
1747252739548158335,-0.189
1747252739555846292,-0.167
1747252739563534249,-0.137
1747252739571222206,-0.12
1747252739578910163,-0.049
1747252739586598120,-0.022
1747252739594286077,-0.049
1747252739601974034,-0.034
1747252739609661991,0.002
1747252739617350020,0.007
1747252739625037977,0.024
1747252739632725934,0.051000000000000004
1747252739640413891,0.066
1747252739648101848,0.10300000000000001
1747252739655789805,0.147
1747252739663477762,0.155
1747252739671165719,0.162
1747252739678853676,0.211
1747252739686541633,0.253
1747252739694229590,0.241
1747252739701917547,0.20400000000000001
1747252739709605504,0.189
1747252739717293461,0.187
1747252739724981418,0.17200000000000001
1747252739732669375,0.115
1747252739740357332,0.034
1747252739748045289,-0.044
1747252739755733246,-0.10300000000000001
1747252739763421203,-0.14
1747252739771109160,-0.167
1747252739778797117,-0.201
1747252739786485074,-0.214
1747252739794173031,-0.20600000000000002
1747252739801860988,-0.20400000000000001
1747252739809548945,-0.192
1747252739817236902,-0.17400000000000002
1747252739824924859,-0.157
1747252739832612816,-0.145
1747252739840300773,-0.145
1747252739847988730,-0.147
1747252739855676687,-0.145
1747252739863364644,-0.13
1747252739871052601,-0.123
1747252739878740558,-0.125
1747252739886428515,-0.123
1747252739894116472,-0.11800000000000001
1747252739901804429,-0.13
1747252739909492386,-0.132
1747252739917180343,-0.113
1747252739924868300,-0.113
1747252739932556257,-0.125
1747252739940244214,-0.113
1747252739947932171,-0.108
1747252739955620128,-0.12
1747252739963308085,-0.11800000000000001
1747252739970996042,-0.1
1747252739978683999,-0.098
1747252739986371956,-0.10300000000000001
1747252739994059913,-0.10300000000000001
1747252740001747870,-0.098
1747252740009435827,-0.1
1747252740017123784,-0.108
1747252740024811741,-0.115
1747252740032499698,-0.113
1747252740040187655,-0.1
1747252740047875612,-0.096
1747252740055563569,-0.096
1747252740063251526,-0.088
1747252740070939483,-0.088
1747252740078627440,-0.08600000000000001
1747252740086315397,-0.068
1747252740094003354,-0.064
1747252740101691311,-0.088
1747252740109379268,-0.113
1747252740117067225,-0.113
1747252740124755182,-0.105
1747252740132443139,-0.098
1747252740140131096,-0.093
1747252740147819053,-0.098
1747252740155507010,-0.105
1747252740163194967,-0.13
1747252740170882924,-0.196
1747252740178570953,-0.28,89,686
1747252740186258980,-0.162,,705
1747252740193947007,0.425
1747252740201635034,1.331
1747252740209323061,1.92
1747252740217011088,1.363
1747252740224699115,-0.07100000000000001
1747252740232387142,-0.672
1747252740240075169,-0.251
1747252740247763196,-0.132
1747252740255451223,-0.302
1747252740263139250,-0.226
1747252740270827277,-0.157
1747252740278515304,-0.199
1747252740286203331,-0.169
1747252740293891358,-0.13
1747252740301579385,-0.14
1747252740309267412,-0.128
1747252740316955439,-0.091
1747252740324643466,-0.073
1747252740332331493,-0.064
1747252740340019520,-0.044
1747252740347707547,-0.024
1747252740355395574,-0.004
1747252740363083601,0.012
1747252740370771628,0.022
1747252740378459655,0.044
1747252740386147682,0.083
1747252740393835709,0.115
1747252740401523736,0.132
1747252740409211763,0.147
1747252740416899790,0.162
1747252740424587817,0.16
1747252740432275844,0.145
1747252740439963871,0.132
1747252740447651898,0.115
1747252740455339925,0.088
1747252740463027952,0.051000000000000004
1747252740470715979,-0.014
1747252740478404006,-0.091
1747252740486092033,-0.147
1747252740493780060,-0.184
1747252740501468087,-0.219
1747252740509156114,-0.241
1747252740516844141,-0.243
1747252740524532168,-0.241
1747252740532220195,-0.226
1747252740539908222,-0.211
1747252740547596249,-0.209
1747252740555284276,-0.196
1747252740562972303,-0.177
1747252740570660330,-0.17400000000000002
1747252740578348357,-0.17200000000000001
1747252740586036384,-0.162
1747252740593724411,-0.157
1747252740601412438,-0.15
1747252740609100465,-0.145
1747252740616788492,-0.145
1747252740624476519,-0.145
1747252740632164546,-0.14200000000000002
1747252740639852573,-0.137
1747252740647540600,-0.132
1747252740655228627,-0.135
1747252740662916654,-0.14
1747252740670604681,-0.132
1747252740678292708,-0.128
1747252740685980735,-0.132
1747252740693668762,-0.13
1747252740701356789,-0.12
1747252740709044816,-0.11800000000000001
1747252740716732843,-0.11800000000000001
1747252740724420870,-0.11800000000000001
1747252740732108897,-0.11800000000000001
1747252740739796977,-0.115
1747252740747485004,-0.11
1747252740755173031,-0.108
1747252740762861058,-0.11
1747252740770549085,-0.12
1747252740778237112,-0.128
1747252740785925139,-0.123
1747252740793613166,-0.113
1747252740801301193,-0.096
1747252740808989220,-0.08600000000000001
1747252740816677247,-0.081
1747252740824365274,-0.073
1747252740832053301,-0.064
1747252740839741328,-0.078
1747252740847429355,-0.113
1747252740855117382,-0.13
1747252740862805409,-0.115
1747252740870493436,-0.10300000000000001
1747252740878181463,-0.1
1747252740885869490,-0.096
1747252740893557517,-0.091
1747252740901245544,-0.115
1747252740908933571,-0.189
1747252740916621598,-0.278
1747252740924309625,-0.162
1747252740931997652,0.418
1747252740939685679,1.304
1747252740947373706,1.8780000000000001
1747252740955061733,1.361
1747252740962749760,-0.007
1747252740970437787,-0.612
1747252740978125814,-0.23800000000000002
1747252740985813841,-0.125
1747252740993501868,-0.28800000000000003
1747252741001189895,-0.224
1747252741008877922,-0.155
1747252741016565949,-0.192
1747252741024253976,-0.169
1747252741031942003,-0.128
1747252741039630030,-0.135
1747252741047318057,-0.12
1747252741055006084,-0.083
1747252741062694111,-0.07100000000000001
1747252741070382138,-0.061
1747252741078070165,-0.034
1747252741085758192,-0.019
1747252741093446219,-0.004
1747252741101134246,0.024
1747252741108822273,0.054
1747252741116510300,0.076
1747252741124198327,0.1
1747252741131886354,0.128
1747252741139574381,0.15
1747252741147262408,0.167
1747252741154950435,0.179
1747252741162638462,0.177
1747252741170326489,0.164
1747252741178014516,0.152
1747252741185702543,0.135
1747252741193390570,0.108
1747252741201078597,0.064
1747252741208766624,0.0
1747252741216454651,-0.068
1747252741224142678,-0.125
1747252741231830705,-0.169
1747252741239518732,-0.20400000000000001
1747252741247206759,-0.226
1747252741254894786,-0.226
1747252741262582813,-0.214
1747252741270270840,-0.20600000000000002
1747252741277958867,-0.199
1747252741285646894,-0.189
1747252741293334921,-0.177
1747252741301022997,-0.167,89,729
1747252741308711024,-0.162
1747252741316399051,-0.157
1747252741324087078,-0.15
1747252741331775105,-0.147
1747252741339463132,-0.147
1747252741347151159,-0.145
1747252741354839186,-0.14
1747252741362527213,-0.14
1747252741370215240,-0.14
1747252741377903267,-0.137
1747252741385591294,-0.132
1747252741393279321,-0.13
1747252741400967348,-0.128
1747252741408655375,-0.125
1747252741416343402,-0.13
1747252741424031429,-0.128
1747252741431719456,-0.12
1747252741439407483,-0.115
1747252741447095510,-0.113
1747252741454783537,-0.115
1747252741462471564,-0.11
1747252741470159591,-0.10300000000000001
1747252741477847618,-0.10300000000000001
1747252741485535645,-0.10300000000000001
1747252741493223672,-0.098
1747252741500911699,-0.093
1747252741508599726,-0.088
1747252741516287753,-0.091
1747252741523975780,-0.096
1747252741531663807,-0.093
1747252741539351834,-0.098
1747252741547039861,-0.105
1747252741554727888,-0.096
1747252741562415915,-0.073
1747252741570103942,-0.061
1747252741577791969,-0.068
1747252741585479996,-0.059000000000000004
1747252741593168023,-0.036000000000000004
1747252741600856050,-0.046
1747252741608544077,-0.081
1747252741616232104,-0.093
1747252741623920131,-0.078
1747252741631608158,-0.07100000000000001
1747252741639296185,-0.076
1747252741646984212,-0.068
1747252741654672239,-0.068
1747252741662360266,-0.083
1747252741670048293,-0.108
1747252741677736320,-0.187
1747252741685424347,-0.248
1747252741693112374,0.024
1747252741700800401,0.785
1747252741708488428,1.6540000000000001
1747252741716176455,1.873
1747252741723864482,0.883
1747252741731552509,-0.393
1747252741739240536,-0.509
1747252741746928563,-0.1
1747252741754616590,-0.177
1747252741762304617,-0.278
1747252741769992644,-0.164
1747252741777680671,-0.147
1747252741785368698,-0.177
1747252741793056725,-0.132
1747252741800744752,-0.10300000000000001
1747252741808432779,-0.105
1747252741816120806,-0.081
1747252741823808833,-0.056
1747252741831496860,-0.049
1747252741839184887,-0.034
1747252741846872914,-0.012
1747252741854560941,0.012
1747252741862249017,0.034
1747252741869937183,0.049
1747252741877625349,0.066
1747252741885313515,0.093
1747252741893001681,0.125
1747252741900689847,0.157
1747252741908378013,0.182
1747252741916066179,0.187
1747252741923754345,0.189
1747252741931442511,0.189
1747252741939130677,0.17400000000000002
1747252741946818843,0.152
1747252741954507009,0.137
1747252741962195175,0.11
1747252741969883341,0.061
1747252741977571507,0.004
1747252741985259673,-0.061
1747252741992947839,-0.128
1747252742000636005,-0.167
1747252742008324171,-0.189
1747252742016012337,-0.209
1747252742023700503,-0.209
1747252742031388669,-0.194
1747252742039076835,-0.196
1747252742046765001,-0.189
1747252742054453167,-0.167
1747252742062141333,-0.16
1747252742069829499,-0.155
1747252742077517665,-0.14200000000000002
1747252742085205831,-0.145
1747252742092893997,-0.137
1747252742100582163,-0.123
1747252742108270329,-0.128
1747252742115958495,-0.13
1747252742123646661,-0.12
1747252742131334827,-0.12
1747252742139022993,-0.11800000000000001
1747252742146711159,-0.11
1747252742154399325,-0.123
1747252742162087491,-0.132
1747252742169775657,-0.115
1747252742177463823,-0.10300000000000001
1747252742185151989,-0.113
1747252742192840155,-0.11800000000000001
1747252742200528321,-0.105
1747252742208216487,-0.1
1747252742215904653,-0.105
1747252742223592819,-0.105
1747252742231280985,-0.105
1747252742238969151,-0.10300000000000001
1747252742246657317,-0.093
1747252742254345483,-0.08600000000000001
1747252742262033649,-0.091
1747252742269721815,-0.098
1747252742277409981,-0.096
1747252742285098147,-0.088
1747252742292786313,-0.093
1747252742300474479,-0.1
1747252742308162645,-0.093
1747252742315850811,-0.076
1747252742323538977,-0.068
1747252742331227143,-0.061
1747252742338915309,-0.051000000000000004
1747252742346603475,-0.054
1747252742354291641,-0.068
1747252742361979807,-0.091
1747252742369667973,-0.096
1747252742377356139,-0.083
1747252742385044305,-0.083
1747252742392732471,-0.083
1747252742400420637,-0.073
1747252742408108803,-0.073
1747252742415796969,-0.088
1747252742423485207,-0.12,88,729
1747252742431173095,-0.20400000000000001
1747252742438860983,-0.256
1747252742446548871,0.041
1747252742454236759,0.8220000000000001
1747252742461924647,1.678
1747252742469612535,1.858
1747252742477300423,0.8220000000000001
1747252742484988311,-0.443
1747252742492676199,-0.509
1747252742500364087,-0.098
1747252742508051975,-0.196
1747252742515739863,-0.28500000000000003
1747252742523427751,-0.164
1747252742531115639,-0.155
1747252742538803527,-0.184
1747252742546491415,-0.137
1747252742554179303,-0.115
1747252742561867191,-0.115
1747252742569555079,-0.091
1747252742577242967,-0.07100000000000001
1747252742584930855,-0.061
1747252742592618743,-0.036000000000000004
1747252742600306631,-0.022
1747252742607994519,-0.014
1747252742615682407,0.012
1747252742623370295,0.041
1747252742631058183,0.056
1747252742638746071,0.076
1747252742646433959,0.10300000000000001
1747252742654121847,0.128
1747252742661809735,0.147
1747252742669497623,0.157
1747252742677185511,0.157
1747252742684873399,0.147
1747252742692561287,0.135
1747252742700249175,0.11800000000000001
1747252742707937063,0.093
1747252742715624951,0.066
1747252742723312839,0.022
1747252742731000727,-0.041
1747252742738688615,-0.1
1747252742746376503,-0.147
1747252742754064391,-0.187
1747252742761752279,-0.214
1747252742769440167,-0.224
1747252742777128055,-0.221
1747252742784815943,-0.211
1747252742792503831,-0.201
1747252742800191719,-0.199
1747252742807879607,-0.192
1747252742815567495,-0.182
1747252742823255383,-0.169
1747252742830943271,-0.164
1747252742838631159,-0.157
1747252742846319047,-0.15
1747252742854006935,-0.14200000000000002
1747252742861694823,-0.14200000000000002
1747252742869382711,-0.14
1747252742877070599,-0.132
1747252742884758487,-0.13
1747252742892446375,-0.132
1747252742900134263,-0.132
1747252742907822151,-0.13
1747252742915510039,-0.132
1747252742923197927,-0.132
1747252742930885815,-0.128
1747252742938573703,-0.123
1747252742946261591,-0.123
1747252742953949479,-0.12
1747252742961637367,-0.115
1747252742969325255,-0.113
1747252742977013143,-0.113
1747252742984701057,-0.11,86,738
1747252742992389084,-0.108,,766
1747252743000077111,-0.105
1747252743007765138,-0.105
1747252743015453165,-0.113
1747252743023141192,-0.12
1747252743030829219,-0.12
1747252743038517246,-0.113
1747252743046205273,-0.1
1747252743053893300,-0.091
1747252743061581327,-0.088
1747252743069269354,-0.081
1747252743076957381,-0.068
1747252743084645408,-0.073
1747252743092333435,-0.096
1747252743100021462,-0.11
1747252743107709489,-0.10300000000000001
1747252743115397516,-0.096
1747252743123085543,-0.096
1747252743130773570,-0.096
1747252743138461597,-0.088
1747252743146149624,-0.093
1747252743153837651,-0.128
1747252743161525678,-0.20600000000000002
1747252743169213705,-0.263
1747252743176901732,-0.027
1747252743184589759,0.686
1747252743192277786,1.56
1747252743199965813,1.895
1747252743207653840,1.031
1747252743215341867,-0.322
1747252743223029894,-0.58
1747252743230717921,-0.132
1747252743238405948,-0.162
1747252743246093975,-0.31
1747252743253782002,-0.196
1747252743261470029,-0.155
1747252743269158056,-0.196
1747252743276846083,-0.155
1747252743284534110,-0.113
1747252743292222137,-0.12
1747252743299910164,-0.108
1747252743307598191,-0.078
1747252743315286218,-0.064
1747252743322974245,-0.056
1747252743330662272,-0.036000000000000004
1747252743338350299,-0.014
1747252743346038326,0.0
1747252743353726353,0.022
1747252743361414380,0.049
1747252743369102407,0.07100000000000001
1747252743376790434,0.091
1747252743384478461,0.115
1747252743392166488,0.14
1747252743399854515,0.155
1747252743407542542,0.157
1747252743415230569,0.147
1747252743422918596,0.132
1747252743430606623,0.12
1747252743438294650,0.10300000000000001
1747252743445982677,0.068
1747252743453670704,0.024
1747252743461358731,-0.032
1747252743469046758,-0.093
1747252743476734785,-0.15
1747252743484422812,-0.189
1747252743492110839,-0.211
1747252743499798866,-0.224
1747252743507486893,-0.224
1747252743515174920,-0.214
1747252743522862947,-0.201
1747252743530550974,-0.194
1747252743538239001,-0.187
1747252743545927077,-0.179
1747252743553615034,-0.17400000000000002
1747252743561302991,-0.164
1747252743568990948,-0.157
1747252743576678905,-0.152
1747252743584366862,-0.147
1747252743592054819,-0.145
1747252743599742776,-0.147
1747252743607430733,-0.147
1747252743615118690,-0.14
1747252743622806647,-0.137
1747252743630494604,-0.14
1747252743638182561,-0.135
1747252743645870518,-0.13
1747252743653558475,-0.13
1747252743661246432,-0.13
1747252743668934389,-0.125
1747252743676622346,-0.12
1747252743684310303,-0.11800000000000001
1747252743691998260,-0.123
1747252743699686217,-0.12
1747252743707374174,-0.113
1747252743715062131,-0.11
1747252743722750088,-0.11
1747252743730438045,-0.108
1747252743738126002,-0.105
1747252743745813959,-0.10300000000000001
1747252743753501916,-0.108
1747252743761189873,-0.12
1747252743768877830,-0.125
1747252743776565787,-0.108
1747252743784253744,-0.091
1747252743791941701,-0.08600000000000001
1747252743799629658,-0.08600000000000001
1747252743807317615,-0.073
1747252743815005572,-0.061
1747252743822693529,-0.07100000000000001
1747252743830381486,-0.098
1747252743838069443,-0.105
1747252743845757400,-0.096
1747252743853445357,-0.091
1747252743861133314,-0.093
1747252743868821271,-0.091
1747252743876509228,-0.083
1747252743884197185,-0.091
1747252743891885142,-0.128
1747252743899573099,-0.209
1747252743907261056,-0.26
1747252743914949013,-0.007
1747252743922636970,0.723
1747252743930324927,1.585
1747252743938012884,1.858
1747252743945700841,0.9450000000000001
1747252743953388798,-0.361
1747252743961076755,-0.553
1747252743968764712,-0.123
1747252743976452669,-0.169
1747252743984140626,-0.297
1747252743991828583,-0.187
1747252743999516540,-0.157
1747252744007204497,-0.194
1747252744014892454,-0.15
1747252744022580411,-0.11
1747252744030268368,-0.11800000000000001
1747252744037956325,-0.105
1747252744045644282,-0.078
1747252744053332239,-0.061
1747252744061020196,-0.046
1747252744068708153,-0.029
1747252744076396110,-0.012
1747252744084084067,0.007
1747252744091772024,0.027
1747252744099459981,0.051000000000000004
1747252744107148010,0.076,85,753
1747252744114835967,0.098
1747252744122523924,0.123
1747252744130211881,0.145
1747252744137899838,0.152
1747252744145587795,0.15
1747252744153275752,0.147
1747252744160963709,0.137
1747252744168651666,0.123
1747252744176339623,0.1
1747252744184027580,0.073
1747252744191715537,0.036000000000000004
1747252744199403494,-0.024
1747252744207091451,-0.093
1747252744214779408,-0.147
1747252744222467365,-0.17400000000000002
1747252744230155322,-0.196
1747252744237843279,-0.214
1747252744245531236,-0.211
1747252744253219193,-0.196
1747252744260907150,-0.184
1747252744268595107,-0.17400000000000002
1747252744276283064,-0.169
1747252744283971021,-0.169
1747252744291658978,-0.162
1747252744299346935,-0.147
1747252744307034892,-0.145
1747252744314722849,-0.14200000000000002
1747252744322410806,-0.132
1747252744330098763,-0.125
1747252744337786720,-0.125
1747252744345474677,-0.123
1747252744353162634,-0.12
1747252744360850591,-0.13
1747252744368538548,-0.13
1747252744376226505,-0.11800000000000001
1747252744383914462,-0.123
1747252744391602419,-0.123
1747252744399290376,-0.1
1747252744406978333,-0.1
1747252744414666290,-0.11800000000000001
1747252744422354247,-0.105
1747252744430042204,-0.096
1747252744437730161,-0.1
1747252744445418118,-0.1
1747252744453106075,-0.1
1747252744460794032,-0.096
1747252744468481989,-0.083
1747252744476169946,-0.081
1747252744483857903,-0.1
1747252744491545860,-0.108
1747252744499233817,-0.098
1747252744506921774,-0.096
1747252744514609731,-0.088
1747252744522297688,-0.068
1747252744529985645,-0.061
1747252744537673602,-0.061
1747252744545361559,-0.056
1747252744553049516,-0.064
1747252744560737473,-0.081
1747252744568425430,-0.078
1747252744576113387,-0.083
1747252744583801344,-0.093
1747252744591489301,-0.081
1747252744599177258,-0.07100000000000001
1747252744606865215,-0.076
1747252744614553172,-0.081
1747252744622241129,-0.105
1747252744629929086,-0.196
1747252744637617043,-0.23800000000000002
1747252744645305000,0.1
1747252744652992957,0.915
1747252744660680914,1.735
1747252744668368943,1.797
1747252744676056900,0.684
1747252744683744857,-0.502
1747252744691432814,-0.465
1747252744699120771,-0.076
1747252744706808728,-0.199
1747252744714496685,-0.26
1747252744722184642,-0.132
1747252744729872599,-0.137
1747252744737560556,-0.169
1747252744745248513,-0.11
1747252744752936470,-0.081
1747252744760624427,-0.096
1747252744768312384,-0.078
1747252744776000341,-0.041
1747252744783688298,-0.022
1747252744791376255,-0.012
1747252744799064212,0.0
1747252744806752169,0.019
1747252744814440126,0.059000000000000004
1747252744822128083,0.083
1747252744829816040,0.078
1747252744837503997,0.096
1747252744845191954,0.15
1747252744852879911,0.184
1747252744860567868,0.184
1747252744868255825,0.187
1747252744875943782,0.201
1747252744883631739,0.184
1747252744891319696,0.152
1747252744899007653,0.14200000000000002
1747252744906695610,0.125
1747252744914383567,0.088
1747252744922071524,0.029
1747252744929759481,-0.054
1747252744937447438,-0.11
1747252744945135395,-0.137
1747252744952823352,-0.179
1747252744960511309,-0.216
1747252744968199266,-0.219
1747252744975887223,-0.209
1747252744983575180,-0.201
1747252744991263137,-0.192
1747252744998951094,-0.182
1747252745006639051,-0.17200000000000001
1747252745014327008,-0.16
1747252745022014965,-0.152
1747252745029702922,-0.155
1747252745037390879,-0.14200000000000002
1747252745045078836,-0.132
1747252745052766793,-0.13
1747252745060454750,-0.125
1747252745068142707,-0.11800000000000001
1747252745075830664,-0.125
1747252745083518621,-0.128
1747252745091206578,-0.12
1747252745098894535,-0.123
1747252745106582492,-0.13
1747252745114270449,-0.123
1747252745121958406,-0.11800000000000001
1747252745129646363,-0.125
1747252745137334320,-0.125
1747252745145022277,-0.11800000000000001
1747252745152710234,-0.113
1747252745160398191,-0.11800000000000001
1747252745168086148,-0.115
1747252745175774105,-0.108
1747252745183462062,-0.113
1747252745191150019,-0.12
1747252745198837976,-0.11800000000000001
1747252745206525933,-0.115
1747252745214213890,-0.10300000000000001
1747252745221901847,-0.08600000000000001
1747252745229589876,-0.08600000000000001,85,731
1747252745237277833,-0.083
1747252745244965790,-0.07100000000000001
1747252745252653747,-0.078
1747252745260341704,-0.1
1747252745268029661,-0.11
1747252745275717618,-0.105
1747252745283405575,-0.1
1747252745291093532,-0.096
1747252745298781489,-0.093
1747252745306469446,-0.093
1747252745314157403,-0.10300000000000001
1747252745321845360,-0.132
1747252745329533317,-0.196
1747252745337221274,-0.26
1747252745344909231,-0.044
1747252745352597188,0.662
1747252745360285145,1.5110000000000001
1747252745367973102,1.826
1747252745375661059,1.026
1747252745383349016,-0.29
1747252745391036973,-0.593
1747252745398724930,-0.157
1747252745406412887,-0.157
1747252745414100844,-0.28800000000000003
1747252745421788801,-0.187
1747252745429476758,-0.157
1747252745437164715,-0.192
1747252745444852672,-0.15
1747252745452540629,-0.115
1747252745460228586,-0.11800000000000001
1747252745467916543,-0.1
1747252745475604500,-0.078
1747252745483292457,-0.064
1747252745490980414,-0.046
1747252745498668371,-0.032
1747252745506356328,-0.019
1747252745514044285,0.002
1747252745521732242,0.024
1747252745529420199,0.041
1747252745537108156,0.064
1747252745544796113,0.083
1747252745552484070,0.105
1747252745560172027,0.125
1747252745567859984,0.128
1747252745575547941,0.123
1747252745583235898,0.115
1747252745590923855,0.10300000000000001
1747252745598611812,0.083
1747252745606299769,0.061
1747252745613987726,0.034
1747252745621675683,-0.007
1747252745629363640,-0.064
1747252745637051597,-0.12
1747252745644739554,-0.162
1747252745652427511,-0.194
1747252745660115468,-0.216
1747252745667803425,-0.219
1747252745675491382,-0.216
1747252745683179339,-0.211
1747252745690867296,-0.20400000000000001
1747252745698555253,-0.189
1747252745706243210,-0.179
1747252745713931167,-0.17200000000000001
1747252745721619124,-0.167
1747252745729307081,-0.16
1747252745736995038,-0.157
1747252745744682995,-0.15
1747252745752370952,-0.14
1747252745760058909,-0.14
1747252745767746866,-0.14
1747252745775434823,-0.135
1747252745783122780,-0.132
1747252745790810809,-0.132
1747252745798498906,-0.132
1747252745806187003,-0.135
1747252745813875100,-0.132
1747252745821563197,-0.132
1747252745829251294,-0.132
1747252745836939391,-0.128
1747252745844627488,-0.123
1747252745852315585,-0.123
1747252745860003682,-0.12
1747252745867691779,-0.115
1747252745875379876,-0.115
1747252745883067973,-0.11800000000000001
1747252745890756070,-0.11800000000000001
1747252745898444167,-0.12
1747252745906132264,-0.125
1747252745913820361,-0.13
1747252745921508458,-0.123
1747252745929196555,-0.10300000000000001
1747252745936884652,-0.096
1747252745944572749,-0.1
1747252745952260846,-0.093
1747252745959948943,-0.078
1747252745967637040,-0.078
1747252745975325137,-0.10300000000000001
1747252745983013234,-0.11800000000000001
1747252745990701331,-0.108
1747252745998389428,-0.1
1747252746006077525,-0.1
1747252746013765622,-0.1
1747252746021453719,-0.098
1747252746029141816,-0.105
1747252746036829913,-0.135
1747252746044518010,-0.216
1747252746052206107,-0.275
1747252746059894204,-0.024
1747252746067582301,0.7010000000000001
1747252746075270398,1.56
1747252746082958495,1.853
1747252746090646592,0.962
1747252746098334689,-0.361
1747252746106022786,-0.5730000000000001
1747252746113710883,-0.125
1747252746121398980,-0.164
1747252746129087077,-0.31
1747252746136775174,-0.196
1747252746144463271,-0.155
1747252746152151368,-0.194
1747252746159839465,-0.16
1747252746167527562,-0.12
1747252746175215659,-0.123
1747252746182903756,-0.108
1747252746190591853,-0.083
1747252746198279950,-0.07100000000000001
1747252746205968047,-0.059000000000000004
1747252746213656144,-0.036000000000000004
1747252746221344241,-0.019
1747252746229032338,-0.002
1747252746236720435,0.019
1747252746244408532,0.039
1747252746252096629,0.056
1747252746259784726,0.083
1747252746267472823,0.108
1747252746275160920,0.12
1747252746282849017,0.13
1747252746290537114,0.132
1747252746298225211,0.123
1747252746305913308,0.105
1747252746313601405,0.093
1747252746321289502,0.081
1747252746328977599,0.051000000000000004
1747252746336665696,0.002
1747252746344353793,-0.056
1747252746352041918,-0.113,84,737
1747252746359729736,-0.152,,729
1747252746367417554,-0.182
1747252746375105372,-0.20400000000000001
1747252746382793190,-0.211
1747252746390481008,-0.20400000000000001
1747252746398168826,-0.196
1747252746405856644,-0.194
1747252746413544462,-0.189
1747252746421232280,-0.17200000000000001
1747252746428920098,-0.162
1747252746436607916,-0.16
1747252746444295734,-0.152
1747252746451983552,-0.145
1747252746459671370,-0.14200000000000002
1747252746467359188,-0.145
1747252746475047006,-0.14200000000000002
1747252746482734824,-0.135
1747252746490422642,-0.135
1747252746498110460,-0.135
1747252746505798278,-0.132
1747252746513486096,-0.128
1747252746521173914,-0.128
1747252746528861732,-0.13
1747252746536549550,-0.125
1747252746544237368,-0.12
1747252746551925186,-0.12
1747252746559613004,-0.11800000000000001
1747252746567300822,-0.113
1747252746574988640,-0.11
1747252746582676458,-0.11
1747252746590364276,-0.108
1747252746598052094,-0.11
1747252746605739912,-0.115
1747252746613427730,-0.12
1747252746621115548,-0.12
1747252746628803366,-0.115
1747252746636491184,-0.1
1747252746644179002,-0.088
1747252746651866820,-0.091
1747252746659554638,-0.081
1747252746667242456,-0.066
1747252746674930274,-0.07100000000000001
1747252746682618092,-0.098
1747252746690305910,-0.108
1747252746697993728,-0.098
1747252746705681546,-0.098
1747252746713369364,-0.098
1747252746721057182,-0.088
1747252746728745000,-0.08600000000000001
1747252746736432818,-0.091
1747252746744120636,-0.11800000000000001
1747252746751808454,-0.196
1747252746759496272,-0.273
1747252746767184090,-0.093
1747252746774871908,0.5630000000000001
1747252746782559726,1.445
1747252746790247544,1.8780000000000001
1747252746797935362,1.1520000000000001
1747252746805623180,-0.211
1747252746813310998,-0.6
1747252746820998816,-0.167
1747252746828686634,-0.135
1747252746836374452,-0.295
1747252746844062270,-0.20400000000000001
1747252746851750088,-0.147
1747252746859437906,-0.189
1747252746867125724,-0.16
1747252746874813542,-0.11800000000000001
1747252746882501360,-0.11800000000000001
1747252746890189178,-0.10300000000000001
1747252746897876996,-0.078
1747252746905564814,-0.064
1747252746913252675,-0.049,84,701
1747252746920940702,-0.032
1747252746928628729,-0.014
1747252746936316756,0.002
1747252746944004783,0.024
1747252746951692810,0.044
1747252746959380837,0.064
1747252746967068864,0.091
1747252746974756891,0.113
1747252746982444918,0.13
1747252746990132945,0.14
1747252746997820972,0.14
1747252747005508999,0.137
1747252747013197026,0.123
1747252747020885053,0.10300000000000001
1747252747028573080,0.083
1747252747036261107,0.056
1747252747043949134,0.007
1747252747051637161,-0.051000000000000004
1747252747059325188,-0.105
1747252747067013215,-0.15
1747252747074701242,-0.187
1747252747082389269,-0.20600000000000002
1747252747090077296,-0.214
1747252747097765323,-0.211
1747252747105453350,-0.201
1747252747113141377,-0.192
1747252747120829404,-0.184
1747252747128517431,-0.17400000000000002
1747252747136205458,-0.164
1747252747143893485,-0.16
1747252747151581512,-0.152
1747252747159269539,-0.147
1747252747166957566,-0.147
1747252747174645593,-0.145
1747252747182333620,-0.137
1747252747190021647,-0.137
1747252747197709674,-0.137
1747252747205397701,-0.132
1747252747213085728,-0.13
1747252747220773755,-0.13
1747252747228461782,-0.13
1747252747236149809,-0.13
1747252747243837836,-0.125
1747252747251525863,-0.11800000000000001
1747252747259213890,-0.115
1747252747266901917,-0.11800000000000001
1747252747274589944,-0.11800000000000001
1747252747282277971,-0.11
1747252747289965998,-0.108
1747252747297654025,-0.108
1747252747305342052,-0.10300000000000001
1747252747313030079,-0.098
1747252747320718106,-0.1
1747252747328406133,-0.105
1747252747336094160,-0.113
1747252747343782187,-0.11800000000000001
1747252747351470214,-0.11
1747252747359158241,-0.088
1747252747366846268,-0.078
1747252747374534295,-0.078
1747252747382222322,-0.066
1747252747389910349,-0.056
1747252747397598376,-0.068
1747252747405286403,-0.096
1747252747412974430,-0.10300000000000001
1747252747420662457,-0.096
1747252747428350484,-0.08600000000000001
1747252747436038511,-0.083
1747252747443726538,-0.08600000000000001
1747252747451414565,-0.083
1747252747459102592,-0.088
1747252747466790619,-0.12
1747252747474478699,-0.20400000000000001
1747252747482166726,-0.263
1747252747489854753,-0.014
1747252747497542780,0.711
1747252747505230807,1.568
1747252747512918834,1.834
1747252747520606861,0.918
1747252747528294888,-0.356
1747252747535982915,-0.529
1747252747543670942,-0.12
1747252747551358969,-0.17200000000000001
1747252747559046996,-0.28500000000000003
1747252747566735023,-0.177
1747252747574423050,-0.15
1747252747582111077,-0.184
1747252747589799104,-0.145
1747252747597487131,-0.113
1747252747605175158,-0.115
1747252747612863185,-0.096
1747252747620551212,-0.068
1747252747628239239,-0.056
1747252747635927266,-0.041
1747252747643615293,-0.019
1747252747651303320,-0.004
1747252747658991347,0.009000000000000001
1747252747666679374,0.034
1747252747674367401,0.059000000000000004
1747252747682055428,0.073
1747252747689743455,0.093
1747252747697431482,0.12
1747252747705119509,0.14
1747252747712807536,0.147
1747252747720495563,0.145
1747252747728183590,0.132
1747252747735871617,0.113
1747252747743559644,0.10300000000000001
1747252747751247671,0.088
1747252747758935698,0.054
1747252747766623725,0.007
1747252747774311752,-0.044
1747252747781999779,-0.10300000000000001
1747252747789687806,-0.152
1747252747797375833,-0.17400000000000002
1747252747805063860,-0.192
1747252747812751887,-0.20400000000000001
1747252747820439914,-0.201
1747252747828127941,-0.194
1747252747835815968,-0.184
1747252747843503995,-0.167
1747252747851192022,-0.155
1747252747858880049,-0.15
1747252747866568076,-0.14200000000000002
1747252747874256103,-0.14
1747252747881944130,-0.137
1747252747889632157,-0.132
1747252747897320184,-0.13
1747252747905008211,-0.132
1747252747912696238,-0.125
1747252747920384265,-0.113
1747252747928072292,-0.12
1747252747935760319,-0.13
1747252747943448346,-0.11800000000000001
1747252747951136373,-0.10300000000000001
1747252747958824400,-0.108
1747252747966512427,-0.11800000000000001
1747252747974200454,-0.115
1747252747981888481,-0.105
1747252747989576508,-0.10300000000000001
1747252747997264535,-0.113
1747252748004952562,-0.11
1747252748012640589,-0.096
1747252748020328616,-0.093
1747252748028016643,-0.091
1747252748035704719,-0.083,84,715
1747252748043392955,-0.088,,708
1747252748051081191,-0.096
1747252748058769427,-0.1
1747252748066457663,-0.105
1747252748074145899,-0.1
1747252748081834135,-0.08600000000000001
1747252748089522371,-0.07100000000000001
1747252748097210607,-0.068
1747252748104898843,-0.068
1747252748112587079,-0.054
1747252748120275315,-0.049
1747252748127963551,-0.078
1747252748135651787,-0.096
1747252748143340023,-0.083
1747252748151028259,-0.078
1747252748158716495,-0.081
1747252748166404731,-0.081
1747252748174092967,-0.076
1747252748181781203,-0.078
1747252748189469439,-0.1
1747252748197157675,-0.169
1747252748204845911,-0.253
1747252748212534147,-0.088
1747252748220222383,0.578
1747252748227910619,1.474
1747252748235598855,1.8880000000000001
1747252748243287091,1.129
1747252748250975327,-0.233
1747252748258663563,-0.585
1747252748266351799,-0.14
1747252748274040035,-0.123
1747252748281728271,-0.27
1747252748289416507,-0.17200000000000001
1747252748297104743,-0.132
1747252748304792979,-0.17400000000000002
1747252748312481215,-0.132
1747252748320169451,-0.091
1747252748327857687,-0.096
1747252748335545923,-0.081
1747252748343234159,-0.044
1747252748350922395,-0.029
1747252748358610631,-0.027
1747252748366298867,-0.004
1747252748373987103,0.017
1747252748381675339,0.029
1747252748389363575,0.054
1747252748397051811,0.078
1747252748404740047,0.098
1747252748412428283,0.123
1747252748420116519,0.145
1747252748427804755,0.16
1747252748435492991,0.169
1747252748443181227,0.16
1747252748450869463,0.14
1747252748458557699,0.128
1747252748466245935,0.11800000000000001
1747252748473934171,0.10300000000000001
1747252748481622407,0.068
1747252748489310643,0.007
1747252748496998879,-0.051000000000000004
1747252748504687115,-0.088
1747252748512375351,-0.128
1747252748520063587,-0.169
1747252748527751823,-0.199
1747252748535440059,-0.20400000000000001
1747252748543128295,-0.20400000000000001
1747252748550816531,-0.20400000000000001
1747252748558504767,-0.192
1747252748566193003,-0.17200000000000001
1747252748573881239,-0.162
1747252748581569475,-0.16
1747252748589257711,-0.157
1747252748596945997,-0.152
1747252748604633536,-0.14
1747252748612321075,-0.12
1747252748620008614,-0.12
1747252748627696153,-0.13
1747252748635383692,-0.128
1747252748643071231,-0.12
1747252748650758770,-0.123
1747252748658446309,-0.12
1747252748666133848,-0.125
1747252748673821387,-0.128
1747252748681508926,-0.11
1747252748689196465,-0.105
1747252748696884004,-0.115
1747252748704571543,-0.113
1747252748712259082,-0.123
1747252748719946621,-0.132
1747252748727634160,-0.11
1747252748735321699,-0.093
1747252748743009238,-0.105
1747252748750696777,-0.115
1747252748758384316,-0.108
1747252748766071855,-0.105
1747252748773759394,-0.115
1747252748781446933,-0.115
1747252748789134472,-0.093
1747252748796822011,-0.07100000000000001
1747252748804509550,-0.07100000000000001
1747252748812197089,-0.066
1747252748819884628,-0.059000000000000004
1747252748827572167,-0.081
1747252748835259706,-0.098
1747252748842947245,-0.093
1747252748850634784,-0.093
1747252748858322323,-0.091
1747252748866009862,-0.078
1747252748873697401,-0.076
1747252748881384940,-0.083
1747252748889072479,-0.093
1747252748896760018,-0.137
1747252748904447557,-0.226
1747252748912135096,-0.179
1747252748919822635,0.32
1747252748927510174,1.189
1747252748935197713,1.826
1747252748942885252,1.472
1747252748950572791,0.164
1747252748958260330,-0.608
1747252748965947869,-0.292
1747252748973635408,-0.1
1747252748981322947,-0.258
1747252748989010486,-0.20600000000000002
1747252748996698025,-0.128
1747252749004385564,-0.167
1747252749012073103,-0.152
1747252749019760642,-0.105
1747252749027448181,-0.105
1747252749035135720,-0.093
1747252749042823259,-0.061
1747252749050510798,-0.046
1747252749058198337,-0.039
1747252749065885876,-0.019
1747252749073573415,0.0
1747252749081260954,0.019
1747252749088948493,0.041
1747252749096636032,0.056
1747252749104323571,0.073
1747252749112011110,0.093
1747252749119698649,0.11800000000000001
1747252749127386188,0.137
1747252749135073727,0.145
1747252749142761266,0.14200000000000002
1747252749150448805,0.135
1747252749158136411,0.12,84,722
1747252749165824368,0.10300000000000001
1747252749173512325,0.081
1747252749181200282,0.051000000000000004
1747252749188888239,0.009000000000000001
1747252749196576196,-0.041
1747252749204264153,-0.1
1747252749211952110,-0.147
1747252749219640067,-0.182
1747252749227328024,-0.20600000000000002
1747252749235015981,-0.219
1747252749242703938,-0.221
1747252749250391895,-0.211
1747252749258079852,-0.199
1747252749265767809,-0.194
1747252749273455766,-0.189
1747252749281143723,-0.177
1747252749288831680,-0.162
1747252749296519637,-0.152
1747252749304207594,-0.14
1747252749311895551,-0.135
1747252749319583508,-0.137
1747252749327271465,-0.13
1747252749334959422,-0.12
1747252749342647379,-0.123
1747252749350335336,-0.123
1747252749358023293,-0.11800000000000001
1747252749365711250,-0.11800000000000001
1747252749373399207,-0.12
1747252749381087164,-0.11800000000000001
1747252749388775121,-0.123
1747252749396463078,-0.123
1747252749404151035,-0.115
1747252749411838992,-0.113
1747252749419526949,-0.113
1747252749427214906,-0.115
1747252749434902863,-0.113
1747252749442590820,-0.113
1747252749450278777,-0.113
1747252749457966734,-0.11
1747252749465654691,-0.11
1747252749473342648,-0.12
1747252749481030605,-0.123
1747252749488718562,-0.113
1747252749496406519,-0.1
1747252749504094476,-0.091
1747252749511782433,-0.083
1747252749519470390,-0.076
1747252749527158347,-0.068
1747252749534846304,-0.073
1747252749542534261,-0.098
1747252749550222218,-0.11
1747252749557910175,-0.1
1747252749565598132,-0.091
1747252749573286089,-0.091
1747252749580974046,-0.091
1747252749588662003,-0.088
1747252749596349960,-0.096
1747252749604037917,-0.132
1747252749611725874,-0.221
1747252749619413831,-0.26
1747252749627101788,0.059000000000000004
1747252749634789745,0.849
1747252749642477702,1.683
1747252749650165659,1.814
1747252749657853616,0.755
1747252749665541573,-0.467
1747252749673229530,-0.494
1747252749680917487,-0.098
1747252749688605444,-0.20400000000000001
1747252749696293401,-0.28800000000000003
1747252749703981358,-0.169
1747252749711669315,-0.167
1747252749719357344,-0.194
1747252749727045301,-0.14200000000000002
1747252749734733258,-0.115
1747252749742421215,-0.12
1747252749750109172,-0.093
1747252749757797129,-0.066
1747252749765485086,-0.059000000000000004
1747252749773173043,-0.051000000000000004
1747252749780861000,-0.024
1747252749788548957,-0.002
1747252749796236914,0.014
1747252749803924871,0.041
1747252749811612828,0.066
1747252749819300785,0.083
1747252749826988742,0.11
1747252749834676699,0.137
1747252749842364656,0.15
1747252749850052613,0.157
1747252749857740570,0.157
1747252749865428527,0.145
1747252749873116484,0.128
1747252749880804441,0.11
1747252749888492398,0.083
1747252749896180355,0.041
1747252749903868312,-0.014
1747252749911556269,-0.078
1747252749919244226,-0.132
1747252749926932183,-0.17200000000000001
1747252749934620140,-0.20400000000000001
1747252749942308097,-0.224
1747252749949996054,-0.224
1747252749957684011,-0.219
1747252749965371968,-0.211
1747252749973059925,-0.201
1747252749980747882,-0.194
1747252749988435839,-0.182
1747252749996123796,-0.169
1747252750003811753,-0.162
1747252750011499710,-0.157
1747252750019187667,-0.147
1747252750026875624,-0.145
1747252750034563581,-0.145
1747252750042251538,-0.14200000000000002
1747252750049939495,-0.135
1747252750057627452,-0.135
1747252750065315409,-0.135
1747252750073003366,-0.135
1747252750080691323,-0.135
1747252750088379280,-0.135
1747252750096067237,-0.13
1747252750103755194,-0.125
1747252750111443151,-0.123
1747252750119131108,-0.12
1747252750126819065,-0.125
1747252750134507022,-0.12
1747252750142194979,-0.113
1747252750149882936,-0.113
1747252750157570893,-0.11800000000000001
1747252750165258850,-0.113
1747252750172946807,-0.11
1747252750180634764,-0.11
1747252750188322721,-0.115
1747252750196010678,-0.12
1747252750203698635,-0.12
1747252750211386592,-0.11
1747252750219074549,-0.096
1747252750226762506,-0.08600000000000001
1747252750234450463,-0.078
1747252750242138420,-0.066
1747252750249826377,-0.061
1747252750257514334,-0.083
1747252750265202291,-0.108
1747252750272890248,-0.108
1747252750280578277,-0.093,84,724
1747252750288266304,-0.091
1747252750295954331,-0.091
1747252750303642358,-0.088
1747252750311330385,-0.08600000000000001
1747252750319018412,-0.105
1747252750326706439,-0.167
1747252750334394466,-0.26
1747252750342082493,-0.201
1747252750349770520,0.307
1747252750357458547,1.179
1747252750365146574,1.858
1747252750372834601,1.55
1747252750380522628,0.219
1747252750388210655,-0.622
1747252750395898682,-0.322
1747252750403586709,-0.096
1747252750411274736,-0.268
1747252750418962763,-0.251
1747252750426650790,-0.15
1747252750434338817,-0.179
1747252750442026844,-0.179
1747252750449714871,-0.128
1747252750457402898,-0.115
1747252750465090925,-0.11
1747252750472778952,-0.081
1747252750480466979,-0.061
1747252750488155006,-0.051000000000000004
1747252750495843033,-0.034
1747252750503531060,-0.014
1747252750511219087,0.007
1747252750518907114,0.029
1747252750526595141,0.051000000000000004
1747252750534283168,0.076
1747252750541971195,0.10300000000000001
1747252750549659222,0.132
1747252750557347249,0.157
1747252750565035276,0.167
1747252750572723303,0.17200000000000001
1747252750580411330,0.169
1747252750588099357,0.157
1747252750595787384,0.137
1747252750603475411,0.113
1747252750611163438,0.081
1747252750618851465,0.029
1747252750626539492,-0.036000000000000004
1747252750634227519,-0.098
1747252750641915546,-0.15
1747252750649603573,-0.192
1747252750657291600,-0.216
1747252750664979627,-0.228
1747252750672667654,-0.228
1747252750680355681,-0.221
1747252750688043708,-0.209
1747252750695731735,-0.199
1747252750703419762,-0.192
1747252750711107789,-0.179
1747252750718795816,-0.169
1747252750726483843,-0.162
1747252750734171870,-0.157
1747252750741859897,-0.15
1747252750749547924,-0.14200000000000002
1747252750757235951,-0.14
1747252750764923978,-0.137
1747252750772612005,-0.137
1747252750780300032,-0.135
1747252750787988059,-0.132
1747252750795676086,-0.13
1747252750803364113,-0.13
1747252750811052140,-0.13
1747252750818740167,-0.128
1747252750826428194,-0.125
1747252750834116221,-0.125
1747252750841804301,-0.12
1747252750849492328,-0.11800000000000001
1747252750857180355,-0.115
1747252750864868382,-0.11
1747252750872556409,-0.11
1747252750880244436,-0.113
1747252750887932463,-0.108
1747252750895620490,-0.10300000000000001
1747252750903308517,-0.10300000000000001
1747252750910996544,-0.11
1747252750918684571,-0.115
1747252750926372598,-0.115
1747252750934060625,-0.108
1747252750941748652,-0.091
1747252750949436679,-0.081
1747252750957124706,-0.076
1747252750964812733,-0.064
1747252750972500760,-0.054
1747252750980188787,-0.073
1747252750987876814,-0.096
1747252750995564841,-0.096
1747252751003252868,-0.08600000000000001
1747252751010940895,-0.083
1747252751018628922,-0.088
1747252751026316949,-0.081
1747252751034004976,-0.068
1747252751041693003,-0.081
1747252751049381030,-0.12
1747252751057069057,-0.196
1747252751064757084,-0.253
1747252751072445111,0.004
1747252751080133138,0.75
1747252751087821165,1.617
1747252751095509192,1.885
1747252751103197219,0.9400000000000001
1747252751110885246,-0.379
1747252751118573273,-0.541
1747252751126261300,-0.098
1747252751133949327,-0.164
1747252751141637354,-0.29
1747252751149325381,-0.162
1747252751157013408,-0.132
1747252751164701435,-0.17200000000000001
1747252751172389462,-0.128
1747252751180077489,-0.098
1747252751187765516,-0.10300000000000001
1747252751195453543,-0.076
1747252751203141570,-0.049
1747252751210829597,-0.039
1747252751218517624,-0.024
1747252751226205651,-0.002
1747252751233893678,0.022
1747252751241581705,0.049
1747252751249269732,0.068
1747252751256957759,0.091
1747252751264645786,0.11800000000000001
1747252751272333813,0.14
1747252751280021840,0.17400000000000002
1747252751287709867,0.20400000000000001
1747252751295397894,0.201
1747252751303085921,0.196
1747252751310773948,0.199
1747252751318461975,0.179
1747252751326150002,0.145
1747252751333838029,0.123
1747252751341526056,0.088
1747252751349214083,0.022
1747252751356902110,-0.049
1747252751364590137,-0.113
1747252751372278164,-0.16
1747252751379966191,-0.189
1747252751387654218,-0.211
1747252751395342245,-0.219
1747252751403030321,-0.211,84,702
1747252751410718348,-0.196,,711
1747252751418406375,-0.187
1747252751426094402,-0.184
1747252751433782429,-0.177
1747252751441470456,-0.162
1747252751449158483,-0.145
1747252751456846510,-0.132
1747252751464534537,-0.135
1747252751472222564,-0.135
1747252751479910591,-0.128
1747252751487598618,-0.12
1747252751495286645,-0.12
1747252751502974672,-0.12
1747252751510662699,-0.113
1747252751518350726,-0.113
1747252751526038753,-0.115
1747252751533726780,-0.11
1747252751541414807,-0.105
1747252751549102834,-0.105
1747252751556790861,-0.11
1747252751564478888,-0.11
1747252751572166915,-0.1
1747252751579854942,-0.105
1747252751587542969,-0.10300000000000001
1747252751595230996,-0.08600000000000001
1747252751602919023,-0.08600000000000001
1747252751610607050,-0.098
1747252751618295077,-0.1
1747252751625983104,-0.098
1747252751633671131,-0.105
1747252751641359158,-0.1
1747252751649047185,-0.076
1747252751656735212,-0.07100000000000001
1747252751664423239,-0.073
1747252751672111266,-0.049
1747252751679799293,-0.036000000000000004
1747252751687487320,-0.059000000000000004
1747252751695175347,-0.08600000000000001
1747252751702863374,-0.093
1747252751710551401,-0.08600000000000001
1747252751718239428,-0.081
1747252751725927455,-0.076
1747252751733615482,-0.07100000000000001
1747252751741303509,-0.068
1747252751748991536,-0.073
1747252751756679563,-0.11
1747252751764367590,-0.194
1747252751772055617,-0.243
1747252751779743644,0.002
1747252751787431671,0.7010000000000001
1747252751795119698,1.543
1747252751802807725,1.883
1747252751810495752,1.07
1747252751818183779,-0.28300000000000003
1747252751825871806,-0.58
1747252751833559833,-0.135
1747252751841247860,-0.145
1747252751848935887,-0.275
1747252751856623914,-0.16
1747252751864311941,-0.123
1747252751871999968,-0.164
1747252751879687995,-0.128
1747252751887376022,-0.096
1747252751895064049,-0.098
1747252751902752076,-0.073
1747252751910440103,-0.049
1747252751918128130,-0.036000000000000004
1747252751925816157,-0.009000000000000001
1747252751933504184,0.012
1747252751941192211,0.022
1747252751948880238,0.049
1747252751956568265,0.078
1747252751964256341,0.098,84,720
1747252751971944368,0.128
1747252751979632395,0.16
1747252751987320422,0.184
1747252751995008449,0.201
1747252752002696476,0.211
1747252752010384503,0.211
1747252752018072530,0.201
1747252752025760557,0.182
1747252752033448584,0.155
1747252752041136611,0.11800000000000001
1747252752048824638,0.07100000000000001
1747252752056512665,0.007
1747252752064200692,-0.073
1747252752071888719,-0.14200000000000002
1747252752079576746,-0.189
1747252752087264773,-0.219
1747252752094952800,-0.23800000000000002
1747252752102640827,-0.246
1747252752110328854,-0.23800000000000002
1747252752118016881,-0.231
1747252752125704908,-0.224
1747252752133392935,-0.211
1747252752141080962,-0.199
1747252752148768989,-0.192
1747252752156457016,-0.182
1747252752164145043,-0.169
1747252752171833070,-0.16
1747252752179521097,-0.16
1747252752187209124,-0.157
1747252752194897151,-0.145
1747252752202585178,-0.14
1747252752210273205,-0.14
1747252752217961232,-0.135
1747252752225649259,-0.137
1747252752233337286,-0.14
1747252752241025313,-0.135
1747252752248713340,-0.13
1747252752256401367,-0.135
1747252752264089394,-0.137
1747252752271777421,-0.132
1747252752279465448,-0.13
1747252752287153475,-0.132
1747252752294841502,-0.13
1747252752302529529,-0.125
1747252752310217556,-0.125
1747252752317905583,-0.135
1747252752325593610,-0.14
1747252752333281637,-0.135
1747252752340969664,-0.123
1747252752348657691,-0.105
1747252752356345718,-0.10300000000000001
1747252752364033745,-0.10300000000000001
1747252752371721772,-0.088
1747252752379409799,-0.081
1747252752387097826,-0.1
1747252752394785853,-0.12
1747252752402473880,-0.12
1747252752410161907,-0.11
1747252752417849934,-0.11
1747252752425537961,-0.108
1747252752433225988,-0.1
1747252752440914015,-0.096
1747252752448602042,-0.113
1747252752456290069,-0.162
1747252752463978096,-0.248
1747252752471666123,-0.23800000000000002
1747252752479354150,0.169
1747252752487042177,0.979
1747252752494730204,1.718
1747252752502418231,1.678
1747252752510106258,0.509
1747252752517794285,-0.585
1747252752525482361,-0.452
1747252752533170388,-0.088
1747252752540858415,-0.241
1747252752548546442,-0.295
1747252752556234469,-0.167
1747252752563922496,-0.17400000000000002
1747252752571610523,-0.201
1747252752579298550,-0.15
1747252752586986577,-0.125
1747252752594674604,-0.128
1747252752602362631,-0.10300000000000001
1747252752610050658,-0.078
1747252752617738685,-0.066
1747252752625426712,-0.049
1747252752633114739,-0.029
1747252752640802766,-0.012
1747252752648490793,0.007
1747252752656178820,0.034
1747252752663866847,0.059000000000000004
1747252752671554874,0.083
1747252752679242901,0.108
1747252752686930928,0.132
1747252752694618955,0.152
1747252752702306982,0.157
1747252752709995009,0.15
1747252752717683036,0.14200000000000002
1747252752725371063,0.13
1747252752733059090,0.105
1747252752740747117,0.07100000000000001
1747252752748435144,0.019
1747252752756123171,-0.044
1747252752763811198,-0.113
1747252752771499225,-0.169
1747252752779187252,-0.20600000000000002
1747252752786875279,-0.226
1747252752794563306,-0.23600000000000002
1747252752802251333,-0.23800000000000002
1747252752809939360,-0.231
1747252752817627387,-0.219
1747252752825315414,-0.20600000000000002
1747252752833003441,-0.194
1747252752840691468,-0.187
1747252752848379495,-0.17400000000000002
1747252752856067522,-0.164
1747252752863755549,-0.164
1747252752871443576,-0.16
1747252752879131603,-0.152
1747252752886819630,-0.15
1747252752894507657,-0.145
1747252752902195684,-0.14
1747252752909883711,-0.135
1747252752917571738,-0.135
1747252752925259765,-0.137
1747252752932947792,-0.135
1747252752940635819,-0.13
1747252752948323846,-0.13
1747252752956011873,-0.13
1747252752963699900,-0.128
1747252752971387927,-0.125
1747252752979075954,-0.12
1747252752986763981,-0.11800000000000001
1747252752994452008,-0.11800000000000001
1747252753002140035,-0.11800000000000001
1747252753009828062,-0.11
1747252753017516089,-0.108
1747252753025204116,-0.108
1747252753032892143,-0.11
1747252753040580170,-0.12
1747252753048268197,-0.123
1747252753055956224,-0.115
1747252753063644251,-0.1
1747252753071332278,-0.091
1747252753079020305,-0.08600000000000001
1747252753086708381,-0.076,84,727
1747252753094396408,-0.061,,708
1747252753102084435,-0.07100000000000001
1747252753109772462,-0.096
1747252753117460489,-0.108
1747252753125148516,-0.1
1747252753132836543,-0.096
1747252753140524570,-0.093
1747252753148212597,-0.088
1747252753155900624,-0.08600000000000001
1747252753163588651,-0.091
1747252753171276678,-0.12
1747252753178964705,-0.192
1747252753186652732,-0.268
1747252753194340759,-0.098
1747252753202028786,0.561
1747252753209716813,1.454
1747252753217404840,1.905
1747252753225092867,1.206
1747252753232780894,-0.17400000000000002
1747252753240468921,-0.617
1747252753248156948,-0.187
1747252753255844975,-0.13
1747252753263533002,-0.295
1747252753271221029,-0.214
1747252753278909056,-0.155
1747252753286597083,-0.192
1747252753294285110,-0.162
1747252753301973137,-0.123
1747252753309661164,-0.123
1747252753317349191,-0.10300000000000001
1747252753325037218,-0.078
1747252753332725245,-0.064
1747252753340413272,-0.049
1747252753348101299,-0.032
1747252753355789326,-0.014
1747252753363477353,0.009000000000000001
1747252753371165380,0.036000000000000004
1747252753378853407,0.059000000000000004
1747252753386541434,0.08600000000000001
1747252753394229461,0.11800000000000001
1747252753401917488,0.14200000000000002
1747252753409605515,0.16
1747252753417293542,0.17200000000000001
1747252753424981569,0.177
1747252753432669596,0.167
1747252753440357623,0.15
1747252753448045650,0.132
1747252753455733677,0.108
1747252753463421704,0.066
1747252753471109731,0.0
1747252753478797758,-0.068
1747252753486485785,-0.123
1747252753494173812,-0.17200000000000001
1747252753501861839,-0.209
1747252753509549866,-0.226
1747252753517237893,-0.233
1747252753524925920,-0.231
1747252753532613947,-0.221
1747252753540301974,-0.209
1747252753547990001,-0.199
1747252753555678028,-0.189
1747252753563366055,-0.179
1747252753571054082,-0.17400000000000002
1747252753578742109,-0.167
1747252753586430136,-0.157
1747252753594118163,-0.157
1747252753601806190,-0.16
1747252753609494217,-0.155
1747252753617182244,-0.147
1747252753624870271,-0.145
1747252753632558298,-0.14
1747252753640246325,-0.137
1747252753647934401,-0.137
1747252753655622358,-0.135
1747252753663310315,-0.137
1747252753670998272,-0.137
1747252753678686229,-0.132
1747252753686374186,-0.13
1747252753694062143,-0.13
1747252753701750100,-0.128
1747252753709438057,-0.12
1747252753717126014,-0.11800000000000001
1747252753724813971,-0.12
1747252753732501928,-0.11800000000000001
1747252753740189885,-0.11
1747252753747877842,-0.108
1747252753755565799,-0.11
1747252753763253756,-0.108
1747252753770941713,-0.11
1747252753778629670,-0.11800000000000001
1747252753786317627,-0.123
1747252753794005584,-0.115
1747252753801693541,-0.1
1747252753809381498,-0.088
1747252753817069455,-0.08600000000000001
1747252753824757412,-0.073
1747252753832445369,-0.059000000000000004
1747252753840133326,-0.073
1747252753847821283,-0.10300000000000001
1747252753855509240,-0.11
1747252753863197197,-0.098
1747252753870885154,-0.096
1747252753878573111,-0.096
1747252753886261068,-0.091
1747252753893949025,-0.088
1747252753901636982,-0.091
1747252753909324939,-0.11800000000000001
1747252753917012896,-0.192
1747252753924700853,-0.265
1747252753932388810,-0.091
1747252753940076767,0.561
1747252753947764724,1.442
1747252753955452681,1.8780000000000001
1747252753963140638,1.164
1747252753970828595,-0.187
1747252753978516552,-0.593
1747252753986204509,-0.177
1747252753993892466,-0.14200000000000002
1747252754001580423,-0.292
1747252754009268380,-0.20400000000000001
1747252754016956337,-0.147
1747252754024644294,-0.189
1747252754032332251,-0.164
1747252754040020208,-0.11800000000000001
1747252754047708165,-0.115
1747252754055396122,-0.10300000000000001
1747252754063084079,-0.076
1747252754070772036,-0.061
1747252754078459993,-0.049
1747252754086147950,-0.027
1747252754093835907,-0.004
1747252754101523864,0.014
1747252754109211821,0.036000000000000004
1747252754116899778,0.061
1747252754124587735,0.091
1747252754132275692,0.11800000000000001
1747252754139963649,0.145
1747252754147651606,0.167
1747252754155339563,0.179
1747252754163027520,0.182
1747252754170715477,0.177
1747252754178403434,0.162
1747252754186091391,0.14200000000000002
1747252754193779348,0.115
1747252754201467305,0.073
1747252754209155334,0.014,84,697
1747252754216843291,-0.054
1747252754224531248,-0.115
1747252754232219205,-0.164
1747252754239907162,-0.201
1747252754247595119,-0.219
1747252754255283076,-0.226
1747252754262971033,-0.224
1747252754270658990,-0.214
1747252754278346947,-0.20400000000000001
1747252754286034904,-0.199
1747252754293722861,-0.187
1747252754301410818,-0.167
1747252754309098775,-0.162
1747252754316786732,-0.16
1747252754324474689,-0.152
1747252754332162646,-0.145
1747252754339850603,-0.14
1747252754347538560,-0.135
1747252754355226517,-0.132
1747252754362914474,-0.132
1747252754370602431,-0.13
1747252754378290388,-0.128
1747252754385978345,-0.128
1747252754393666302,-0.123
1747252754401354259,-0.12
1747252754409042216,-0.123
1747252754416730173,-0.12
1747252754424418130,-0.115
1747252754432106087,-0.113
1747252754439794044,-0.108
1747252754447482001,-0.1
1747252754455169958,-0.1
1747252754462857915,-0.10300000000000001
1747252754470545872,-0.096
1747252754478233829,-0.093
1747252754485921786,-0.096
1747252754493609743,-0.093
1747252754501297700,-0.096
1747252754508985657,-0.10300000000000001
1747252754516673614,-0.098
1747252754524361571,-0.091
1747252754532049528,-0.083
1747252754539737485,-0.07100000000000001
1747252754547425442,-0.061
1747252754555113399,-0.054
1747252754562801356,-0.049
1747252754570489313,-0.061
1747252754578177270,-0.083
1747252754585865227,-0.088
1747252754593553184,-0.081
1747252754601241141,-0.081
1747252754608929098,-0.076
1747252754616617055,-0.066
1747252754624305012,-0.064
1747252754631992969,-0.07100000000000001
1747252754639680926,-0.10300000000000001
1747252754647368883,-0.184
1747252754655056840,-0.246
1747252754662744797,-0.012
1747252754670432754,0.708
1747252754678120711,1.587
1747252754685808668,1.893
1747252754693496625,0.997
1747252754701184582,-0.332
1747252754708872539,-0.539
1747252754716560496,-0.096
1747252754724248453,-0.137
1747252754731936410,-0.268
1747252754739624367,-0.16
1747252754747312324,-0.135
1747252754755000281,-0.17400000000000002
1747252754762688238,-0.12
1747252754770376267,-0.078
1747252754778064015,-0.098
1747252754785751763,-0.081
1747252754793439511,-0.036000000000000004
1747252754801127259,-0.024
1747252754808815007,-0.022
1747252754816502755,-0.002
1747252754824190503,0.022
1747252754831878251,0.049
1747252754839565999,0.073
1747252754847253747,0.093
1747252754854941495,0.123
1747252754862629243,0.16
1747252754870316991,0.184
1747252754878004739,0.192
1747252754885692487,0.196
1747252754893380235,0.199
1747252754901067983,0.196
1747252754908755731,0.187
1747252754916443479,0.167
1747252754924131227,0.135
1747252754931818975,0.091
1747252754939506723,0.024
1747252754947194471,-0.059000000000000004
1747252754954882219,-0.128
1747252754962569967,-0.169
1747252754970257715,-0.196
1747252754977945463,-0.214
1747252754985633211,-0.219
1747252754993320959,-0.221
1747252755001008707,-0.211
1747252755008696455,-0.194
1747252755016384203,-0.187
1747252755024071951,-0.179
1747252755031759699,-0.162
1747252755039447447,-0.15
1747252755047135195,-0.15
1747252755054822943,-0.15
1747252755062510691,-0.128
1747252755070198439,-0.11
1747252755077886187,-0.128
1747252755085573935,-0.14
1747252755093261683,-0.115
1747252755100949431,-0.108
1747252755108637179,-0.123
1747252755116324927,-0.11800000000000001
1747252755124012675,-0.11
1747252755131700423,-0.11
1747252755139388171,-0.11
1747252755147075919,-0.113
1747252755154763667,-0.115
1747252755162451415,-0.108
1747252755170139163,-0.113
1747252755177826911,-0.11
1747252755185514659,-0.1
1747252755193202407,-0.096
1747252755200890155,-0.098
1747252755208577903,-0.10300000000000001
1747252755216265651,-0.105
1747252755223953399,-0.113
1747252755231641147,-0.113
1747252755239328895,-0.091
1747252755247016643,-0.073
1747252755254704391,-0.073
1747252755262392139,-0.066
1747252755270079887,-0.051000000000000004
1747252755277767635,-0.064
1747252755285455383,-0.098
1747252755293143131,-0.10300000000000001
1747252755300830879,-0.091
1747252755308518627,-0.088
1747252755316206375,-0.08600000000000001
1747252755323894123,-0.08600000000000001
1747252755331581943,-0.08600000000000001,84,719
1747252755339269970,-0.088
1747252755346957997,-0.113
1747252755354646024,-0.194
1747252755362334051,-0.27
1747252755370022078,-0.044
1747252755377710105,0.684
1747252755385398132,1.541
1747252755393086159,1.853
1747252755400774186,1.041
1747252755408462213,-0.28500000000000003
1747252755416150240,-0.588
1747252755423838267,-0.155
1747252755431526294,-0.152
1747252755439214321,-0.28500000000000003
1747252755446902348,-0.187
1747252755454590375,-0.15
1747252755462278402,-0.184
1747252755469966429,-0.14200000000000002
1747252755477654456,-0.105
1747252755485342483,-0.11800000000000001
1747252755493030510,-0.108
1747252755500718537,-0.068
1747252755508406564,-0.054
1747252755516094591,-0.049
1747252755523782618,-0.022
1747252755531470645,0.002
1747252755539158672,0.019
1747252755546846699,0.036000000000000004
1747252755554534726,0.059000000000000004
1747252755562222753,0.091
1747252755569910780,0.12
1747252755577598807,0.14200000000000002
1747252755585286834,0.162
1747252755592974861,0.164
1747252755600662888,0.155
1747252755608350915,0.145
1747252755616038942,0.132
1747252755623726969,0.108
1747252755631414996,0.078
1747252755639103023,0.036000000000000004
1747252755646791050,-0.029
1747252755654479077,-0.098
1747252755662167104,-0.152
1747252755669855131,-0.192
1747252755677543158,-0.224
1747252755685231185,-0.23800000000000002
1747252755692919212,-0.241
1747252755700607239,-0.23800000000000002
1747252755708295266,-0.231
1747252755715983293,-0.219
1747252755723671320,-0.209
1747252755731359347,-0.196
1747252755739047374,-0.187
1747252755746735401,-0.179
1747252755754423428,-0.17200000000000001
1747252755762111455,-0.162
1747252755769799482,-0.155
1747252755777487509,-0.152
1747252755785175536,-0.147
1747252755792863563,-0.14200000000000002
1747252755800551590,-0.14200000000000002
1747252755808239617,-0.14200000000000002
1747252755815927644,-0.14
1747252755823615671,-0.137
1747252755831303698,-0.14
1747252755838991725,-0.14
1747252755846679752,-0.14200000000000002
1747252755854367779,-0.14
1747252755862055806,-0.135
1747252755869743833,-0.132
1747252755877431860,-0.13
1747252755885119887,-0.13
1747252755892807963,-0.13
1747252755900495990,-0.128
1747252755908184017,-0.123
1747252755915872044,-0.123
1747252755923560071,-0.13
1747252755931248098,-0.135
1747252755938936125,-0.137
1747252755946624152,-0.125
1747252755954312179,-0.11
1747252755962000206,-0.108
1747252755969688233,-0.108
1747252755977376260,-0.091
1747252755985064287,-0.078
1747252755992752314,-0.091
1747252756000440341,-0.11800000000000001
1747252756008128368,-0.125
1747252756015816395,-0.113
1747252756023504422,-0.105
1747252756031192449,-0.105
1747252756038880476,-0.10300000000000001
1747252756046568503,-0.098
1747252756054256530,-0.105
1747252756061944557,-0.14
1747252756069632584,-0.221
1747252756077320611,-0.278
1747252756085008638,-0.029
1747252756092696665,0.7010000000000001
1747252756100384692,1.57
1747252756108072719,1.87
1747252756115760746,0.982
1747252756123448773,-0.356
1747252756131136800,-0.58
1747252756138824827,-0.132
1747252756146512854,-0.169
1747252756154200881,-0.315
1747252756161888908,-0.20400000000000001
1747252756169576935,-0.167
1747252756177264962,-0.209
1747252756184952989,-0.167
1747252756192641016,-0.128
1747252756200329043,-0.132
1747252756208017070,-0.113
1747252756215705097,-0.08600000000000001
1747252756223393124,-0.073
1747252756231081151,-0.054
1747252756238769178,-0.034
1747252756246457205,-0.019
1747252756254145232,0.0
1747252756261833259,0.029
1747252756269521286,0.056
1747252756277209313,0.081
1747252756284897340,0.108
1747252756292585367,0.13
1747252756300273394,0.147
1747252756307961421,0.162
1747252756315649448,0.162
1747252756323337475,0.152
1747252756331025502,0.137
1747252756338713529,0.11800000000000001
1747252756346401556,0.088
1747252756354089583,0.041
1747252756361777610,-0.024
1747252756369465637,-0.096
1747252756377153664,-0.152
1747252756384841691,-0.194
1747252756392529718,-0.224
1747252756400217745,-0.241
1747252756407905772,-0.246
1747252756415593799,-0.23800000000000002
1747252756423281826,-0.226
1747252756430969853,-0.216
1747252756438657880,-0.209
1747252756446345907,-0.196
1747252756454033983,-0.182,84,738
1747252756461721592,-0.17200000000000001,,729
1747252756469409201,-0.169
1747252756477096810,-0.169
1747252756484784419,-0.164
1747252756492472028,-0.157
1747252756500159637,-0.15
1747252756507847246,-0.152
1747252756515534855,-0.15
1747252756523222464,-0.145
1747252756530910073,-0.145
1747252756538597682,-0.14200000000000002
1747252756546285291,-0.14
1747252756553972900,-0.14200000000000002
1747252756561660509,-0.14
1747252756569348118,-0.132
1747252756577035727,-0.13
1747252756584723336,-0.13
1747252756592410945,-0.125
1747252756600098554,-0.125
1747252756607786163,-0.123
1747252756615473772,-0.11800000000000001
1747252756623161381,-0.11800000000000001
1747252756630848990,-0.11800000000000001
1747252756638536599,-0.113
1747252756646224208,-0.115
1747252756653911817,-0.123
1747252756661599426,-0.123
1747252756669287035,-0.115
1747252756676974644,-0.10300000000000001
1747252756684662253,-0.093
1747252756692349862,-0.091
1747252756700037471,-0.081
1747252756707725080,-0.066
1747252756715412689,-0.073
1747252756723100298,-0.1
1747252756730787907,-0.113
1747252756738475516,-0.10300000000000001
1747252756746163125,-0.096
1747252756753850734,-0.096
1747252756761538343,-0.093
1747252756769225952,-0.08600000000000001
1747252756776913561,-0.088
1747252756784601170,-0.11800000000000001
1747252756792288779,-0.189
1747252756799976388,-0.27
1747252756807663997,-0.152
1747252756815351606,0.433
1747252756823039215,1.321
1747252756830726824,1.8880000000000001
1747252756838414433,1.368
1747252756846102042,-0.007
1747252756853789651,-0.632
1747252756861477260,-0.243
1747252756869164869,-0.113
1747252756876852478,-0.28800000000000003
1747252756884540087,-0.233
1747252756892227696,-0.152
1747252756899915305,-0.189
1747252756907602914,-0.17400000000000002
1747252756915290523,-0.125
1747252756922978132,-0.11800000000000001
1747252756930665741,-0.11
1747252756938353350,-0.08600000000000001
1747252756946040959,-0.066
1747252756953728568,-0.051000000000000004
1747252756961416177,-0.029
1747252756969103786,-0.009000000000000001
1747252756976791395,0.007
1747252756984479004,0.032
1747252756992166613,0.059000000000000004
1747252756999854222,0.083
1747252757007541831,0.113
1747252757015229481,0.14,84,708
1747252757022917508,0.164
1747252757030605535,0.177
1747252757038293562,0.179
1747252757045981589,0.17200000000000001
1747252757053669616,0.157
1747252757061357643,0.137
1747252757069045670,0.113
1747252757076733697,0.068
1747252757084421724,0.007
1747252757092109751,-0.059000000000000004
1747252757099797778,-0.128
1747252757107485805,-0.182
1747252757115173832,-0.214
1747252757122861859,-0.233
1747252757130549886,-0.241
1747252757138237913,-0.241
1747252757145925940,-0.231
1747252757153613967,-0.219
1747252757161301994,-0.20400000000000001
1747252757168990021,-0.192
1747252757176678048,-0.184
1747252757184366075,-0.177
1747252757192054102,-0.167
1747252757199742129,-0.16
1747252757207430156,-0.155
1747252757215118183,-0.152
1747252757222806210,-0.152
1747252757230494237,-0.147
1747252757238182264,-0.145
1747252757245870291,-0.14200000000000002
1747252757253558318,-0.14
1747252757261246345,-0.137
1747252757268934372,-0.137
1747252757276622399,-0.135
1747252757284310426,-0.132
1747252757291998453,-0.132
1747252757299686480,-0.13
1747252757307374507,-0.13
1747252757315062534,-0.128
1747252757322750561,-0.123
1747252757330438588,-0.11800000000000001
1747252757338126615,-0.11800000000000001
1747252757345814642,-0.11800000000000001
1747252757353502669,-0.115
1747252757361190696,-0.11
1747252757368878723,-0.108
1747252757376566750,-0.11
1747252757384254777,-0.108
1747252757391942804,-0.11
1747252757399630831,-0.11800000000000001
1747252757407318858,-0.12
1747252757415006885,-0.105
1747252757422694912,-0.08600000000000001
1747252757430382939,-0.083
1747252757438070966,-0.078
1747252757445758993,-0.059000000000000004
1747252757453447020,-0.056
1747252757461135047,-0.083
1747252757468823074,-0.10300000000000001
1747252757476511101,-0.098
1747252757484199128,-0.093
1747252757491887155,-0.093
1747252757499575182,-0.08600000000000001
1747252757507263209,-0.078
1747252757514951236,-0.078
1747252757522639263,-0.093
1747252757530327290,-0.14200000000000002
1747252757538015317,-0.233
1747252757545703344,-0.23600000000000002
1747252757553391371,0.15
1747252757561079398,0.962
1747252757568767425,1.745
1747252757576455505,1.725
1747252757584143393,0.561
1747252757591831281,-0.529
1747252757599519169,-0.42
1747252757607207057,-0.078
1747252757614894945,-0.219
1747252757622582833,-0.268
1747252757630270721,-0.155
1747252757637958609,-0.162
1747252757645646497,-0.182
1747252757653334385,-0.13
1747252757661022273,-0.105
1747252757668710161,-0.105
1747252757676398049,-0.083
1747252757684085937,-0.061
1747252757691773825,-0.049
1747252757699461713,-0.029
1747252757707149601,-0.007
1747252757714837489,0.012
1747252757722525377,0.034
1747252757730213265,0.061
1747252757737901153,0.088
1747252757745589041,0.113
1747252757753276929,0.14200000000000002
1747252757760964817,0.167
1747252757768652705,0.187
1747252757776340593,0.194
1747252757784028481,0.192
1747252757791716369,0.179
1747252757799404257,0.167
1747252757807092145,0.14200000000000002
1747252757814780033,0.108
1747252757822467921,0.056
1747252757830155809,-0.014
1747252757837843697,-0.083
1747252757845531585,-0.14
1747252757853219473,-0.179
1747252757860907361,-0.20600000000000002
1747252757868595249,-0.219
1747252757876283137,-0.219
1747252757883971025,-0.216
1747252757891658913,-0.209
1747252757899346801,-0.199
1747252757907034689,-0.182
1747252757914722577,-0.169
1747252757922410465,-0.162
1747252757930098353,-0.152
1747252757937786241,-0.145
1747252757945474129,-0.14200000000000002
1747252757953162017,-0.137
1747252757960849905,-0.135
1747252757968537793,-0.128
1747252757976225681,-0.123
1747252757983913569,-0.125
1747252757991601457,-0.13
1747252757999289345,-0.125
1747252758006977233,-0.113
1747252758014665121,-0.105
1747252758022353009,-0.11
1747252758030040897,-0.125
1747252758037728785,-0.11800000000000001
1747252758045416673,-0.10300000000000001
1747252758053104561,-0.108
1747252758060792449,-0.115
1747252758068480337,-0.105
1747252758076168225,-0.091
1747252758083856113,-0.088
1747252758091544001,-0.093
1747252758099231889,-0.093
1747252758106919777,-0.091
1747252758114607665,-0.091
1747252758122295553,-0.1
1747252758129983441,-0.10300000000000001
1747252758137671351,-0.1,84,715
1747252758145359308,-0.091
1747252758153047265,-0.073
1747252758160735222,-0.068
1747252758168423179,-0.064
1747252758176111136,-0.046
1747252758183799093,-0.034
1747252758191487050,-0.059000000000000004
1747252758199175007,-0.096
1747252758206862964,-0.096
1747252758214550921,-0.073
1747252758222238878,-0.07100000000000001
1747252758229926835,-0.073
1747252758237614792,-0.061
1747252758245302749,-0.064
1747252758252990706,-0.081
1747252758260678663,-0.11
1747252758268366620,-0.196
1747252758276054577,-0.253
1747252758283742534,0.022
1747252758291430491,0.782
1747252758299118448,1.649
1747252758306806405,1.8780000000000001
1747252758314494362,0.898
1747252758322182319,-0.388
1747252758329870276,-0.512
1747252758337558233,-0.093
1747252758345246190,-0.162
1747252758352934147,-0.263
1747252758360622104,-0.157
1747252758368310061,-0.14
1747252758375998018,-0.164
1747252758383685975,-0.125
1747252758391373932,-0.098
1747252758399061889,-0.096
1747252758406749846,-0.07100000000000001
1747252758414437803,-0.036000000000000004
1747252758422125760,-0.027
1747252758429813717,-0.019
1747252758437501674,0.004
1747252758445189631,0.027
1747252758452877588,0.051000000000000004
1747252758460565545,0.078
1747252758468253502,0.1
1747252758475941459,0.128
1747252758483629416,0.162
1747252758491317373,0.189
1747252758499005330,0.20600000000000002
1747252758506693287,0.219
1747252758514381244,0.216
1747252758522069201,0.201
1747252758529757158,0.189
1747252758537445115,0.167
1747252758545133072,0.125
1747252758552821029,0.078
1747252758560508986,0.014
1747252758568196943,-0.064
1747252758575884900,-0.13
1747252758583572857,-0.177
1747252758591260814,-0.20600000000000002
1747252758598948771,-0.219
1747252758606636728,-0.219
1747252758614324685,-0.214
1747252758622012642,-0.209
1747252758629700599,-0.201
1747252758637388556,-0.192
1747252758645076513,-0.177
1747252758652764470,-0.162
1747252758660452427,-0.16
1747252758668140384,-0.155
1747252758675828341,-0.135
1747252758683516298,-0.125
1747252758691204255,-0.128
1747252758698892284,-0.123
1747252758706580102,-0.113
1747252758714267920,-0.115
1747252758721955738,-0.12
1747252758729643556,-0.113
1747252758737331374,-0.11
1747252758745019192,-0.115
1747252758752707010,-0.11
1747252758760394828,-0.11
1747252758768082646,-0.11800000000000001
1747252758775770464,-0.113
1747252758783458282,-0.105
1747252758791146100,-0.105
1747252758798833918,-0.108
1747252758806521736,-0.108
1747252758814209554,-0.098
1747252758821897372,-0.093
1747252758829585190,-0.105
1747252758837273008,-0.11800000000000001
1747252758844960826,-0.113
1747252758852648644,-0.1
1747252758860336462,-0.08600000000000001
1747252758868024280,-0.076
1747252758875712098,-0.076
1747252758883399916,-0.066
1747252758891087734,-0.054
1747252758898775552,-0.07100000000000001
1747252758906463370,-0.096
1747252758914151188,-0.098
1747252758921839006,-0.088
1747252758929526824,-0.08600000000000001
1747252758937214642,-0.088
1747252758944902460,-0.078
1747252758952590278,-0.07100000000000001
1747252758960278096,-0.08600000000000001
1747252758967965914,-0.123
1747252758975653732,-0.194
1747252758983341550,-0.26
1747252758991029368,-0.039
1747252758998717186,0.681
1747252759006405004,1.555
1747252759014092822,1.883
1747252759021780640,1.058
1747252759029468458,-0.28300000000000003
1747252759037156276,-0.5730000000000001
1747252759044844094,-0.137
1747252759052531912,-0.155
1747252759060219730,-0.292
1747252759067907548,-0.184
1747252759075595366,-0.14200000000000002
1747252759083283184,-0.17400000000000002
1747252759090971002,-0.137
1747252759098658820,-0.10300000000000001
1747252759106346638,-0.108
1747252759114034456,-0.093
1747252759121722274,-0.066
1747252759129410092,-0.051000000000000004
1747252759137097910,-0.034
1747252759144785728,-0.007
1747252759152473546,0.009000000000000001
1747252759160161364,0.034
1747252759167849182,0.064
1747252759175537000,0.078
1747252759183224818,0.105
1747252759190912636,0.145
1747252759198600454,0.17200000000000001
1747252759206288272,0.182
1747252759213976090,0.182
1747252759221663908,0.184
1747252759229351726,0.179
1747252759237039544,0.164
1747252759244727362,0.14
1747252759252415180,0.10300000000000001
1747252759260103047,0.044,84,725
1747252759267790726,-0.027,,741
1747252759275478405,-0.093
1747252759283166084,-0.15
1747252759290853763,-0.199
1747252759298541442,-0.231
1747252759306229121,-0.243
1747252759313916800,-0.241
1747252759321604479,-0.23600000000000002
1747252759329292158,-0.233
1747252759336979837,-0.224
1747252759344667516,-0.211
1747252759352355195,-0.196
1747252759360042874,-0.189
1747252759367730553,-0.184
1747252759375418232,-0.17200000000000001
1747252759383105911,-0.162
1747252759390793590,-0.157
1747252759398481269,-0.147
1747252759406168948,-0.145
1747252759413856627,-0.14200000000000002
1747252759421544306,-0.135
1747252759429231985,-0.132
1747252759436919664,-0.135
1747252759444607343,-0.132
1747252759452295022,-0.13
1747252759459982701,-0.132
1747252759467670380,-0.13
1747252759475358059,-0.128
1747252759483045738,-0.128
1747252759490733417,-0.13
1747252759498421096,-0.125
1747252759506108775,-0.123
1747252759513796454,-0.123
1747252759521484133,-0.12
1747252759529171812,-0.113
1747252759536859491,-0.11800000000000001
1747252759544547170,-0.13
1747252759552234849,-0.132
1747252759559922528,-0.123
1747252759567610207,-0.11
1747252759575297886,-0.1
1747252759582985565,-0.098
1747252759590673244,-0.091
1747252759598360923,-0.073
1747252759606048602,-0.076
1747252759613736281,-0.10300000000000001
1747252759621423960,-0.11800000000000001
1747252759629111639,-0.108
1747252759636799318,-0.1
1747252759644486997,-0.10300000000000001
1747252759652174676,-0.098
1747252759659862355,-0.093
1747252759667550034,-0.098
1747252759675237713,-0.115
1747252759682925392,-0.17400000000000002
1747252759690613071,-0.265
1747252759698300750,-0.179
1747252759705988429,0.374
1747252759713676108,1.2570000000000001
1747252759721363787,1.885
1747252759729051466,1.5090000000000001
1747252759736739145,0.15
1747252759744426824,-0.647
1747252759752114503,-0.31
1747252759759802182,-0.093
1747252759767489861,-0.28
1747252759775177540,-0.256
1747252759782865219,-0.152
1747252759790552898,-0.187
1747252759798240577,-0.187
1747252759805928256,-0.132
1747252759813615935,-0.12
1747252759821303632,-0.115
1747252759828991589,-0.088
1747252759836679546,-0.068
1747252759844367503,-0.056
1747252759852055460,-0.041
1747252759859743417,-0.017
1747252759867431374,0.004
1747252759875119331,0.024
1747252759882807288,0.046
1747252759890495245,0.081
1747252759898183202,0.113
1747252759905871159,0.135
1747252759913559116,0.155
1747252759921247073,0.17200000000000001
1747252759928935030,0.17400000000000002
1747252759936622987,0.169
1747252759944310944,0.157
1747252759951998901,0.137
1747252759959686858,0.11
1747252759967374815,0.064
1747252759975062772,0.0
1747252759982750729,-0.073
1747252759990438686,-0.137
1747252759998126643,-0.187
1747252760005814600,-0.224
1747252760013502557,-0.243
1747252760021190514,-0.248
1747252760028878471,-0.246
1747252760036566428,-0.23600000000000002
1747252760044254385,-0.221
1747252760051942342,-0.211
1747252760059630299,-0.20400000000000001
1747252760067318256,-0.194
1747252760075006213,-0.179
1747252760082694170,-0.17200000000000001
1747252760090382127,-0.167
1747252760098070084,-0.162
1747252760105758041,-0.157
1747252760113445998,-0.152
1747252760121133955,-0.15
1747252760128821912,-0.15
1747252760136509869,-0.145
1747252760144197826,-0.14
1747252760151885783,-0.137
1747252760159573740,-0.137
1747252760167261697,-0.137
1747252760174949654,-0.14
1747252760182637611,-0.135
1747252760190325568,-0.13
1747252760198013525,-0.132
1747252760205701482,-0.13
1747252760213389439,-0.123
1747252760221077396,-0.12
1747252760228765353,-0.123
1747252760236453310,-0.11800000000000001
1747252760244141267,-0.113
1747252760251829224,-0.115
1747252760259517181,-0.12
1747252760267205138,-0.125
1747252760274893095,-0.13
1747252760282581052,-0.125
1747252760290269009,-0.108
1747252760297956966,-0.096
1747252760305644923,-0.093
1747252760313332880,-0.083
1747252760321020837,-0.068
1747252760328708794,-0.078
1747252760336396751,-0.105
1747252760344084708,-0.113
1747252760351772665,-0.10300000000000001
1747252760359460622,-0.10300000000000001
1747252760367148579,-0.10300000000000001
1747252760374836536,-0.096
1747252760382524565,-0.091,83,732
1747252760390212592,-0.093
1747252760397900619,-0.115
1747252760405588646,-0.17200000000000001
1747252760413276673,-0.26
1747252760420964700,-0.199
1747252760428652727,0.312
1747252760436340754,1.193
1747252760444028781,1.873
1747252760451716808,1.56
1747252760459404835,0.216
1747252760467092862,-0.635
1747252760474780889,-0.324
1747252760482468916,-0.091
1747252760490156943,-0.278
1747252760497844970,-0.263
1747252760505532997,-0.155
1747252760513221024,-0.187
1747252760520909051,-0.192
1747252760528597078,-0.137
1747252760536285105,-0.12
1747252760543973132,-0.115
1747252760551661159,-0.088
1747252760559349186,-0.068
1747252760567037213,-0.054
1747252760574725240,-0.034
1747252760582413267,-0.017
1747252760590101294,0.0
1747252760597789321,0.029
1747252760605477348,0.056
1747252760613165375,0.083
1747252760620853402,0.115
1747252760628541429,0.145
1747252760636229456,0.169
1747252760643917483,0.184
1747252760651605510,0.187
1747252760659293537,0.182
1747252760666981564,0.17200000000000001
1747252760674669591,0.152
1747252760682357618,0.125
1747252760690045645,0.081
1747252760697733672,0.017
1747252760705421699,-0.054
1747252760713109726,-0.123
1747252760720797753,-0.182
1747252760728485780,-0.219
1747252760736173807,-0.233
1747252760743861834,-0.243
1747252760751549861,-0.246
1747252760759237888,-0.233
1747252760766925915,-0.221
1747252760774613942,-0.211
1747252760782301969,-0.201
1747252760789989996,-0.189
1747252760797678023,-0.177
1747252760805366050,-0.17200000000000001
1747252760813054077,-0.167
1747252760820742104,-0.157
1747252760828430131,-0.152
1747252760836118158,-0.15
1747252760843806185,-0.14200000000000002
1747252760851494212,-0.14
1747252760859182239,-0.14200000000000002
1747252760866870266,-0.14200000000000002
1747252760874558293,-0.14
1747252760882246320,-0.137
1747252760889934347,-0.14
1747252760897622374,-0.135
1747252760905310401,-0.13
1747252760912998428,-0.128
1747252760920686455,-0.125
1747252760928374482,-0.125
1747252760936062509,-0.123
1747252760943750589,-0.11800000000000001,83,708
1747252760951438477,-0.115,,710
1747252760959126365,-0.115
1747252760966814253,-0.113
1747252760974502141,-0.11
1747252760982190029,-0.108
1747252760989877917,-0.108
1747252760997565805,-0.115
1747252761005253693,-0.125
1747252761012941581,-0.123
1747252761020629469,-0.105
1747252761028317357,-0.093
1747252761036005245,-0.088
1747252761043693133,-0.078
1747252761051381021,-0.061
1747252761059068909,-0.061
1747252761066756797,-0.088
1747252761074444685,-0.11
1747252761082132573,-0.10300000000000001
1747252761089820461,-0.096
1747252761097508349,-0.096
1747252761105196237,-0.091
1747252761112884125,-0.08600000000000001
1747252761120572013,-0.08600000000000001
1747252761128259901,-0.096
1747252761135947789,-0.14
1747252761143635677,-0.233
1747252761151323565,-0.243
1747252761159011453,0.135
1747252761166699341,0.9500000000000001
1747252761174387229,1.745
1747252761182075117,1.7550000000000001
1747252761189763005,0.593
1747252761197450893,-0.531
1747252761205138781,-0.44
1747252761212826669,-0.08600000000000001
1747252761220514557,-0.221
1747252761228202445,-0.275
1747252761235890333,-0.162
1747252761243578221,-0.17200000000000001
1747252761251266109,-0.192
1747252761258953997,-0.137
1747252761266641885,-0.115
1747252761274329773,-0.115
1747252761282017661,-0.088
1747252761289705549,-0.066
1747252761297393437,-0.056
1747252761305081325,-0.036000000000000004
1747252761312769213,-0.012
1747252761320457101,0.007
1747252761328144989,0.029
1747252761335832877,0.056
1747252761343520765,0.083
1747252761351208653,0.11
1747252761358896541,0.14
1747252761366584429,0.167
1747252761374272317,0.187
1747252761381960205,0.199
1747252761389648093,0.194
1747252761397335981,0.182
1747252761405023869,0.167
1747252761412711757,0.145
1747252761420399645,0.1
1747252761428087533,0.039
1747252761435775421,-0.034
1747252761443463309,-0.105
1747252761451151197,-0.16
1747252761458839085,-0.201
1747252761466526973,-0.228
1747252761474214861,-0.23800000000000002
1747252761481902749,-0.241
1747252761489590637,-0.23800000000000002
1747252761497278525,-0.224
1747252761504966435,-0.211
1747252761512654392,-0.201
1747252761520342349,-0.192
1747252761528030306,-0.179
1747252761535718263,-0.169
1747252761543406220,-0.164
1747252761551094177,-0.157
1747252761558782134,-0.152
1747252761566470091,-0.15
1747252761574158048,-0.147
1747252761581846005,-0.145
1747252761589533962,-0.14200000000000002
1747252761597221919,-0.14
1747252761604909876,-0.137
1747252761612597833,-0.137
1747252761620285790,-0.135
1747252761627973747,-0.132
1747252761635661704,-0.13
1747252761643349661,-0.13
1747252761651037618,-0.13
1747252761658725575,-0.125
1747252761666413532,-0.12
1747252761674101489,-0.11800000000000001
1747252761681789446,-0.115
1747252761689477403,-0.115
1747252761697165360,-0.113
1747252761704853317,-0.11
1747252761712541274,-0.11
1747252761720229231,-0.108
1747252761727917188,-0.105
1747252761735605145,-0.108
1747252761743293102,-0.11800000000000001
1747252761750981059,-0.123
1747252761758669016,-0.108
1747252761766356973,-0.093
1747252761774044930,-0.08600000000000001
1747252761781732887,-0.081
1747252761789420844,-0.068
1747252761797108801,-0.056
1747252761804796758,-0.066
1747252761812484715,-0.096
1747252761820172672,-0.105
1747252761827860629,-0.096
1747252761835548586,-0.091
1747252761843236543,-0.091
1747252761850924500,-0.08600000000000001
1747252761858612457,-0.081
1747252761866300414,-0.088
1747252761873988371,-0.11800000000000001
1747252761881676328,-0.182
1747252761889364285,-0.253
1747252761897052242,-0.108
1747252761904740199,0.504
1747252761912428156,1.383
1747252761920116113,1.893
1747252761927804070,1.289
1747252761935492027,-0.081
1747252761943179984,-0.608
1747252761950867941,-0.201
1747252761958555898,-0.113
1747252761966243855,-0.28
1747252761973931812,-0.211
1747252761981619769,-0.14200000000000002
1747252761989307726,-0.182
1747252761996995683,-0.157
1747252762004683640,-0.113
1747252762012371597,-0.113
1747252762020059554,-0.1
1747252762027747511,-0.07100000000000001
1747252762035435468,-0.056
1747252762043123425,-0.039
1747252762050811382,-0.014
1747252762058499339,0.002
1747252762066187368,0.022,83,723
1747252762073875186,0.051000000000000004
1747252762081563004,0.081
1747252762089250822,0.105
1747252762096938640,0.135
1747252762104626458,0.17200000000000001
1747252762112314276,0.194
1747252762120002094,0.199
1747252762127689912,0.201
1747252762135377730,0.199
1747252762143065548,0.184
1747252762150753366,0.167
1747252762158441184,0.135
1747252762166129002,0.081
1747252762173816820,0.017
1747252762181504638,-0.051000000000000004
1747252762189192456,-0.11800000000000001
1747252762196880274,-0.164
1747252762204568092,-0.20400000000000001
1747252762212255910,-0.231
1747252762219943728,-0.233
1747252762227631546,-0.228
1747252762235319364,-0.226
1747252762243007182,-0.209
1747252762250695000,-0.189
1747252762258382818,-0.179
1747252762266070636,-0.17400000000000002
1747252762273758454,-0.164
1747252762281446272,-0.155
1747252762289134090,-0.14200000000000002
1747252762296821908,-0.137
1747252762304509726,-0.14200000000000002
1747252762312197544,-0.137
1747252762319885362,-0.128
1747252762327573180,-0.128
1747252762335260998,-0.135
1747252762342948816,-0.12
1747252762350636634,-0.108
1747252762358324452,-0.11800000000000001
1747252762366012270,-0.123
1747252762373700088,-0.12
1747252762381387906,-0.12
1747252762389075724,-0.115
1747252762396763542,-0.11
1747252762404451360,-0.115
1747252762412139178,-0.113
1747252762419826996,-0.108
1747252762427514814,-0.1
1747252762435202632,-0.096
1747252762442890450,-0.098
1747252762450578268,-0.096
1747252762458266086,-0.088
1747252762465953904,-0.098
1747252762473641722,-0.105
1747252762481329540,-0.098
1747252762489017358,-0.1
1747252762496705176,-0.098
1747252762504392994,-0.078
1747252762512080812,-0.066
1747252762519768630,-0.066
1747252762527456448,-0.056
1747252762535144266,-0.051000000000000004
1747252762542832084,-0.068
1747252762550519902,-0.088
1747252762558207720,-0.091
1747252762565895538,-0.08600000000000001
1747252762573583356,-0.078
1747252762581271174,-0.076
1747252762588958992,-0.076
1747252762596646810,-0.068
1747252762604334628,-0.078
1747252762612022446,-0.115
1747252762619710264,-0.196
1747252762627398131,-0.248
1747252762635086158,0.019
1747252762642774185,0.777
1747252762650462212,1.659
1747252762658150239,1.9020000000000001
1747252762665838266,0.918
1747252762673526293,-0.398
1747252762681214320,-0.529
1747252762688902347,-0.091
1747252762696590374,-0.167
1747252762704278401,-0.28500000000000003
1747252762711966428,-0.162
1747252762719654455,-0.132
1747252762727342482,-0.167
1747252762735030509,-0.13
1747252762742718536,-0.1
1747252762750406563,-0.1
1747252762758094590,-0.07100000000000001
1747252762765782617,-0.044
1747252762773470644,-0.039
1747252762781158671,-0.019
1747252762788846698,0.012
1747252762796534725,0.036000000000000004
1747252762804222752,0.059000000000000004
1747252762811910779,0.078
1747252762819598806,0.108
1747252762827286833,0.155
1747252762834974860,0.184
1747252762842662887,0.196
1747252762850350914,0.224
1747252762858038941,0.253
1747252762865726968,0.248
1747252762873414995,0.228
1747252762881103022,0.211
1747252762888791049,0.196
1747252762896479076,0.164
1747252762904167103,0.098
1747252762911855130,0.004
1747252762919543157,-0.078
1747252762927231184,-0.145
1747252762934919211,-0.192
1747252762942607238,-0.219
1747252762950295265,-0.233
1747252762957983292,-0.233
1747252762965671319,-0.226
1747252762973359346,-0.224
1747252762981047373,-0.219
1747252762988735400,-0.201
1747252762996423427,-0.187
1747252763004111454,-0.184
1747252763011799481,-0.169
1747252763019487508,-0.145
1747252763027175535,-0.14200000000000002
1747252763034863562,-0.147
1747252763042551589,-0.13
1747252763050239616,-0.115
1747252763057927643,-0.123
1747252763065615670,-0.12
1747252763073303697,-0.108
1747252763080991724,-0.115
1747252763088679751,-0.115
1747252763096367778,-0.108
1747252763104055805,-0.11800000000000001
1747252763111743832,-0.125
1747252763119431859,-0.115
1747252763127119886,-0.105
1747252763134807913,-0.108
1747252763142495940,-0.113
1747252763150183967,-0.108
1747252763157871994,-0.1
1747252763165560021,-0.10300000000000001
1747252763173248048,-0.11
1747252763180936075,-0.113
1747252763188624151,-0.108,83,732
1747252763196312178,-0.11
1747252763204000205,-0.11
1747252763211688232,-0.096
1747252763219376259,-0.08600000000000001
1747252763227064286,-0.076
1747252763234752313,-0.064
1747252763242440340,-0.064
1747252763250128367,-0.08600000000000001
1747252763257816394,-0.10300000000000001
1747252763265504421,-0.1
1747252763273192448,-0.1
1747252763280880475,-0.105
1747252763288568502,-0.1
1747252763296256529,-0.091
1747252763303944556,-0.083
1747252763311632583,-0.096
1747252763319320610,-0.128
1747252763327008637,-0.199
1747252763334696664,-0.268
1747252763342384691,-0.064
1747252763350072718,0.647
1747252763357760745,1.5310000000000001
1747252763365448772,1.8880000000000001
1747252763373136799,1.105
1747252763380824826,-0.246
1747252763388512853,-0.608
1747252763396200880,-0.182
1747252763403888907,-0.16
1747252763411576934,-0.28800000000000003
1747252763419264961,-0.189
1747252763426952988,-0.155
1747252763434641015,-0.192
1747252763442329042,-0.155
1747252763450017069,-0.123
1747252763457705096,-0.123
1747252763465393123,-0.098
1747252763473081150,-0.068
1747252763480769177,-0.056
1747252763488457204,-0.044
1747252763496145231,-0.022
1747252763503833258,0.0
1747252763511521285,0.017
1747252763519209312,0.044
1747252763526897339,0.078
1747252763534585366,0.108
1747252763542273393,0.13
1747252763549961420,0.157
1747252763557649447,0.184
1747252763565337474,0.194
1747252763573025501,0.187
1747252763580713528,0.177
1747252763588401555,0.162
1747252763596089582,0.137
1747252763603777609,0.105
1747252763611465636,0.049
1747252763619153663,-0.029
1747252763626841690,-0.105
1747252763634529717,-0.162
1747252763642217744,-0.20600000000000002
1747252763649905771,-0.241
1747252763657593798,-0.256
1747252763665281825,-0.251
1747252763672969852,-0.243
1747252763680657879,-0.23800000000000002
1747252763688345906,-0.231
1747252763696033933,-0.216
1747252763703721960,-0.20600000000000002
1747252763711409987,-0.201
1747252763719098014,-0.189
1747252763726786041,-0.17400000000000002
1747252763734474068,-0.167
1747252763742162095,-0.16
1747252763749850171,-0.155
1747252763757537780,-0.145
1747252763765225389,-0.14
1747252763772912998,-0.147
1747252763780600607,-0.14200000000000002
1747252763788288216,-0.135
1747252763795975825,-0.137
1747252763803663434,-0.137
1747252763811351043,-0.135
1747252763819038652,-0.137
1747252763826726261,-0.137
1747252763834413870,-0.132
1747252763842101479,-0.132
1747252763849789088,-0.13
1747252763857476697,-0.13
1747252763865164306,-0.132
1747252763872851915,-0.128
1747252763880539524,-0.123
1747252763888227133,-0.123
1747252763895914742,-0.125
1747252763903602351,-0.125
1747252763911289960,-0.13
1747252763918977569,-0.135
1747252763926665178,-0.132
1747252763934352787,-0.11800000000000001
1747252763942040396,-0.10300000000000001
1747252763949728005,-0.1
1747252763957415614,-0.093
1747252763965103223,-0.078
1747252763972790832,-0.083
1747252763980478441,-0.108
1747252763988166050,-0.123
1747252763995853659,-0.113
1747252764003541268,-0.108
1747252764011228877,-0.11
1747252764018916486,-0.10300000000000001
1747252764026604095,-0.093
1747252764034291704,-0.10300000000000001
1747252764041979313,-0.13
1747252764049666922,-0.187
1747252764057354531,-0.268
1747252764065042140,-0.164
1747252764072729749,0.41100000000000003
1747252764080417358,1.312
1747252764088104967,1.927
1747252764095792576,1.484
1747252764103480185,0.088
1747252764111167794,-0.657
1747252764118855403,-0.28800000000000003
1747252764126543012,-0.10300000000000001
1747252764134230621,-0.297
1747252764141918230,-0.263
1747252764149605839,-0.164
1747252764157293448,-0.20400000000000001
1747252764164981057,-0.194
1747252764172668666,-0.14
1747252764180356275,-0.135
1747252764188043884,-0.13
1747252764195731493,-0.096
1747252764203419102,-0.073
1747252764211106711,-0.066
1747252764218794320,-0.049
1747252764226481929,-0.019
1747252764234169538,0.0
1747252764241857147,0.022
1747252764249544756,0.051000000000000004
1747252764257232365,0.083
1747252764264919974,0.115
1747252764272607583,0.145
1747252764280295192,0.169
1747252764287982801,0.187
1747252764295670410,0.189
1747252764303358019,0.182
1747252764311045673,0.17200000000000001,83,742
1747252764318733700,0.157,,735
1747252764326421727,0.128
1747252764334109754,0.078
1747252764341797781,0.004
1747252764349485808,-0.073
1747252764357173835,-0.14
1747252764364861862,-0.194
1747252764372549889,-0.231
1747252764380237916,-0.248
1747252764387925943,-0.253
1747252764395613970,-0.253
1747252764403301997,-0.248
1747252764410990024,-0.23600000000000002
1747252764418678051,-0.221
1747252764426366078,-0.211
1747252764434054105,-0.199
1747252764441742132,-0.192
1747252764449430159,-0.182
1747252764457118186,-0.17200000000000001
1747252764464806213,-0.167
1747252764472494240,-0.164
1747252764480182267,-0.157
1747252764487870294,-0.152
1747252764495558321,-0.15
1747252764503246348,-0.147
1747252764510934375,-0.147
1747252764518622402,-0.147
1747252764526310429,-0.14200000000000002
1747252764533998456,-0.145
1747252764541686483,-0.145
1747252764549374510,-0.14
1747252764557062537,-0.135
1747252764564750564,-0.135
1747252764572438591,-0.132
1747252764580126618,-0.13
1747252764587814645,-0.125
1747252764595502672,-0.123
1747252764603190699,-0.123
1747252764610878726,-0.12
1747252764618566753,-0.11800000000000001
1747252764626254780,-0.115
1747252764633942807,-0.12
1747252764641630834,-0.128
1747252764649318861,-0.13
1747252764657006888,-0.12
1747252764664694915,-0.105
1747252764672382942,-0.096
1747252764680070969,-0.088
1747252764687758996,-0.078
1747252764695447023,-0.068
1747252764703135050,-0.083
1747252764710823077,-0.108
1747252764718511104,-0.113
1747252764726199131,-0.1
1747252764733887158,-0.10300000000000001
1747252764741575185,-0.10300000000000001
1747252764749263212,-0.096
1747252764756951239,-0.093
1747252764764639266,-0.10300000000000001
1747252764772327293,-0.125
1747252764780015320,-0.201
1747252764787703347,-0.273
1747252764795391374,-0.046
1747252764803079401,0.662
1747252764810767428,1.541
1747252764818455455,1.907
1747252764826143482,1.093
1747252764833831509,-0.275
1747252764841519536,-0.595
1747252764849207563,-0.152
1747252764856895590,-0.152
1747252764864583617,-0.305
1747252764872271693,-0.20600000000000002
1747252764879959720,-0.157
1747252764887647747,-0.199
1747252764895335774,-0.167
1747252764903023801,-0.12
1747252764910711828,-0.12
1747252764918399855,-0.113
1747252764926087882,-0.08600000000000001
1747252764933775909,-0.068
1747252764941463936,-0.054
1747252764949151963,-0.029
1747252764956839990,-0.004
1747252764964528017,0.014
1747252764972216044,0.041
1747252764979904071,0.068
1747252764987592098,0.098
1747252764995280125,0.132
1747252765002968152,0.164
1747252765010656179,0.189
1747252765018344206,0.20400000000000001
1747252765026032233,0.20600000000000002
1747252765033720260,0.196
1747252765041408287,0.179
1747252765049096314,0.16
1747252765056784341,0.128
1747252765064472368,0.068
1747252765072160395,-0.009000000000000001
1747252765079848422,-0.088
1747252765087536449,-0.15
1747252765095224476,-0.199
1747252765102912503,-0.233
1747252765110600530,-0.251
1747252765118288557,-0.251
1747252765125976584,-0.246
1747252765133664611,-0.233
1747252765141352638,-0.221
1747252765149040665,-0.211
1747252765156728692,-0.201
1747252765164416719,-0.192
1747252765172104746,-0.182
1747252765179792773,-0.17400000000000002
1747252765187480800,-0.167
1747252765195168827,-0.16
1747252765202856854,-0.152
1747252765210544881,-0.152
1747252765218232908,-0.15
1747252765225920935,-0.145
1747252765233608962,-0.145
1747252765241296989,-0.145
1747252765248985016,-0.14
1747252765256673043,-0.135
1747252765264361070,-0.137
1747252765272049097,-0.135
1747252765279737124,-0.13
1747252765287425151,-0.13
1747252765295113178,-0.128
1747252765302801205,-0.123
1747252765310489232,-0.125
1747252765318177259,-0.123
1747252765325865286,-0.115
1747252765333553313,-0.115
1747252765341241340,-0.113
1747252765348929367,-0.108
1747252765356617394,-0.11
1747252765364305421,-0.108
1747252765371993448,-0.10300000000000001
1747252765379681475,-0.10300000000000001
1747252765387369502,-0.113
1747252765395057529,-0.12
1747252765402745556,-0.115
1747252765410433583,-0.10300000000000001
1747252765418121610,-0.091
1747252765425809637,-0.083
1747252765433497713,-0.078,83,708
1747252765441185740,-0.064
1747252765448873767,-0.059000000000000004
1747252765456561794,-0.081
1747252765464249821,-0.105
1747252765471937848,-0.10300000000000001
1747252765479625875,-0.093
1747252765487313902,-0.091
1747252765495001929,-0.088
1747252765502689956,-0.08600000000000001
1747252765510377983,-0.08600000000000001
1747252765518066010,-0.093
1747252765525754037,-0.128
1747252765533442064,-0.211
1747252765541130091,-0.243
1747252765548818118,0.07100000000000001
1747252765556506145,0.839
1747252765564194172,1.673
1747252765571882199,1.834
1747252765579570226,0.8
1747252765587258253,-0.438
1747252765594946280,-0.497
1747252765602634307,-0.098
1747252765610322334,-0.194
1747252765618010361,-0.28800000000000003
1747252765625698388,-0.17200000000000001
1747252765633386415,-0.162
1747252765641074442,-0.194
1747252765648762469,-0.145
1747252765656450496,-0.11
1747252765664138523,-0.115
1747252765671826550,-0.096
1747252765679514577,-0.068
1747252765687202604,-0.056
1747252765694890631,-0.039
1747252765702578658,-0.017
1747252765710266685,0.002
1747252765717954712,0.024
1747252765725642739,0.054
1747252765733330766,0.081
1747252765741018793,0.11
1747252765748706820,0.14200000000000002
1747252765756394847,0.17200000000000001
1747252765764082874,0.192
1747252765771770901,0.20400000000000001
1747252765779458928,0.20600000000000002
1747252765787146955,0.201
1747252765794834982,0.187
1747252765802523009,0.162
1747252765810211036,0.128
1747252765817899063,0.07100000000000001
1747252765825587090,-0.007
1747252765833275117,-0.083
1747252765840963144,-0.14200000000000002
1747252765848651171,-0.189
1747252765856339198,-0.221
1747252765864027225,-0.231
1747252765871715252,-0.231
1747252765879403279,-0.231
1747252765887091306,-0.226
1747252765894779333,-0.211
1747252765902467360,-0.199
1747252765910155387,-0.189
1747252765917843414,-0.179
1747252765925531441,-0.162
1747252765933219468,-0.155
1747252765940907495,-0.15
1747252765948595522,-0.14200000000000002
1747252765956283549,-0.137
1747252765963971576,-0.14
1747252765971659603,-0.137
1747252765979347630,-0.135
1747252765987035657,-0.137
1747252765994723733,-0.125,83,725
1747252766002411412,-0.11800000000000001
1747252766010099091,-0.128
1747252766017786770,-0.125
1747252766025474449,-0.11800000000000001
1747252766033162128,-0.11800000000000001
1747252766040849807,-0.113
1747252766048537486,-0.108
1747252766056225165,-0.113
1747252766063912844,-0.115
1747252766071600523,-0.108
1747252766079288202,-0.098
1747252766086975881,-0.098
1747252766094663560,-0.1
1747252766102351239,-0.098
1747252766110038918,-0.093
1747252766117726597,-0.091
1747252766125414276,-0.091
1747252766133101955,-0.081
1747252766140789634,-0.081
1747252766148477313,-0.105
1747252766156164992,-0.115
1747252766163852671,-0.091
1747252766171540350,-0.064
1747252766179228029,-0.061
1747252766186915708,-0.064
1747252766194603387,-0.049
1747252766202291066,-0.041
1747252766209978745,-0.064
1747252766217666424,-0.083
1747252766225354103,-0.081
1747252766233041782,-0.073
1747252766240729461,-0.081
1747252766248417140,-0.078
1747252766256104819,-0.066
1747252766263792498,-0.068
1747252766271480177,-0.081
1747252766279167856,-0.105
1747252766286855535,-0.192
1747252766294543214,-0.246
1747252766302230893,0.041
1747252766309918572,0.807
1747252766317606251,1.673
1747252766325293930,1.895
1747252766332981609,0.905
1747252766340669288,-0.388
1747252766348356967,-0.507
1747252766356044646,-0.083
1747252766363732325,-0.164
1747252766371420004,-0.273
1747252766379107683,-0.152
1747252766386795362,-0.137
1747252766394483041,-0.17400000000000002
1747252766402170720,-0.125
1747252766409858399,-0.093
1747252766417546078,-0.096
1747252766425233757,-0.073
1747252766432921436,-0.054
1747252766440609115,-0.039
1747252766448296794,-0.012
1747252766455984473,0.009000000000000001
1747252766463672152,0.024
1747252766471359831,0.051000000000000004
1747252766479047510,0.083
1747252766486735189,0.108
1747252766494422868,0.132
1747252766502110547,0.162
1747252766509798226,0.20600000000000002
1747252766517485905,0.23600000000000002
1747252766525173584,0.23600000000000002
1747252766532861263,0.23600000000000002
1747252766540548942,0.233
1747252766548236621,0.211
1747252766555924318,0.189
1747252766563612276,0.16
1747252766571300234,0.096
1747252766578988192,0.009000000000000001
1747252766586676150,-0.064
1747252766594364108,-0.125
1747252766602052066,-0.179
1747252766609740024,-0.221
1747252766617427982,-0.23800000000000002
1747252766625115940,-0.23600000000000002
1747252766632803898,-0.226
1747252766640491856,-0.216
1747252766648179814,-0.209
1747252766655867772,-0.201
1747252766663555730,-0.187
1747252766671243688,-0.17400000000000002
1747252766678931646,-0.167
1747252766686619604,-0.157
1747252766694307562,-0.145
1747252766701995520,-0.135
1747252766709683478,-0.132
1747252766717371436,-0.135
1747252766725059394,-0.135
1747252766732747352,-0.125
1747252766740435310,-0.115
1747252766748123268,-0.115
1747252766755811226,-0.11800000000000001
1747252766763499184,-0.113
1747252766771187142,-0.115
1747252766778875100,-0.12
1747252766786563058,-0.11800000000000001
1747252766794251016,-0.11800000000000001
1747252766801938974,-0.12
1747252766809626932,-0.113
1747252766817314890,-0.1
1747252766825002848,-0.098
1747252766832690806,-0.11
1747252766840378764,-0.113
1747252766848066722,-0.1
1747252766855754680,-0.098
1747252766863442638,-0.105
1747252766871130596,-0.113
1747252766878818554,-0.11
1747252766886506512,-0.096
1747252766894194470,-0.076
1747252766901882428,-0.076
1747252766909570386,-0.076
1747252766917258344,-0.064
1747252766924946302,-0.066
1747252766932634260,-0.091
1747252766940322218,-0.113
1747252766948010176,-0.1
1747252766955698134,-0.083
1747252766963386092,-0.096
1747252766971074050,-0.096
1747252766978762008,-0.081
1747252766986449966,-0.093
1747252766994137924,-0.115
1747252767001825882,-0.152
1747252767009513840,-0.243
1747252767017201798,-0.20400000000000001
1747252767024889756,0.315
1747252767032577714,1.208
1747252767040265672,1.87
1747252767047953630,1.582
1747252767055641588,0.275
1747252767063329546,-0.617
1747252767071017504,-0.342
1747252767078705462,-0.088
1747252767086393420,-0.256
1747252767094081378,-0.243
1747252767101769336,-0.152
1747252767109457294,-0.182
1747252767117145255,-0.177,83,729
1747252767124833212,-0.13,,752
1747252767132521169,-0.11800000000000001
1747252767140209126,-0.10300000000000001
1747252767147897083,-0.081
1747252767155585040,-0.068
1747252767163272997,-0.054
1747252767170960954,-0.032
1747252767178648911,0.0
1747252767186336868,0.024
1747252767194024825,0.044
1747252767201712782,0.07100000000000001
1747252767209400739,0.10300000000000001
1747252767217088696,0.132
1747252767224776653,0.162
1747252767232464610,0.187
1747252767240152567,0.201
1747252767247840524,0.20400000000000001
1747252767255528481,0.199
1747252767263216438,0.189
1747252767270904395,0.164
1747252767278592352,0.132
1747252767286280309,0.091
1747252767293968266,0.022
1747252767301656223,-0.061
1747252767309344180,-0.132
1747252767317032137,-0.187
1747252767324720094,-0.224
1747252767332408051,-0.246
1747252767340096008,-0.248
1747252767347783965,-0.243
1747252767355471922,-0.241
1747252767363159879,-0.23800000000000002
1747252767370847836,-0.226
1747252767378535793,-0.20600000000000002
1747252767386223750,-0.196
1747252767393911707,-0.192
1747252767401599664,-0.179
1747252767409287621,-0.169
1747252767416975578,-0.162
1747252767424663535,-0.155
1747252767432351492,-0.147
1747252767440039449,-0.15
1747252767447727406,-0.147
1747252767455415363,-0.135
1747252767463103320,-0.137
1747252767470791277,-0.137
1747252767478479234,-0.132
1747252767486167191,-0.135
1747252767493855148,-0.135
1747252767501543105,-0.125
1747252767509231062,-0.128
1747252767516919019,-0.13
1747252767524606976,-0.125
1747252767532294933,-0.128
1747252767539982890,-0.13
1747252767547670847,-0.128
1747252767555358804,-0.123
1747252767563046761,-0.12
1747252767570734718,-0.11800000000000001
1747252767578422675,-0.128
1747252767586110632,-0.137
1747252767593798589,-0.128
1747252767601486546,-0.11
1747252767609174503,-0.098
1747252767616862460,-0.091
1747252767624550417,-0.08600000000000001
1747252767632238374,-0.081
1747252767639926331,-0.081
1747252767647614288,-0.098
1747252767655302245,-0.115
1747252767662990202,-0.11800000000000001
1747252767670678159,-0.108
1747252767678366188,-0.10300000000000001
1747252767686053867,-0.096
1747252767693741546,-0.093
1747252767701429225,-0.098
1747252767709116904,-0.113
1747252767716804583,-0.17200000000000001
1747252767724492262,-0.27
1747252767732179941,-0.194
1747252767739867620,0.356
1747252767747555299,1.24
1747252767755242978,1.893
1747252767762930657,1.558
1747252767770618336,0.201
1747252767778306015,-0.649
1747252767785993694,-0.324
1747252767793681373,-0.091
1747252767801369052,-0.28300000000000003
1747252767809056731,-0.26
1747252767816744410,-0.152
1747252767824432089,-0.187
1747252767832119768,-0.189
1747252767839807447,-0.135
1747252767847495126,-0.125
1747252767855182805,-0.11800000000000001
1747252767862870484,-0.08600000000000001
1747252767870558163,-0.068
1747252767878245842,-0.061
1747252767885933521,-0.036000000000000004
1747252767893621200,-0.012
1747252767901308879,0.009000000000000001
1747252767908996558,0.034
1747252767916684237,0.054
1747252767924371916,0.081
1747252767932059595,0.115
1747252767939747274,0.14200000000000002
1747252767947434953,0.167
1747252767955122632,0.187
1747252767962810311,0.192
1747252767970497990,0.187
1747252767978185669,0.17200000000000001
1747252767985873348,0.152
1747252767993561027,0.123
1747252768001248706,0.076
1747252768008936385,0.009000000000000001
1747252768016624064,-0.068
1747252768024311743,-0.137
1747252768031999422,-0.189
1747252768039687101,-0.226
1747252768047374780,-0.243
1747252768055062459,-0.248
1747252768062750138,-0.248
1747252768070437817,-0.23800000000000002
1747252768078125496,-0.228
1747252768085813175,-0.219
1747252768093500854,-0.20400000000000001
1747252768101188533,-0.189
1747252768108876212,-0.179
1747252768116563891,-0.17400000000000002
1747252768124251570,-0.167
1747252768131939249,-0.157
1747252768139626928,-0.15
1747252768147314607,-0.15
1747252768155002286,-0.15
1747252768162689965,-0.14200000000000002
1747252768170377644,-0.14
1747252768178065323,-0.135
1747252768185753002,-0.13
1747252768193440681,-0.132
1747252768201128360,-0.137
1747252768208816039,-0.135
1747252768216503718,-0.125
1747252768224191397,-0.123
1747252768231879076,-0.125
1747252768239566777,-0.125,83,754
1747252768247254804,-0.123
1747252768254942831,-0.12
1747252768262630858,-0.11800000000000001
1747252768270318885,-0.123
1747252768278006912,-0.13
1747252768285694939,-0.13
1747252768293382966,-0.11800000000000001
1747252768301070993,-0.10300000000000001
1747252768308759020,-0.098
1747252768316447047,-0.1
1747252768324135074,-0.088
1747252768331823101,-0.07100000000000001
1747252768339511128,-0.081
1747252768347199155,-0.11
1747252768354887182,-0.12
1747252768362575209,-0.10300000000000001
1747252768370263236,-0.096
1747252768377951263,-0.1
1747252768385639290,-0.1
1747252768393327317,-0.096
1747252768401015344,-0.098
1747252768408703371,-0.13
1747252768416391398,-0.20600000000000002
1747252768424079425,-0.275
1747252768431767452,-0.066
1747252768439455479,0.627
1747252768447143506,1.5090000000000001
1747252768454831533,1.9120000000000001
1747252768462519560,1.147
1747252768470207587,-0.241
1747252768477895614,-0.617
1747252768485583641,-0.169
1747252768493271668,-0.14200000000000002
1747252768500959695,-0.305
1747252768508647722,-0.209
1747252768516335749,-0.152
1747252768524023776,-0.196
1747252768531711803,-0.164
1747252768539399830,-0.123
1747252768547087857,-0.12
1747252768554775884,-0.1
1747252768562463911,-0.073
1747252768570151938,-0.064
1747252768577839965,-0.046
1747252768585527992,-0.019
1747252768593216019,-0.002
1747252768600904046,0.014
1747252768608592073,0.044
1747252768616280100,0.073
1747252768623968127,0.10300000000000001
1747252768631656154,0.135
1747252768639344181,0.167
1747252768647032208,0.189
1747252768654720235,0.196
1747252768662408262,0.199
1747252768670096289,0.189
1747252768677784316,0.17400000000000002
1747252768685472343,0.152
1747252768693160370,0.115
1747252768700848397,0.059000000000000004
1747252768708536424,-0.017
1747252768716224451,-0.1
1747252768723912478,-0.167
1747252768731600505,-0.20600000000000002
1747252768739288532,-0.231
1747252768746976559,-0.248
1747252768754664586,-0.251
1747252768762352613,-0.241
1747252768770040640,-0.233
1747252768777728667,-0.221
1747252768785416694,-0.209
1747252768793104721,-0.199
1747252768800792797,-0.189
1747252768808480824,-0.177
1747252768816168851,-0.17200000000000001
1747252768823856878,-0.167
1747252768831544905,-0.157
1747252768839232932,-0.15
1747252768846920959,-0.15
1747252768854608986,-0.147
1747252768862297013,-0.14
1747252768869985040,-0.14200000000000002
1747252768877673067,-0.14200000000000002
1747252768885361094,-0.14
1747252768893049121,-0.137
1747252768900737148,-0.137
1747252768908425175,-0.132
1747252768916113202,-0.13
1747252768923801229,-0.128
1747252768931489256,-0.128
1747252768939177283,-0.128
1747252768946865310,-0.123
1747252768954553337,-0.12
1747252768962241364,-0.123
1747252768969929391,-0.13
