time,ecg,hr,rr,marker
1748283712785172165,-0.232,102,599
1748283712792858450,-0.276
1748283712800544735,-0.303
1748283712808231020,-0.318
1748283712815917305,-0.318
1748283712823603590,-0.308
1748283712831289875,-0.296
1748283712838976160,-0.281
1748283712846662445,-0.271
1748283712854348730,-0.261
1748283712862035015,-0.244
1748283712869721300,-0.227
1748283712877407585,-0.222
1748283712885093870,-0.217
1748283712892780155,-0.20700000000000002
1748283712900466440,-0.202
1748283712908152725,-0.197
1748283712915839010,-0.197
1748283712923525295,-0.195
1748283712931211580,-0.187
1748283712938897865,-0.19
1748283712946584150,-0.197
1748283712954270435,-0.197
1748283712961956720,-0.192
1748283712969643005,-0.182
1748283712977329290,-0.17
1748283712985015575,-0.16
1748283712992701860,-0.15
1748283713000388145,-0.128
1748283713008074430,-0.13
1748283713015760715,-0.17500000000000002
1748283713023447000,-0.202
1748283713031133285,-0.19
1748283713038819570,-0.177
1748283713046505855,-0.177
1748283713054192140,-0.17
1748283713061878425,-0.163
1748283713069564710,-0.16
1748283713077250995,-0.165
1748283713084937280,-0.19
1748283713092623565,-0.23700000000000002
1748283713100309850,-0.17
1748283713107996135,0.274
1748283713115682420,0.9550000000000001
1748283713123368705,1.37
1748283713131054990,1.116
1748283713138741275,0.083
1748283713146427560,-0.726
1748283713154113845,-0.429
1748283713161800130,-0.022
1748283713169486415,-0.145
1748283713177172700,-0.185
1748283713184858985,-0.069
1748283713192545270,-0.081
1748283713200231555,-0.101
1748283713207917840,-0.046
1748283713215604125,-0.022
1748283713223290410,-0.012
1748283713230976695,0.022
1748283713238662980,0.059000000000000004
1748283713246349265,0.083
1748283713254035550,0.113
1748283713261721835,0.153
1748283713269408120,0.195
1748283713277094405,0.232
1748283713284780690,0.266
1748283713292466975,0.301
1748283713300153260,0.321
1748283713307839545,0.328
1748283713315525830,0.326
1748283713323212115,0.316
1748283713330898400,0.298
1748283713338584685,0.274
1748283713346271026,0.229
1748283713353957172,0.163
1748283713361643318,0.069
1748283713369329464,-0.029
1748283713377015610,-0.13
1748283713384701756,-0.222
1748283713392387902,-0.28600000000000003
1748283713400074048,-0.328
1748283713407760194,-0.34800000000000003
1748283713415446340,-0.34800000000000003
1748283713423132486,-0.343
1748283713430818632,-0.338
1748283713438504778,-0.323
1748283713446190924,-0.306
1748283713453877070,-0.296
1748283713461563216,-0.28400000000000003
1748283713469249362,-0.266
1748283713476935508,-0.251
1748283713484621654,-0.244
1748283713492307800,-0.234
1748283713499993946,-0.227
1748283713507680092,-0.222
1748283713515366238,-0.219
1748283713523052384,-0.217
1748283713530738530,-0.217
1748283713538424676,-0.217
1748283713546110822,-0.212
1748283713553796968,-0.212
1748283713561483114,-0.217
1748283713569169260,-0.224
1748283713576855406,-0.227
1748283713584541552,-0.214
1748283713592227698,-0.19
1748283713599913844,-0.17200000000000001
1748283713607599990,-0.16
1748283713615286136,-0.14300000000000002
1748283713622972282,-0.138
1748283713630658428,-0.167
1748283713638344574,-0.202
1748283713646030720,-0.2
1748283713653716866,-0.187
1748283713661403012,-0.182
1748283713669089158,-0.177
1748283713676775304,-0.17
1748283713684461450,-0.165
1748283713692147596,-0.17
1748283713699833742,-0.18
1748283713707519888,-0.217
1748283713715206034,-0.23900000000000002
1748283713722892180,0.012
1748283713730578326,0.669
1748283713738264472,1.353
1748283713745950618,1.543
1748283713753636764,0.775
1748283713761322910,-0.47400000000000003
1748283713769009056,-0.7030000000000001
1748283713776695202,-0.133
1748283713784381348,-0.066
1748283713792067494,-0.234
1748283713799753640,-0.135
1748283713807439786,-0.081
1748283713815125932,-0.128
1748283713822812078,-0.091
1748283713830498224,-0.037
1748283713838184370,-0.029
1748283713845870516,-0.004
1748283713853556662,0.037
1748283713861242808,0.064
1748283713868928954,0.093
1748283713876615100,0.133
1748283713884301246,0.17200000000000001
1748283713891987392,0.214
1748283713899673538,0.256
1748283713907359717,0.296,101,600
1748283713915046142,0.323,,593
1748283713922732567,0.338
1748283713930418992,0.34
1748283713938105417,0.338
1748283713945791842,0.328
1748283713953478267,0.308
1748283713961164692,0.276
1748283713968851117,0.222
1748283713976537542,0.138
1748283713984223967,0.034
1748283713991910392,-0.076
1748283713999596817,-0.177
1748283714007283242,-0.254
1748283714014969667,-0.308
1748283714022656092,-0.343
1748283714030342517,-0.353
1748283714038028942,-0.35000000000000003
1748283714045715367,-0.343
1748283714053401792,-0.333
1748283714061088217,-0.318
1748283714068774642,-0.301
1748283714076461067,-0.28800000000000003
1748283714084147492,-0.276
1748283714091833917,-0.264
1748283714099520342,-0.251
1748283714107206767,-0.23900000000000002
1748283714114893192,-0.232
1748283714122579617,-0.227
1748283714130266042,-0.224
1748283714137952467,-0.222
1748283714145638892,-0.219
1748283714153325317,-0.214
1748283714161011742,-0.212
1748283714168698167,-0.212
1748283714176384592,-0.20700000000000002
1748283714184071017,-0.202
1748283714191757442,-0.20700000000000002
1748283714199443867,-0.214
1748283714207130292,-0.214
1748283714214816717,-0.202
1748283714222503142,-0.18
1748283714230189567,-0.158
1748283714237875992,-0.148
1748283714245562417,-0.13
1748283714253248842,-0.11800000000000001
1748283714260935267,-0.14300000000000002
1748283714268621692,-0.18
1748283714276308117,-0.185
1748283714283994542,-0.17200000000000001
1748283714291680967,-0.165
1748283714299367392,-0.16
1748283714307053817,-0.155
1748283714314740242,-0.15
1748283714322426667,-0.148
1748283714330113092,-0.153
1748283714337799517,-0.187
1748283714345485942,-0.23700000000000002
1748283714353172367,-0.093
1748283714360858792,0.47600000000000003
1748283714368545217,1.225
1748283714376231642,1.637
1748283714383918067,1.18
1748283714391604492,-0.108
1748283714399290917,-0.768
1748283714406977342,-0.274
1748283714414663767,0.004
1748283714422350192,-0.19
1748283714430036617,-0.163
1748283714437723042,-0.054
1748283714445409467,-0.093
1748283714453095892,-0.088
1748283714460782317,-0.027
1748283714468468748,-0.009000000000000001
1748283714476155033,0.004
1748283714483841318,0.046
1748283714491527603,0.076
1748283714499213888,0.101
1748283714506900173,0.14
1748283714514586458,0.182
1748283714522272743,0.219
1748283714529959028,0.261
1748283714537645313,0.301
1748283714545331598,0.333
1748283714553017883,0.355
1748283714560704168,0.368
1748283714568390453,0.365
1748283714576076738,0.355
1748283714583763023,0.34
1748283714591449308,0.311
1748283714599135593,0.264
1748283714606821878,0.19
1748283714614508163,0.088
1748283714622194448,-0.022
1748283714629880733,-0.13
1748283714637567018,-0.219
1748283714645253303,-0.28400000000000003
1748283714652939588,-0.321
1748283714660625873,-0.335
1748283714668312158,-0.338
1748283714675998443,-0.333
1748283714683684728,-0.326
1748283714691371013,-0.308
1748283714699057298,-0.293
1748283714706743583,-0.279
1748283714714429868,-0.269
1748283714722116153,-0.259
1748283714729802438,-0.244
1748283714737488723,-0.232
1748283714745175008,-0.224
1748283714752861293,-0.217
1748283714760547578,-0.214
1748283714768233863,-0.209
1748283714775920148,-0.20500000000000002
1748283714783606433,-0.20500000000000002
1748283714791292718,-0.20500000000000002
1748283714798979003,-0.2
1748283714806665288,-0.197
1748283714814351573,-0.195
1748283714822037858,-0.192
1748283714829724143,-0.19
1748283714837410428,-0.19
1748283714845096713,-0.192
1748283714852782998,-0.195
1748283714860469283,-0.187
1748283714868155568,-0.167
1748283714875841853,-0.145
1748283714883528138,-0.133
1748283714891214423,-0.123
1748283714898900708,-0.106
1748283714906586993,-0.113
1748283714914273278,-0.153
1748283714921959563,-0.17200000000000001
1748283714929645848,-0.163
1748283714937332133,-0.155
1748283714945018418,-0.15
1748283714952704703,-0.14300000000000002
1748283714960390988,-0.138
1748283714968077273,-0.138
1748283714975763558,-0.14
1748283714983449843,-0.16
1748283714991136128,-0.217
1748283714998822413,-0.2
1748283715006508698,0.185
1748283715014194983,0.926
1748283715021881268,1.57
1748283715029567613,1.563,101,604
1748283715037253550,0.493,,619
1748283715044939487,-0.664
1748283715052625424,-0.54
1748283715060311361,-0.009000000000000001
1748283715067997298,-0.108
1748283715075683235,-0.209
1748283715083369172,-0.076
1748283715091055109,-0.069
1748283715098741046,-0.106
1748283715106426983,-0.051000000000000004
1748283715114112920,-0.014
1748283715121798857,-0.012
1748283715129484794,0.022
1748283715137170731,0.061
1748283715144856668,0.083
1748283715152542605,0.11800000000000001
1748283715160228542,0.16
1748283715167914479,0.2
1748283715175600416,0.242
1748283715183286353,0.281
1748283715190972290,0.318
1748283715198658227,0.34800000000000003
1748283715206344164,0.365
1748283715214030101,0.368
1748283715221716038,0.36
1748283715229401975,0.34800000000000003
1748283715237087912,0.328
1748283715244773849,0.293
1748283715252459786,0.232
1748283715260145723,0.14
1748283715267831660,0.032
1748283715275517597,-0.079
1748283715283203534,-0.18
1748283715290889471,-0.259
1748283715298575408,-0.306
1748283715306261345,-0.333
1748283715313947282,-0.34
1748283715321633219,-0.34
1748283715329319156,-0.333
1748283715337005093,-0.321
1748283715344691030,-0.306
1748283715352376967,-0.291
1748283715360062904,-0.279
1748283715367748841,-0.264
1748283715375434778,-0.249
1748283715383120715,-0.242
1748283715390806652,-0.232
1748283715398492589,-0.222
1748283715406178526,-0.217
1748283715413864463,-0.214
1748283715421550400,-0.212
1748283715429236337,-0.209
1748283715436922274,-0.20700000000000002
1748283715444608211,-0.20500000000000002
1748283715452294148,-0.20500000000000002
1748283715459980085,-0.20500000000000002
1748283715467666022,-0.202
1748283715475351959,-0.2
1748283715483037896,-0.197
1748283715490723833,-0.192
1748283715498409770,-0.19
1748283715506095707,-0.192
1748283715513781644,-0.197
1748283715521467581,-0.197
1748283715529153518,-0.185
1748283715536839455,-0.165
1748283715544525392,-0.148
1748283715552211329,-0.138
1748283715559897266,-0.123
1748283715567583203,-0.116
1748283715575269140,-0.138
1748283715582955077,-0.17200000000000001
1748283715590641043,-0.17200000000000001
1748283715598327259,-0.16
1748283715606013475,-0.155
1748283715613699691,-0.153
1748283715621385907,-0.148
1748283715629072123,-0.14300000000000002
1748283715636758339,-0.14300000000000002
1748283715644444555,-0.153
1748283715652130771,-0.19
1748283715659816987,-0.249
1748283715667503203,-0.116
1748283715675189419,0.464
1748283715682875635,1.239
1748283715690561851,1.686
1748283715698248067,1.227
1748283715705934283,-0.116
1748283715713620499,-0.8
1748283715721306715,-0.28400000000000003
1748283715728992931,0.0
1748283715736679147,-0.20500000000000002
1748283715744365363,-0.17200000000000001
1748283715752051579,-0.061
1748283715759737795,-0.10300000000000001
1748283715767424011,-0.101
1748283715775110227,-0.041
1748283715782796443,-0.024
1748283715790482659,-0.009000000000000001
1748283715798168875,0.029
1748283715805855091,0.061
1748283715813541307,0.088
1748283715821227523,0.125
1748283715828913739,0.165
1748283715836599955,0.202
1748283715844286171,0.246
1748283715851972387,0.291
1748283715859658603,0.326
1748283715867344819,0.35000000000000003
1748283715875031035,0.363
1748283715882717251,0.365
1748283715890403467,0.353
1748283715898089683,0.335
1748283715905775899,0.311
1748283715913462115,0.269
1748283715921148331,0.195
1748283715928834547,0.093
1748283715936520763,-0.014
1748283715944206979,-0.123
1748283715951893195,-0.219
1748283715959579411,-0.28800000000000003
1748283715967265627,-0.33
1748283715974951843,-0.353
1748283715982638059,-0.36
1748283715990324275,-0.358
1748283715998010491,-0.34500000000000003
1748283716005696707,-0.333
1748283716013382923,-0.318
1748283716021069139,-0.303
1748283716028755355,-0.28800000000000003
1748283716036441571,-0.276
1748283716044127787,-0.261
1748283716051814003,-0.251
1748283716059500219,-0.242
1748283716067186435,-0.234
1748283716074872651,-0.227
1748283716082558867,-0.224
1748283716090245083,-0.222
1748283716097931299,-0.219
1748283716105617515,-0.214
1748283716113303731,-0.212
1748283716120989947,-0.212
1748283716128676163,-0.209
1748283716136362379,-0.20700000000000002
1748283716144048595,-0.20500000000000002
1748283716151734817,-0.20500000000000002,101,633
1748283716159421102,-0.202
1748283716167107387,-0.2
1748283716174793672,-0.195
1748283716182479957,-0.19
1748283716190166242,-0.195
1748283716197852527,-0.202
1748283716205538812,-0.2
1748283716213225097,-0.18
1748283716220911382,-0.158
1748283716228597667,-0.145
1748283716236283952,-0.133
1748283716243970237,-0.116
1748283716251656522,-0.113
1748283716259342807,-0.138
1748283716267029092,-0.17
1748283716274715377,-0.17
1748283716282401662,-0.153
1748283716290087947,-0.15
1748283716297774232,-0.153
1748283716305460517,-0.15
1748283716313146802,-0.14300000000000002
1748283716320833087,-0.14
1748283716328519372,-0.15
1748283716336205657,-0.195
1748283716343891942,-0.254
1748283716351578227,-0.098
1748283716359264512,0.498
1748283716366950797,1.2690000000000001
1748283716374637082,1.679
1748283716382323367,1.178
1748283716390009652,-0.148
1748283716397695937,-0.775
1748283716405382222,-0.256
1748283716413068507,0.0
1748283716420754792,-0.192
1748283716428441077,-0.148
1748283716436127362,-0.044
1748283716443813647,-0.088
1748283716451499932,-0.081
1748283716459186217,-0.019
1748283716466872502,-0.012
1748283716474558787,0.002
1748283716482245072,0.049
1748283716489931357,0.081
1748283716497617642,0.10300000000000001
1748283716505303927,0.14300000000000002
1748283716512990212,0.185
1748283716520676497,0.224
1748283716528362782,0.264
1748283716536049067,0.308
1748283716543735352,0.35000000000000003
1748283716551421637,0.377
1748283716559107922,0.387
1748283716566794207,0.39
1748283716574480492,0.385
1748283716582166777,0.37
1748283716589853062,0.34500000000000003
1748283716597539347,0.298
1748283716605225632,0.219
1748283716612911917,0.11800000000000001
1748283716620598202,0.004
1748283716628284487,-0.10300000000000001
1748283716635970772,-0.192
1748283716643657057,-0.261
1748283716651343342,-0.316
1748283716659029627,-0.335
1748283716666715912,-0.33
1748283716674402197,-0.333
1748283716682088482,-0.34
1748283716689774767,-0.323
1748283716697461052,-0.298
1748283716705147337,-0.28800000000000003
1748283716712833678,-0.28400000000000003
1748283716720519824,-0.266
1748283716728205970,-0.254
1748283716735892116,-0.23700000000000002
1748283716743578262,-0.222
1748283716751264408,-0.219
1748283716758950554,-0.217
1748283716766636700,-0.209
1748283716774322846,-0.202
1748283716782008992,-0.197
1748283716789695138,-0.197
1748283716797381284,-0.195
1748283716805067430,-0.187
1748283716812753576,-0.19
1748283716820439722,-0.19
1748283716828125868,-0.185
1748283716835812014,-0.185
1748283716843498160,-0.19
1748283716851184306,-0.187
1748283716858870452,-0.177
1748283716866556598,-0.18
1748283716874242744,-0.182
1748283716881928890,-0.17
1748283716889615036,-0.153
1748283716897301182,-0.14300000000000002
1748283716904987328,-0.138
1748283716912673474,-0.11800000000000001
1748283716920359620,-0.10300000000000001
1748283716928045766,-0.116
1748283716935731912,-0.148
1748283716943418058,-0.163
1748283716951104204,-0.15
1748283716958790350,-0.14
1748283716966476496,-0.145
1748283716974162642,-0.14
1748283716981848788,-0.13
1748283716989534934,-0.128
1748283716997221080,-0.133
1748283717004907226,-0.145
1748283717012593372,-0.19
1748283717020279518,-0.217
1748283717027965664,0.054
1748283717035651810,0.721
1748283717043337956,1.299
1748283717051024102,1.313
1748283717058710248,0.535
1748283717066396394,-0.498
1748283717074082540,-0.595
1748283717081768686,-0.096
1748283717089454832,-0.044
1748283717097140978,-0.14300000000000002
1748283717104827124,-0.054
1748283717112513270,-0.024
1748283717120199416,-0.059000000000000004
1748283717127885562,-0.024
1748283717135571708,0.014
1748283717143257854,0.024
1748283717150944000,0.046
1748283717158630146,0.081
1748283717166316292,0.108
1748283717174002438,0.14
1748283717181688584,0.182
1748283717189374730,0.219
1748283717197060876,0.254
1748283717204747022,0.296
1748283717212433168,0.34
1748283717220119314,0.375
1748283717227805460,0.392
1748283717235491606,0.395
1748283717243177752,0.387
1748283717250863898,0.375
1748283717258550044,0.353
1748283717266236190,0.316
1748283717273922369,0.256,98,649
1748283717281608376,0.17200000000000001,,665
1748283717289294383,0.064
1748283717296980390,-0.051000000000000004
1748283717304666397,-0.155
1748283717312352404,-0.23900000000000002
1748283717320038411,-0.298
1748283717327724418,-0.33
1748283717335410425,-0.343
1748283717343096432,-0.34800000000000003
1748283717350782439,-0.34500000000000003
1748283717358468446,-0.338
1748283717366154453,-0.326
1748283717373840460,-0.316
1748283717381526467,-0.301
1748283717389212474,-0.28400000000000003
1748283717396898481,-0.269
1748283717404584488,-0.256
1748283717412270495,-0.244
1748283717419956502,-0.23700000000000002
1748283717427642509,-0.229
1748283717435328516,-0.224
1748283717443014523,-0.219
1748283717450700530,-0.214
1748283717458386537,-0.209
1748283717466072544,-0.20500000000000002
1748283717473758551,-0.20500000000000002
1748283717481444558,-0.20500000000000002
1748283717489130565,-0.20500000000000002
1748283717496816572,-0.20700000000000002
1748283717504502579,-0.20500000000000002
1748283717512188586,-0.202
1748283717519874593,-0.2
1748283717527560600,-0.197
1748283717535246607,-0.2
1748283717542932614,-0.209
1748283717550618621,-0.209
1748283717558304628,-0.2
1748283717565990635,-0.18
1748283717573676642,-0.163
1748283717581362649,-0.153
1748283717589048656,-0.14
1748283717596734663,-0.125
1748283717604420670,-0.14
1748283717612106677,-0.17500000000000002
1748283717619792684,-0.19
1748283717627478691,-0.17500000000000002
1748283717635164698,-0.17
1748283717642850705,-0.167
1748283717650536712,-0.163
1748283717658222719,-0.155
1748283717665908726,-0.155
1748283717673594733,-0.163
1748283717681280740,-0.18
1748283717688966747,-0.234
1748283717696652754,-0.23900000000000002
1748283717704338761,0.093
1748283717712024768,0.805
1748283717719710775,1.425
1748283717727396782,1.457
1748283717735082789,0.553
1748283717742768796,-0.59
1748283717750454803,-0.622
1748283717758140810,-0.083
1748283717765826817,-0.091
1748283717773512824,-0.219
1748283717781198831,-0.113
1748283717788884838,-0.083
1748283717796570845,-0.121
1748283717804256852,-0.079
1748283717811942859,-0.037
1748283717819628866,-0.032
1748283717827314873,-0.004
1748283717835000882,0.032,97,684
1748283717842687167,0.061
1748283717850373452,0.091
1748283717858059737,0.13
1748283717865746022,0.167
1748283717873432307,0.20500000000000002
1748283717881118592,0.246
1748283717888804877,0.28600000000000003
1748283717896491162,0.318
1748283717904177447,0.343
1748283717911863732,0.35000000000000003
1748283717919550017,0.34500000000000003
1748283717927236302,0.333
1748283717934922587,0.311
1748283717942608872,0.279
1748283717950295157,0.222
1748283717957981442,0.128
1748283717965667727,0.019
1748283717973354012,-0.088
1748283717981040297,-0.195
1748283717988726582,-0.279
1748283717996412867,-0.333
1748283718004099152,-0.363
1748283718011785437,-0.377
1748283718019471722,-0.38
1748283718027158007,-0.372
1748283718034844292,-0.363
1748283718042530577,-0.353
1748283718050216862,-0.338
1748283718057903147,-0.326
1748283718065589432,-0.308
1748283718073275717,-0.293
1748283718080962002,-0.281
1748283718088648287,-0.271
1748283718096334572,-0.259
1748283718104020857,-0.251
1748283718111707142,-0.246
1748283718119393427,-0.242
1748283718127079712,-0.23700000000000002
1748283718134765997,-0.232
1748283718142452282,-0.232
1748283718150138567,-0.232
1748283718157824852,-0.232
1748283718165511137,-0.229
1748283718173197422,-0.227
1748283718180883707,-0.227
1748283718188569992,-0.224
1748283718196256277,-0.219
1748283718203942562,-0.214
1748283718211628847,-0.214
1748283718219315132,-0.212
1748283718227001417,-0.20500000000000002
1748283718234687702,-0.202
1748283718242373987,-0.20700000000000002
1748283718250060272,-0.209
1748283718257746557,-0.2
1748283718265432842,-0.18
1748283718273119127,-0.163
1748283718280805412,-0.155
1748283718288491697,-0.14300000000000002
1748283718296177982,-0.123
1748283718303864267,-0.128
1748283718311550552,-0.163
1748283718319236837,-0.187
1748283718326923122,-0.177
1748283718334609407,-0.167
1748283718342295692,-0.167
1748283718349981977,-0.163
1748283718357668262,-0.155
1748283718365354547,-0.15
1748283718373040832,-0.153
1748283718380727117,-0.165
1748283718388413402,-0.209
1748283718396099743,-0.261
1748283718403786028,-0.079
1748283718411472313,0.54
1748283718419158598,1.331
1748283718426844883,1.79
1748283718434531168,1.284
1748283718442217453,-0.138
1748283718449903738,-0.812
1748283718457590023,-0.269
1748283718465276308,-0.022
1748283718472962593,-0.234
1748283718480648878,-0.187
1748283718488335163,-0.083
1748283718496021448,-0.13
1748283718503707733,-0.11800000000000001
1748283718511394018,-0.059000000000000004
1748283718519080303,-0.049
1748283718526766588,-0.034
1748283718534452873,0.009000000000000001
1748283718542139158,0.039
1748283718549825443,0.066
1748283718557511728,0.106
1748283718565198013,0.145
1748283718572884298,0.187
1748283718580570583,0.23700000000000002
1748283718588256868,0.279
1748283718595943153,0.316
1748283718603629438,0.34500000000000003
1748283718611315723,0.365
1748283718619002008,0.37
1748283718626688293,0.363
1748283718634374578,0.34800000000000003
1748283718642060863,0.323
1748283718649747148,0.281
1748283718657433433,0.20700000000000002
1748283718665119718,0.101
1748283718672806003,-0.014
1748283718680492288,-0.128
1748283718688178573,-0.229
1748283718695864858,-0.308
1748283718703551143,-0.355
1748283718711237428,-0.375
1748283718718923713,-0.382
1748283718726609998,-0.382
1748283718734296283,-0.377
1748283718741982568,-0.365
1748283718749668853,-0.34800000000000003
1748283718757355138,-0.333
1748283718765041423,-0.321
1748283718772727708,-0.306
1748283718780413993,-0.291
1748283718788100278,-0.281
1748283718795786563,-0.271
1748283718803472848,-0.264
1748283718811159133,-0.254
1748283718818845418,-0.246
1748283718826531703,-0.242
1748283718834217988,-0.23700000000000002
1748283718841904273,-0.232
1748283718849590558,-0.227
1748283718857276843,-0.227
1748283718864963128,-0.229
1748283718872649413,-0.227
1748283718880335698,-0.219
1748283718888021983,-0.217
1748283718895708268,-0.217
1748283718903394553,-0.217
1748283718911080838,-0.209
1748283718918767123,-0.20500000000000002
1748283718926453408,-0.202
1748283718934139693,-0.2
1748283718941825978,-0.197
1748283718949512263,-0.197
1748283718957198608,-0.202,96,673
1748283718964884893,-0.197
1748283718972571178,-0.182
1748283718980257463,-0.158
1748283718987943748,-0.14
1748283718995630033,-0.133
1748283719003316318,-0.11800000000000001
1748283719011002603,-0.116
1748283719018688888,-0.14300000000000002
1748283719026375173,-0.17200000000000001
1748283719034061458,-0.167
1748283719041747743,-0.155
1748283719049434028,-0.155
1748283719057120313,-0.15
1748283719064806598,-0.14300000000000002
1748283719072492883,-0.14
1748283719080179168,-0.14
1748283719087865453,-0.15
1748283719095551738,-0.182
1748283719103238023,-0.246
1748283719110924308,-0.187
1748283719118610593,0.269
1748283719126296878,1.049
1748283719133983163,1.743
1748283719141669448,1.714
1748283719149355733,0.46900000000000003
1748283719157042018,-0.75
1748283719164728303,-0.526
1748283719172414588,-0.007
1748283719180100873,-0.163
1748283719187787158,-0.234
1748283719195473443,-0.093
1748283719203159728,-0.106
1748283719210846013,-0.135
1748283719218532298,-0.07100000000000001
1748283719226218583,-0.039
1748283719233904868,-0.034
1748283719241591153,0.002
1748283719249277438,0.039
1748283719256963723,0.064
1748283719264650008,0.098
1748283719272336293,0.14300000000000002
1748283719280022578,0.182
1748283719287708863,0.227
1748283719295395148,0.274
1748283719303081433,0.316
1748283719310767718,0.353
1748283719318454003,0.377
1748283719326140288,0.387
1748283719333826573,0.382
1748283719341512858,0.37
1748283719349199143,0.35000000000000003
1748283719356885428,0.318
1748283719364571713,0.259
1748283719372257998,0.163
1748283719379944283,0.046
1748283719387630568,-0.069
1748283719395316853,-0.18
1748283719403003138,-0.269
1748283719410689423,-0.323
1748283719418375708,-0.358
1748283719426061993,-0.372
1748283719433748278,-0.372
1748283719441434563,-0.368
1748283719449120848,-0.358
1748283719456807133,-0.34500000000000003
1748283719464493418,-0.333
1748283719472179703,-0.318
1748283719479865988,-0.303
1748283719487552273,-0.28600000000000003
1748283719495238558,-0.274
1748283719502924843,-0.266
1748283719510611128,-0.256
1748283719518297469,-0.244
1748283719525983545,-0.23700000000000002
1748283719533669621,-0.232
1748283719541355697,-0.229
1748283719549041773,-0.224
1748283719556727849,-0.222
1748283719564413925,-0.222
1748283719572100001,-0.219
1748283719579786077,-0.217
1748283719587472153,-0.212
1748283719595158229,-0.212
1748283719602844305,-0.212
1748283719610530381,-0.20700000000000002
1748283719618216457,-0.20500000000000002
1748283719625902533,-0.2
1748283719633588609,-0.195
1748283719641274685,-0.19
1748283719648960761,-0.187
1748283719656646837,-0.182
1748283719664332913,-0.182
1748283719672018989,-0.19
1748283719679705065,-0.192
1748283719687391141,-0.177
1748283719695077217,-0.155
1748283719702763293,-0.138
1748283719710449369,-0.13
1748283719718135445,-0.116
1748283719725821521,-0.098
1748283719733507597,-0.113
1748283719741193673,-0.155
1748283719748879749,-0.165
1748283719756565825,-0.148
1748283719764251901,-0.145
1748283719771937977,-0.145
1748283719779624053,-0.138
1748283719787310129,-0.133
1748283719794996205,-0.13
1748283719802682281,-0.13
1748283719810368357,-0.15
1748283719818054433,-0.202
1748283719825740509,-0.244
1748283719833426585,-0.029
1748283719841112661,0.617
1748283719848798737,1.41
1748283719856484813,1.837
1748283719864170889,1.227
1748283719871856965,-0.232
1748283719879543041,-0.785
1748283719887229117,-0.20500000000000002
1748283719894915193,-0.022
1748283719902601269,-0.234
1748283719910287345,-0.16
1748283719917973421,-0.07100000000000001
1748283719925659497,-0.123
1748283719933345573,-0.106
1748283719941031649,-0.046
1748283719948717725,-0.039
1748283719956403801,-0.022
1748283719964089877,0.022
1748283719971775953,0.054
1748283719979462029,0.079
1748283719987148105,0.116
1748283719994834181,0.158
1748283720002520257,0.2
1748283720010206333,0.246
1748283720017892409,0.291
1748283720025578485,0.33
1748283720033264561,0.36
1748283720040950637,0.377
1748283720048636713,0.382
1748283720056322789,0.372
1748283720064008865,0.358
1748283720071694941,0.335
1748283720079381073,0.293,93,677
1748283720087067149,0.217,,703
1748283720094753225,0.113
1748283720102439301,0.0
1748283720110125377,-0.116
1748283720117811453,-0.217
1748283720125497529,-0.293
1748283720133183605,-0.34
1748283720140869681,-0.368
1748283720148555757,-0.38
1748283720156241833,-0.375
1748283720163927909,-0.365
1748283720171613985,-0.355
1748283720179300061,-0.343
1748283720186986137,-0.33
1748283720194672213,-0.313
1748283720202358289,-0.298
1748283720210044365,-0.28400000000000003
1748283720217730441,-0.274
1748283720225416517,-0.261
1748283720233102593,-0.249
1748283720240788669,-0.242
1748283720248474745,-0.23700000000000002
1748283720256160821,-0.232
1748283720263846897,-0.227
1748283720271532973,-0.222
1748283720279219049,-0.219
1748283720286905125,-0.217
1748283720294591201,-0.217
1748283720302277277,-0.217
1748283720309963353,-0.214
1748283720317649429,-0.212
1748283720325335505,-0.20700000000000002
1748283720333021581,-0.202
1748283720340707657,-0.2
1748283720348393733,-0.197
1748283720356079809,-0.195
1748283720363765885,-0.187
1748283720371451961,-0.18
1748283720379138037,-0.177
1748283720386824113,-0.18
1748283720394510189,-0.187
1748283720402196265,-0.187
1748283720409882341,-0.167
1748283720417568417,-0.145
1748283720425254493,-0.133
1748283720432940569,-0.123
1748283720440626645,-0.106
1748283720448312721,-0.098
1748283720455998797,-0.123
1748283720463684873,-0.158
1748283720471370949,-0.163
1748283720479057025,-0.153
1748283720486743101,-0.148
1748283720494429177,-0.14300000000000002
1748283720502115253,-0.135
1748283720509801329,-0.133
1748283720517487405,-0.13
1748283720525173481,-0.135
1748283720532859557,-0.153
1748283720540545633,-0.2
1748283720548231709,-0.23900000000000002
1748283720555917785,-0.034
1748283720563603861,0.602
1748283720571289937,1.365
1748283720578976013,1.733
1748283720586662089,1.123
1748283720594348165,-0.249
1748283720602034241,-0.765
1748283720609720317,-0.2
1748283720617406393,-0.009000000000000001
1748283720625092469,-0.214
1748283720632778545,-0.15
1748283720640464673,-0.059000000000000004
1748283720648150958,-0.106
1748283720655837243,-0.088
1748283720663523528,-0.032
1748283720671209813,-0.029
1748283720678896098,-0.012
1748283720686582383,0.034
1748283720694268668,0.064
1748283720701954953,0.091
1748283720709641238,0.125
1748283720717327523,0.165
1748283720725013808,0.212
1748283720732700093,0.261
1748283720740386378,0.306
1748283720748072663,0.343
1748283720755758948,0.375
1748283720763445233,0.395
1748283720771131518,0.4
1748283720778817803,0.392
1748283720786504088,0.377
1748283720794190373,0.35000000000000003
1748283720801876658,0.306
1748283720809562943,0.232
1748283720817249228,0.13
1748283720824935513,0.009000000000000001
1748283720832621798,-0.111
1748283720840308083,-0.214
1748283720847994368,-0.28800000000000003
1748283720855680653,-0.333
1748283720863366938,-0.355
1748283720871053223,-0.365
1748283720878739508,-0.36
1748283720886425793,-0.358
1748283720894112078,-0.35000000000000003
1748283720901798363,-0.335
1748283720909484648,-0.316
1748283720917170933,-0.301
1748283720924857218,-0.296
1748283720932543503,-0.28400000000000003
1748283720940229788,-0.256
1748283720947916073,-0.244
1748283720955602358,-0.246
1748283720963288643,-0.23700000000000002
1748283720970974928,-0.222
1748283720978661213,-0.214
1748283720986347498,-0.217
1748283720994033783,-0.214
1748283721001720068,-0.20700000000000002
1748283721009406353,-0.20500000000000002
1748283721017092638,-0.209
1748283721024778923,-0.20500000000000002
1748283721032465208,-0.197
1748283721040151493,-0.197
1748283721047837778,-0.2
1748283721055524063,-0.197
1748283721063210348,-0.195
1748283721070896633,-0.187
1748283721078582918,-0.185
1748283721086269203,-0.18
1748283721093955488,-0.18
1748283721101641773,-0.185
1748283721109328058,-0.185
1748283721117014343,-0.17200000000000001
1748283721124700628,-0.16
1748283721132386913,-0.14300000000000002
1748283721140073198,-0.128
1748283721147759483,-0.116
1748283721155445768,-0.10300000000000001
1748283721163132053,-0.106
1748283721170818338,-0.138
1748283721178504623,-0.158
1748283721186190908,-0.145
1748283721193877193,-0.14300000000000002
1748283721201563534,-0.14300000000000002,92,710
1748283721209249819,-0.138
1748283721216936104,-0.135
1748283721224622389,-0.133
1748283721232308674,-0.128
1748283721239994959,-0.138
1748283721247681244,-0.16
1748283721255367529,-0.20500000000000002
1748283721263053814,-0.18
1748283721270740099,0.20700000000000002
1748283721278426384,0.926
1748283721286112669,1.462
1748283721293798954,1.336
1748283721301485239,0.343
1748283721309171524,-0.642
1748283721316857809,-0.503
1748283721324544094,-0.032
1748283721332230379,-0.098
1748283721339916664,-0.163
1748283721347602949,-0.054
1748283721355289234,-0.059000000000000004
1748283721362975519,-0.079
1748283721370661804,-0.027
1748283721378348089,-0.002
1748283721386034374,0.0
1748283721393720659,0.034
1748283721401406944,0.07100000000000001
1748283721409093229,0.093
1748283721416779514,0.13
1748283721424465799,0.17500000000000002
1748283721432152084,0.212
1748283721439838369,0.246
1748283721447524654,0.291
1748283721455210939,0.34
1748283721462897224,0.382
1748283721470583509,0.4
1748283721478269794,0.405
1748283721485956079,0.40700000000000003
1748283721493642364,0.395
1748283721501328649,0.372
1748283721509014934,0.34
1748283721516701219,0.279
1748283721524387504,0.18
1748283721532073789,0.066
1748283721539760074,-0.054
1748283721547446359,-0.165
1748283721555132644,-0.246
1748283721562818929,-0.306
1748283721570505214,-0.34800000000000003
1748283721578191499,-0.353
1748283721585877784,-0.34500000000000003
1748283721593564069,-0.34500000000000003
1748283721601250354,-0.343
1748283721608936639,-0.333
1748283721616622924,-0.323
1748283721624309209,-0.303
1748283721631995494,-0.28600000000000003
1748283721639681779,-0.271
1748283721647368064,-0.254
1748283721655054349,-0.242
1748283721662740634,-0.242
1748283721670426919,-0.23700000000000002
1748283721678113204,-0.232
1748283721685799489,-0.227
1748283721693485774,-0.212
1748283721701172059,-0.2
1748283721708858344,-0.202
1748283721716544629,-0.202
1748283721724230914,-0.192
1748283721731917199,-0.19
1748283721739603484,-0.192
1748283721747289769,-0.185
1748283721754976054,-0.19
1748283721762662395,-0.195,90,719
1748283721770348680,-0.18,,723
1748283721778034965,-0.18
1748283721785721250,-0.192
1748283721793407535,-0.195
1748283721801093820,-0.182
1748283721808780105,-0.167
1748283721816466390,-0.153
1748283721824152675,-0.14
1748283721831838960,-0.128
1748283721839525245,-0.11800000000000001
1748283721847211530,-0.113
1748283721854897815,-0.128
1748283721862584100,-0.16
1748283721870270385,-0.17200000000000001
1748283721877956670,-0.16
1748283721885642955,-0.15
1748283721893329240,-0.148
1748283721901015525,-0.14
1748283721908701810,-0.133
1748283721916388095,-0.128
1748283721924074380,-0.133
1748283721931760665,-0.15
1748283721939446950,-0.209
1748283721947133235,-0.192
1748283721954819520,0.195
1748283721962505805,0.861
1748283721970192090,1.215
1748283721977878375,0.9500000000000001
1748283721985564660,0.165
1748283721993250945,-0.555
1748283722000937230,-0.461
1748283722008623515,-0.07100000000000001
1748283722016309800,-0.07100000000000001
1748283722023996085,-0.113
1748283722031682370,-0.024
1748283722039368655,-0.019
1748283722047054940,-0.046
1748283722054741225,-0.007
1748283722062427510,0.024
1748283722070113795,0.024
1748283722077800080,0.051000000000000004
1748283722085486365,0.101
1748283722093172650,0.121
1748283722100858935,0.135
1748283722108545220,0.177
1748283722116231505,0.222
1748283722123917790,0.261
1748283722131604075,0.306
1748283722139290360,0.353
1748283722146976645,0.392
1748283722154662930,0.40700000000000003
1748283722162349215,0.405
1748283722170035500,0.405
1748283722177721785,0.39
1748283722185408070,0.36
1748283722193094355,0.326
1748283722200780640,0.266
1748283722208466925,0.165
1748283722216153210,0.054
1748283722223839495,-0.056
1748283722231525780,-0.165
1748283722239212065,-0.246
1748283722246898350,-0.298
1748283722254584635,-0.33
1748283722262270920,-0.34800000000000003
1748283722269957205,-0.34500000000000003
1748283722277643490,-0.335
1748283722285329775,-0.33
1748283722293016060,-0.326
1748283722300702345,-0.313
1748283722308388630,-0.293
1748283722316074915,-0.279
1748283722323761260,-0.269
1748283722331447824,-0.261
1748283722339134388,-0.249
1748283722346820952,-0.23700000000000002
1748283722354507516,-0.229
1748283722362194080,-0.224
1748283722369880644,-0.219
1748283722377567208,-0.214
1748283722385253772,-0.20700000000000002
1748283722392940336,-0.202
1748283722400626900,-0.20500000000000002
1748283722408313464,-0.202
1748283722416000028,-0.197
1748283722423686592,-0.195
1748283722431373156,-0.195
1748283722439059720,-0.195
1748283722446746284,-0.192
1748283722454432848,-0.192
1748283722462119412,-0.20500000000000002
1748283722469805976,-0.209
1748283722477492540,-0.195
1748283722485179104,-0.17500000000000002
1748283722492865668,-0.165
1748283722500552232,-0.158
1748283722508238796,-0.14300000000000002
1748283722515925360,-0.13
1748283722523611924,-0.145
1748283722531298488,-0.177
1748283722538985052,-0.192
1748283722546671616,-0.182
1748283722554358180,-0.17200000000000001
1748283722562044744,-0.167
1748283722569731308,-0.167
1748283722577417872,-0.163
1748283722585104436,-0.155
1748283722592791000,-0.158
1748283722600477564,-0.17
1748283722608164128,-0.2
1748283722615850692,-0.234
1748283722623537256,-0.046
1748283722631223820,0.531
1748283722638910384,1.091
1748283722646596948,1.188
1748283722654283512,0.666
1748283722661970076,-0.291
1748283722669656640,-0.686
1748283722677343204,-0.264
1748283722685029768,-0.037
1748283722692716332,-0.153
1748283722700402896,-0.128
1748283722708089460,-0.064
1748283722715776024,-0.088
1748283722723462588,-0.074
1748283722731149152,-0.034
1748283722738835716,-0.022
1748283722746522280,-0.007
1748283722754208844,0.027
1748283722761895408,0.054
1748283722769581972,0.079
1748283722777268536,0.113
1748283722784955100,0.148
1748283722792641664,0.185
1748283722800328228,0.227
1748283722808014792,0.266
1748283722815701356,0.301
1748283722823387920,0.328
1748283722831074484,0.34
1748283722838761048,0.338
1748283722846447612,0.326
1748283722854134176,0.306
1748283722861820740,0.279
1748283722869507304,0.232
1748283722877193868,0.155
1748283722884880467,0.054,89,711
1748283722892566265,-0.051000000000000004
1748283722900252063,-0.153
1748283722907937861,-0.244
1748283722915623659,-0.308
1748283722923309457,-0.343
1748283722930995255,-0.358
1748283722938681053,-0.365
1748283722946366851,-0.363
1748283722954052649,-0.353
1748283722961738447,-0.343
1748283722969424245,-0.33
1748283722977110043,-0.316
1748283722984795841,-0.303
1748283722992481639,-0.291
1748283723000167437,-0.274
1748283723007853235,-0.261
1748283723015539033,-0.251
1748283723023224831,-0.244
1748283723030910629,-0.234
1748283723038596427,-0.227
1748283723046282225,-0.222
1748283723053968023,-0.219
1748283723061653821,-0.217
1748283723069339619,-0.214
1748283723077025417,-0.209
1748283723084711215,-0.20700000000000002
1748283723092397013,-0.20700000000000002
1748283723100082811,-0.20700000000000002
1748283723107768609,-0.202
1748283723115454407,-0.202
1748283723123140205,-0.202
1748283723130826003,-0.2
1748283723138511801,-0.195
1748283723146197599,-0.192
1748283723153883397,-0.187
1748283723161569195,-0.19
1748283723169254993,-0.197
1748283723176940791,-0.197
1748283723184626589,-0.187
1748283723192312387,-0.17
1748283723199998185,-0.16
1748283723207683983,-0.155
1748283723215369781,-0.138
1748283723223055579,-0.11800000000000001
1748283723230741377,-0.125
1748283723238427175,-0.158
1748283723246112973,-0.17500000000000002
1748283723253798771,-0.167
1748283723261484569,-0.16
1748283723269170367,-0.16
1748283723276856165,-0.158
1748283723284541963,-0.153
1748283723292227761,-0.148
1748283723299913559,-0.148
1748283723307599357,-0.155
1748283723315285155,-0.185
1748283723322970953,-0.219
1748283723330656751,-0.08600000000000001
1748283723338342549,0.439
1748283723346028347,1.1500000000000001
1748283723353714145,1.595
1748283723361399943,1.284
1748283723369085741,0.056
1748283723376771539,-0.768
1748283723384457337,-0.358
1748283723392143135,0.004
1748283723399828933,-0.19
1748283723407514731,-0.212
1748283723415200529,-0.08600000000000001
1748283723422886327,-0.111
1748283723430572125,-0.123
1748283723438257923,-0.064
1748283723445943725,-0.046
1748283723453630080,-0.039
1748283723461316435,-0.002
1748283723469002790,0.029
1748283723476689145,0.051000000000000004
1748283723484375500,0.08600000000000001
1748283723492061855,0.125
1748283723499748210,0.165
1748283723507434565,0.209
1748283723515120920,0.256
1748283723522807275,0.296
1748283723530493630,0.33
1748283723538179985,0.353
1748283723545866340,0.36
1748283723553552695,0.355
1748283723561239050,0.343
1748283723568925405,0.323
1748283723576611760,0.28600000000000003
1748283723584298115,0.219
1748283723591984470,0.11800000000000001
1748283723599670825,0.002
1748283723607357180,-0.113
1748283723615043535,-0.219
1748283723622729890,-0.301
1748283723630416245,-0.353
1748283723638102600,-0.38
1748283723645788955,-0.387
1748283723653475310,-0.387
1748283723661161665,-0.377
1748283723668848020,-0.368
1748283723676534375,-0.355
1748283723684220730,-0.34
1748283723691907085,-0.326
1748283723699593440,-0.311
1748283723707279795,-0.298
1748283723714966150,-0.28400000000000003
1748283723722652505,-0.271
1748283723730338860,-0.261
1748283723738025215,-0.254
1748283723745711570,-0.246
1748283723753397925,-0.244
1748283723761084280,-0.242
1748283723768770635,-0.23700000000000002
1748283723776456990,-0.232
1748283723784143345,-0.229
1748283723791829700,-0.229
1748283723799516055,-0.227
1748283723807202410,-0.224
1748283723814888765,-0.219
1748283723822575120,-0.214
1748283723830261475,-0.214
1748283723837947830,-0.214
1748283723845634185,-0.209
1748283723853320540,-0.202
1748283723861006895,-0.2
1748283723868693250,-0.197
1748283723876379605,-0.192
1748283723884065960,-0.192
1748283723891752315,-0.197
1748283723899438670,-0.2
1748283723907125025,-0.19
1748283723914811380,-0.167
1748283723922497735,-0.15
1748283723930184090,-0.14300000000000002
1748283723937870445,-0.13
1748283723945556800,-0.113
1748283723953243155,-0.125
1748283723960929510,-0.163
1748283723968615865,-0.17500000000000002
1748283723976302220,-0.163
1748283723983988575,-0.155
1748283723991674930,-0.158
1748283723999361285,-0.15
1748283724007047673,-0.148,88,683
1748283724014734376,-0.145
1748283724022421079,-0.145
1748283724030107782,-0.153
1748283724037794485,-0.185
1748283724045481188,-0.23900000000000002
1748283724053167891,-0.145
1748283724060854594,0.34500000000000003
1748283724068541297,1.108
1748283724076228000,1.704
1748283724083914703,1.56
1748283724091601406,0.308
1748283724099288109,-0.778
1748283724106974812,-0.47600000000000003
1748283724114661515,-0.007
1748283724122348218,-0.18
1748283724130034921,-0.23700000000000002
1748283724137721624,-0.098
1748283724145408327,-0.116
1748283724153095030,-0.145
1748283724160781733,-0.079
1748283724168468436,-0.051000000000000004
1748283724176155139,-0.049
1748283724183841842,-0.014
1748283724191528545,0.022
1748283724199215248,0.044
1748283724206901951,0.081
1748283724214588654,0.128
1748283724222275357,0.167
1748283724229962060,0.20700000000000002
1748283724237648763,0.254
1748283724245335466,0.301
1748283724253022169,0.338
1748283724260708872,0.363
1748283724268395575,0.377
1748283724276082278,0.377
1748283724283768981,0.368
1748283724291455684,0.34800000000000003
1748283724299142387,0.318
1748283724306829090,0.256
1748283724314515793,0.16
1748283724322202496,0.046
1748283724329889199,-0.07100000000000001
1748283724337575902,-0.182
1748283724345262605,-0.274
1748283724352949308,-0.335
1748283724360636011,-0.37
1748283724368322714,-0.382
1748283724376009417,-0.382
1748283724383696120,-0.377
1748283724391382823,-0.368
1748283724399069526,-0.355
1748283724406756229,-0.34
1748283724414442932,-0.326
1748283724422129635,-0.308
1748283724429816338,-0.296
1748283724437503041,-0.28400000000000003
1748283724445189744,-0.269
1748283724452876447,-0.256
1748283724460563150,-0.251
1748283724468249853,-0.244
1748283724475936556,-0.23700000000000002
1748283724483623259,-0.229
1748283724491309962,-0.227
1748283724498996665,-0.222
1748283724506683368,-0.222
1748283724514370071,-0.222
1748283724522056774,-0.217
1748283724529743477,-0.212
1748283724537430180,-0.212
1748283724545116883,-0.212
1748283724552803586,-0.20700000000000002
1748283724560490289,-0.202
1748283724568177051,-0.202
1748283724575862639,-0.197
1748283724583548227,-0.192
1748283724591233815,-0.187
1748283724598919403,-0.19
1748283724606604991,-0.195
1748283724614290579,-0.195
1748283724621976167,-0.187
1748283724629661755,-0.165
1748283724637347343,-0.145
1748283724645032931,-0.135
1748283724652718519,-0.123
1748283724660404107,-0.108
1748283724668089695,-0.116
1748283724675775283,-0.153
1748283724683460871,-0.17
1748283724691146459,-0.158
1748283724698832047,-0.15
1748283724706517635,-0.15
1748283724714203223,-0.14300000000000002
1748283724721888811,-0.14
1748283724729574399,-0.138
1748283724737259987,-0.133
1748283724744945575,-0.138
1748283724752631163,-0.163
1748283724760316751,-0.224
1748283724768002339,-0.212
1748283724775687927,0.153
1748283724783373515,0.889
1748283724791059103,1.598
1748283724798744691,1.743
1748283724806430279,0.758
1748283724814115867,-0.587
1748283724821801455,-0.649
1748283724829487043,-0.056
1748283724837172631,-0.096
1748283724844858219,-0.244
1748283724852543807,-0.116
1748283724860229395,-0.083
1748283724867914983,-0.133
1748283724875600571,-0.08600000000000001
1748283724883286159,-0.041
1748283724890971747,-0.039
1748283724898657335,-0.012
1748283724906342923,0.027
1748283724914028511,0.051000000000000004
1748283724921714099,0.083
1748283724929399687,0.125
1748283724937085275,0.165
1748283724944770863,0.20700000000000002
1748283724952456451,0.256
1748283724960142039,0.301
1748283724967827627,0.338
1748283724975513215,0.365
1748283724983198803,0.377
1748283724990884391,0.38
1748283724998569979,0.372
1748283725006255567,0.355
1748283725013941155,0.326
1748283725021626743,0.274
1748283725029312331,0.192
1748283725036997919,0.083
1748283725044683507,-0.034
1748283725052369095,-0.148
1748283725060054683,-0.244
1748283725067740271,-0.311
1748283725075425859,-0.35000000000000003
1748283725083111447,-0.37
1748283725090797035,-0.375
1748283725098482623,-0.37
1748283725106168211,-0.363
1748283725113853799,-0.35000000000000003
1748283725121539387,-0.338
1748283725129225047,-0.321,88,673
1748283725136911332,-0.306,,710
1748283725144597617,-0.293
1748283725152283902,-0.281
1748283725159970187,-0.266
1748283725167656472,-0.254
1748283725175342757,-0.246
1748283725183029042,-0.23900000000000002
1748283725190715327,-0.234
1748283725198401612,-0.232
1748283725206087897,-0.224
1748283725213774182,-0.224
1748283725221460467,-0.222
1748283725229146752,-0.217
1748283725236833037,-0.214
1748283725244519322,-0.214
1748283725252205607,-0.212
1748283725259891892,-0.209
1748283725267578177,-0.20700000000000002
1748283725275264462,-0.202
1748283725282950747,-0.202
1748283725290637032,-0.2
1748283725298323317,-0.197
1748283725306009602,-0.19
1748283725313695887,-0.185
1748283725321382172,-0.182
1748283725329068457,-0.185
1748283725336754742,-0.19
1748283725344441027,-0.187
1748283725352127312,-0.17500000000000002
1748283725359813597,-0.155
1748283725367499882,-0.138
1748283725375186167,-0.128
1748283725382872452,-0.113
1748283725390558737,-0.10300000000000001
1748283725398245022,-0.121
1748283725405931307,-0.158
1748283725413617592,-0.167
1748283725421303877,-0.153
1748283725428990162,-0.15
1748283725436676447,-0.15
1748283725444362732,-0.14300000000000002
1748283725452049017,-0.14300000000000002
1748283725459735302,-0.14
1748283725467421587,-0.135
1748283725475107872,-0.14300000000000002
1748283725482794157,-0.17200000000000001
1748283725490480442,-0.229
1748283725498166727,-0.177
1748283725505853012,0.256
1748283725513539297,1.0150000000000001
1748283725521225582,1.667
1748283725528911867,1.647
1748283725536598152,0.496
1748283725544284437,-0.708
1748283725551970722,-0.545
1748283725559657007,-0.014
1748283725567343292,-0.138
1748283725575029577,-0.234
1748283725582715862,-0.098
1748283725590402147,-0.098
1748283725598088432,-0.135
1748283725605774717,-0.079
1748283725613461002,-0.044
1748283725621147287,-0.041
1748283725628833572,-0.007
1748283725636519857,0.032
1748283725644206142,0.056
1748283725651892427,0.088
1748283725659578712,0.128
1748283725667264997,0.167
1748283725674951282,0.212
1748283725682637567,0.261
1748283725690323912,0.303
1748283725698010197,0.34
1748283725705696482,0.365
1748283725713382767,0.377
1748283725721069052,0.377
1748283725728755337,0.368
1748283725736441622,0.34800000000000003
1748283725744127907,0.318
1748283725751814192,0.264
1748283725759500477,0.17500000000000002
1748283725767186762,0.066
1748283725774873047,-0.049
1748283725782559332,-0.16
1748283725790245617,-0.254
1748283725797931902,-0.321
1748283725805618187,-0.355
1748283725813304472,-0.372
1748283725820990757,-0.377
1748283725828677042,-0.372
1748283725836363327,-0.358
1748283725844049612,-0.34800000000000003
1748283725851735897,-0.335
1748283725859422182,-0.321
1748283725867108467,-0.303
1748283725874794752,-0.28800000000000003
1748283725882481037,-0.276
1748283725890167322,-0.264
1748283725897853607,-0.251
1748283725905539892,-0.242
1748283725913226177,-0.234
1748283725920912462,-0.227
1748283725928598747,-0.222
1748283725936285032,-0.222
1748283725943971317,-0.222
1748283725951657602,-0.217
1748283725959343887,-0.214
1748283725967030172,-0.212
1748283725974716457,-0.209
1748283725982402742,-0.20700000000000002
1748283725990089027,-0.20500000000000002
1748283725997775312,-0.202
1748283726005461597,-0.197
1748283726013147882,-0.195
1748283726020834167,-0.192
1748283726028520452,-0.19
1748283726036206737,-0.182
1748283726043893022,-0.17200000000000001
1748283726051579307,-0.17200000000000001
1748283726059265592,-0.18
1748283726066951877,-0.182
1748283726074638162,-0.17500000000000002
1748283726082324447,-0.158
1748283726090010732,-0.135
1748283726097697017,-0.123
1748283726105383302,-0.116
1748283726113069587,-0.101
1748283726120755872,-0.10300000000000001
1748283726128442157,-0.138
1748283726136128442,-0.165
1748283726143814727,-0.155
1748283726151501012,-0.145
1748283726159187297,-0.14300000000000002
1748283726166873582,-0.135
1748283726174559867,-0.133
1748283726182246152,-0.133
1748283726189932437,-0.128
1748283726197618722,-0.128
1748283726205305007,-0.148
1748283726212991292,-0.20500000000000002
1748283726220677577,-0.222
1748283726228363862,0.054
1748283726236050147,0.74
1748283726243736432,1.489
1748283726251422773,1.7830000000000001,88,724
1748283726259108849,1.02
1748283726266794925,-0.392
1748283726274481001,-0.738
1748283726282167077,-0.135
1748283726289853153,-0.041
1748283726297539229,-0.234
1748283726305225305,-0.138
1748283726312911381,-0.07100000000000001
1748283726320597457,-0.125
1748283726328283533,-0.098
1748283726335969609,-0.041
1748283726343655685,-0.034
1748283726351341761,-0.017
1748283726359027837,0.022
1748283726366713913,0.049
1748283726374399989,0.079
1748283726382086065,0.11800000000000001
1748283726389772141,0.158
1748283726397458217,0.2
1748283726405144293,0.244
1748283726412830369,0.28800000000000003
1748283726420516445,0.328
1748283726428202521,0.358
1748283726435888597,0.37
1748283726443574673,0.375
1748283726451260749,0.37
1748283726458946825,0.353
1748283726466632901,0.328
1748283726474318977,0.28400000000000003
1748283726482005053,0.209
1748283726489691129,0.108
1748283726497377205,-0.004
1748283726505063281,-0.11800000000000001
1748283726512749357,-0.217
1748283726520435433,-0.291
1748283726528121509,-0.338
1748283726535807585,-0.36
1748283726543493661,-0.37
1748283726551179737,-0.37
1748283726558865813,-0.363
1748283726566551889,-0.353
1748283726574237965,-0.338
1748283726581924041,-0.323
1748283726589610117,-0.308
1748283726597296193,-0.293
1748283726604982269,-0.279
1748283726612668345,-0.264
1748283726620354421,-0.251
1748283726628040497,-0.242
1748283726635726573,-0.232
1748283726643412649,-0.227
1748283726651098725,-0.219
1748283726658784801,-0.219
1748283726666470877,-0.217
1748283726674156953,-0.214
1748283726681843029,-0.212
1748283726689529105,-0.209
1748283726697215181,-0.20700000000000002
1748283726704901257,-0.20500000000000002
1748283726712587333,-0.202
1748283726720273409,-0.197
1748283726727959485,-0.195
1748283726735645561,-0.195
1748283726743331637,-0.192
1748283726751017713,-0.185
1748283726758703789,-0.18
1748283726766389865,-0.177
1748283726774075941,-0.177
1748283726781762017,-0.182
1748283726789448093,-0.182
1748283726797134169,-0.17500000000000002
1748283726804820245,-0.158
1748283726812506377,-0.135,87,717
1748283726820192453,-0.123,,729
1748283726827878529,-0.113
1748283726835564605,-0.096
1748283726843250681,-0.101
1748283726850936757,-0.14
1748283726858622833,-0.165
1748283726866308909,-0.153
1748283726873994985,-0.145
1748283726881681061,-0.145
1748283726889367137,-0.14
1748283726897053213,-0.133
1748283726904739289,-0.133
1748283726912425365,-0.13
1748283726920111441,-0.135
1748283726927797517,-0.153
1748283726935483593,-0.20700000000000002
1748283726943169669,-0.232
1748283726950855745,0.041
1748283726958541821,0.733
1748283726966227897,1.489
1748283726973913973,1.79
1748283726981600049,1.0170000000000001
1748283726989286125,-0.405
1748283726996972201,-0.743
1748283727004658277,-0.133
1748283727012344353,-0.044
1748283727020030429,-0.229
1748283727027716505,-0.125
1748283727035402581,-0.064
1748283727043088657,-0.121
1748283727050774733,-0.088
1748283727058460809,-0.034
1748283727066146885,-0.029
1748283727073832961,-0.004
1748283727081519037,0.034
1748283727089205113,0.056
1748283727096891189,0.088
1748283727104577265,0.13
1748283727112263341,0.167
1748283727119949417,0.20700000000000002
1748283727127635493,0.254
1748283727135321569,0.301
1748283727143007645,0.338
1748283727150693721,0.368
1748283727158379797,0.385
1748283727166065873,0.39
1748283727173751949,0.38
1748283727181438025,0.363
1748283727189124101,0.335
1748283727196810177,0.296
1748283727204496253,0.224
1748283727212182329,0.123
1748283727219868405,0.009000000000000001
1748283727227554481,-0.106
1748283727235240557,-0.20500000000000002
1748283727242926633,-0.281
1748283727250612709,-0.33
1748283727258298785,-0.353
1748283727265984861,-0.36
1748283727273670937,-0.358
1748283727281357013,-0.35000000000000003
1748283727289043089,-0.34
1748283727296729165,-0.328
1748283727304415241,-0.311
1748283727312101317,-0.296
1748283727319787393,-0.281
1748283727327473469,-0.266
1748283727335159545,-0.254
1748283727342845621,-0.244
1748283727350531697,-0.232
1748283727358217773,-0.224
1748283727365903849,-0.219
1748283727373589977,-0.214
1748283727381276262,-0.212
1748283727388962547,-0.20700000000000002
1748283727396648832,-0.20500000000000002
1748283727404335117,-0.202
1748283727412021402,-0.2
1748283727419707687,-0.197
1748283727427393972,-0.195
1748283727435080257,-0.195
1748283727442766542,-0.195
1748283727450452827,-0.192
1748283727458139112,-0.187
1748283727465825397,-0.182
1748283727473511682,-0.18
1748283727481197967,-0.17500000000000002
1748283727488884252,-0.17200000000000001
1748283727496570537,-0.17500000000000002
1748283727504256822,-0.18
1748283727511943107,-0.17500000000000002
1748283727519629392,-0.158
1748283727527315677,-0.133
1748283727535001962,-0.121
1748283727542688247,-0.113
1748283727550374532,-0.096
1748283727558060817,-0.093
1748283727565747102,-0.123
1748283727573433387,-0.155
1748283727581119672,-0.153
1748283727588805957,-0.14300000000000002
1748283727596492242,-0.14300000000000002
1748283727604178527,-0.138
1748283727611864812,-0.13
1748283727619551097,-0.128
1748283727627237382,-0.123
1748283727634923667,-0.125
1748283727642609952,-0.14
1748283727650296237,-0.185
1748283727657982522,-0.229
1748283727665668807,-0.044
1748283727673355092,0.5730000000000001
1748283727681041377,1.351
1748283727688727662,1.798
1748283727696413947,1.296
1748283727704100232,-0.11800000000000001
1748283727711786517,-0.797
1748283727719472802,-0.259
1748283727727159087,-0.002
1748283727734845372,-0.214
1748283727742531657,-0.167
1748283727750217942,-0.064
1748283727757904227,-0.113
1748283727765590512,-0.106
1748283727773276797,-0.044
1748283727780963082,-0.037
1748283727788649367,-0.022
1748283727796335652,0.019
1748283727804021937,0.049
1748283727811708222,0.074
1748283727819394507,0.111
1748283727827080792,0.153
1748283727834767077,0.19
1748283727842453362,0.232
1748283727850139647,0.279
1748283727857825932,0.318
1748283727865512217,0.34800000000000003
1748283727873198502,0.365
1748283727880884787,0.368
1748283727888571072,0.36
1748283727896257357,0.34500000000000003
1748283727903943642,0.326
1748283727911629927,0.28400000000000003
1748283727919316212,0.217
1748283727927002497,0.123
1748283727934688838,0.012,86,726
1748283727942375123,-0.101
1748283727950061408,-0.20500000000000002
1748283727957747693,-0.28800000000000003
1748283727965433978,-0.34
1748283727973120263,-0.365
1748283727980806548,-0.377
1748283727988492833,-0.375
1748283727996179118,-0.368
1748283728003865403,-0.358
1748283728011551688,-0.343
1748283728019237973,-0.328
1748283728026924258,-0.313
1748283728034610543,-0.298
1748283728042296828,-0.28400000000000003
1748283728049983113,-0.271
1748283728057669398,-0.264
1748283728065355683,-0.249
1748283728073041968,-0.23700000000000002
1748283728080728253,-0.234
1748283728088414538,-0.232
1748283728096100823,-0.222
1748283728103787108,-0.214
1748283728111473393,-0.214
1748283728119159678,-0.212
1748283728126845963,-0.20700000000000002
1748283728134532248,-0.202
1748283728142218533,-0.2
1748283728149904818,-0.197
1748283728157591103,-0.197
1748283728165277388,-0.195
1748283728172963673,-0.19
1748283728180649958,-0.182
1748283728188336243,-0.18
1748283728196022528,-0.18
1748283728203708813,-0.187
1748283728211395098,-0.187
1748283728219081383,-0.177
1748283728226767668,-0.16
1748283728234453953,-0.14
1748283728242140238,-0.13
1748283728249826523,-0.116
1748283728257512808,-0.096
1748283728265199093,-0.10300000000000001
1748283728272885378,-0.148
1748283728280571663,-0.167
1748283728288257948,-0.153
1748283728295944233,-0.14300000000000002
1748283728303630518,-0.14300000000000002
1748283728311316803,-0.138
1748283728319003088,-0.135
1748283728326689373,-0.128
1748283728334375658,-0.116
1748283728342061943,-0.125
1748283728349748228,-0.155
1748283728357434513,-0.209
1748283728365120798,-0.212
1748283728372807083,0.128
1748283728380493368,0.864
1748283728388179653,1.546
1748283728395865938,1.6520000000000001
1748283728403552223,0.721
1748283728411238508,-0.553
1748283728418924793,-0.632
1748283728426611078,-0.061
1748283728434297363,-0.079
1748283728441983648,-0.212
1748283728449669933,-0.08600000000000001
1748283728457356218,-0.056
1748283728465042503,-0.10300000000000001
1748283728472728788,-0.059000000000000004
1748283728480415073,-0.017
1748283728488101358,-0.014
1748283728495787699,0.007
1748283728503473984,0.049
1748283728511160269,0.083
1748283728518846554,0.111
1748283728526532839,0.15
1748283728534219124,0.19
1748283728541905409,0.23700000000000002
1748283728549591694,0.28600000000000003
1748283728557277979,0.318
1748283728564964264,0.355
1748283728572650549,0.395
1748283728580336834,0.405
1748283728588023119,0.397
1748283728595709404,0.392
1748283728603395689,0.382
1748283728611081974,0.34800000000000003
1748283728618768259,0.291
1748283728626454544,0.209
1748283728634140829,0.101
1748283728641827114,-0.014
1748283728649513399,-0.13
1748283728657199684,-0.227
1748283728664885969,-0.293
1748283728672572254,-0.328
1748283728680258539,-0.34500000000000003
1748283728687944824,-0.358
1748283728695631109,-0.355
1748283728703317394,-0.343
1748283728711003679,-0.328
1748283728718689964,-0.318
1748283728726376249,-0.301
1748283728734062534,-0.28400000000000003
1748283728741748819,-0.271
1748283728749435104,-0.264
1748283728757121389,-0.246
1748283728764807674,-0.232
1748283728772493959,-0.224
1748283728780180244,-0.214
1748283728787866529,-0.202
1748283728795552814,-0.202
1748283728803239099,-0.2
1748283728810925384,-0.187
1748283728818611669,-0.185
1748283728826297954,-0.192
1748283728833984239,-0.19
1748283728841670524,-0.185
1748283728849356809,-0.182
1748283728857043094,-0.177
1748283728864729379,-0.177
1748283728872415664,-0.177
1748283728880101949,-0.17200000000000001
1748283728887788234,-0.17200000000000001
1748283728895474519,-0.18
1748283728903160804,-0.17500000000000002
1748283728910847089,-0.148
1748283728918533374,-0.128
1748283728926219659,-0.121
1748283728933905944,-0.111
1748283728941592229,-0.096
1748283728949278514,-0.106
1748283728956964799,-0.145
1748283728964651084,-0.16
1748283728972337369,-0.153
1748283728980023654,-0.145
1748283728987709939,-0.138
1748283728995396224,-0.13
1748283729003082509,-0.13
1748283729010768794,-0.128
1748283729018455079,-0.125
1748283729026141364,-0.133
1748283729033827649,-0.145
1748283729041513934,-0.195
1748283729049200219,-0.2
1748283729056886564,0.155,85,723
1748283729064572849,0.874,,717
1748283729072259134,1.417
1748283729079945419,1.333
1748283729087631704,0.422
1748283729095317989,-0.592
1748283729103004274,-0.55
1748283729110690559,-0.056
1748283729118376844,-0.076
1748283729126063129,-0.163
1748283729133749414,-0.059000000000000004
1748283729141435699,-0.046
1748283729149121984,-0.079
1748283729156808269,-0.037
1748283729164494554,-0.004
1748283729172180839,0.0
1748283729179867124,0.029
1748283729187553409,0.064
1748283729195239694,0.08600000000000001
1748283729202925979,0.116
1748283729210612264,0.158
1748283729218298549,0.197
1748283729225984834,0.23700000000000002
1748283729233671119,0.279
1748283729241357404,0.328
1748283729249043689,0.365
1748283729256729974,0.385
1748283729264416259,0.39
1748283729272102544,0.387
1748283729279788829,0.375
1748283729287475114,0.353
1748283729295161399,0.318
1748283729302847684,0.254
1748283729310533969,0.163
1748283729318220254,0.056
1748283729325906539,-0.056
1748283729333592824,-0.167
1748283729341279109,-0.259
1748283729348965394,-0.318
1748283729356651679,-0.35000000000000003
1748283729364337964,-0.368
1748283729372024249,-0.372
1748283729379710534,-0.365
1748283729387396819,-0.358
1748283729395083104,-0.35000000000000003
1748283729402769389,-0.338
1748283729410455674,-0.318
1748283729418141959,-0.303
1748283729425828244,-0.293
1748283729433514529,-0.281
1748283729441200814,-0.269
1748283729448887099,-0.256
1748283729456573384,-0.244
1748283729464259669,-0.23700000000000002
1748283729471945954,-0.234
1748283729479632239,-0.232
1748283729487318524,-0.224
1748283729495004809,-0.222
1748283729502691094,-0.222
1748283729510377379,-0.219
1748283729518063664,-0.214
1748283729525749949,-0.212
1748283729533436234,-0.212
1748283729541122519,-0.209
1748283729548808804,-0.209
1748283729556495089,-0.20700000000000002
1748283729564181374,-0.20500000000000002
1748283729571867659,-0.202
1748283729579553944,-0.202
1748283729587240229,-0.2
1748283729594926514,-0.202
1748283729602612799,-0.20700000000000002
1748283729610299084,-0.2
1748283729617985425,-0.177
1748283729625671710,-0.158
1748283729633357995,-0.15
1748283729641044280,-0.135
1748283729648730565,-0.121
1748283729656416850,-0.128
1748283729664103135,-0.167
1748283729671789420,-0.185
1748283729679475705,-0.17500000000000002
1748283729687161990,-0.17
1748283729694848275,-0.167
1748283729702534560,-0.163
1748283729710220845,-0.16
1748283729717907130,-0.155
1748283729725593415,-0.15
1748283729733279700,-0.158
1748283729740965985,-0.182
1748283729748652270,-0.234
1748283729756338555,-0.195
1748283729764024840,0.217
1748283729771711125,0.965
1748283729779397410,1.595
1748283729787083695,1.578
1748283729794769980,0.498
1748283729802456265,-0.6910000000000001
1748283729810142550,-0.58
1748283729817828835,-0.039
1748283729825515120,-0.133
1748283729833201405,-0.244
1748283729840887690,-0.113
1748283729848573975,-0.106
1748283729856260260,-0.14300000000000002
1748283729863946545,-0.088
1748283729871632830,-0.054
1748283729879319115,-0.054
1748283729887005400,-0.022
1748283729894691685,0.014
1748283729902377970,0.039
1748283729910064255,0.074
1748283729917750540,0.116
1748283729925436825,0.153
1748283729933123110,0.195
1748283729940809395,0.23900000000000002
1748283729948495680,0.281
1748283729956181965,0.318
1748283729963868250,0.34500000000000003
1748283729971554535,0.358
1748283729979240820,0.355
1748283729986927105,0.34500000000000003
1748283729994613390,0.328
1748283730002299675,0.298
1748283730009985960,0.244
1748283730017672245,0.158
1748283730025358530,0.051000000000000004
1748283730033044815,-0.061
1748283730040731100,-0.17200000000000001
1748283730048417385,-0.261
1748283730056103670,-0.326
1748283730063789955,-0.363
1748283730071476240,-0.377
1748283730079162525,-0.382
1748283730086848810,-0.377
1748283730094535095,-0.368
1748283730102221380,-0.358
1748283730109907665,-0.343
1748283730117593950,-0.326
1748283730125280235,-0.313
1748283730132966520,-0.303
1748283730140652805,-0.28800000000000003
1748283730148339090,-0.274
1748283730156025375,-0.261
1748283730163711660,-0.254
1748283730171397945,-0.244
1748283730179084286,-0.23700000000000002,85,704
1748283730186770571,-0.232
1748283730194456856,-0.227
1748283730202143141,-0.227
1748283730209829426,-0.227
1748283730217515711,-0.222
1748283730225201996,-0.219
1748283730232888281,-0.217
1748283730240574566,-0.217
1748283730248260851,-0.217
1748283730255947136,-0.212
1748283730263633421,-0.209
1748283730271319706,-0.209
1748283730279005991,-0.20500000000000002
1748283730286692276,-0.197
1748283730294378561,-0.197
1748283730302064846,-0.20500000000000002
1748283730309751131,-0.20700000000000002
1748283730317437416,-0.2
1748283730325123701,-0.177
1748283730332809986,-0.155
1748283730340496271,-0.148
1748283730348182556,-0.135
1748283730355868841,-0.11800000000000001
1748283730363555126,-0.128
1748283730371241411,-0.167
1748283730378927696,-0.185
1748283730386613981,-0.17
1748283730394300266,-0.163
1748283730401986551,-0.163
1748283730409672836,-0.158
1748283730417359121,-0.155
1748283730425045406,-0.15
1748283730432731691,-0.14300000000000002
1748283730440417976,-0.15
1748283730448104261,-0.17
1748283730455790546,-0.222
1748283730463476831,-0.232
1748283730471163116,0.079
1748283730478849401,0.795
1748283730486535686,1.551
1748283730494221971,1.815
1748283730501908256,0.963
1748283730509594541,-0.47100000000000003
1748283730517280826,-0.736
1748283730524967111,-0.11800000000000001
1748283730532653396,-0.07100000000000001
1748283730540339681,-0.254
1748283730548025966,-0.14
1748283730555712251,-0.091
1748283730563398536,-0.145
1748283730571084821,-0.10300000000000001
1748283730578771106,-0.054
1748283730586457391,-0.054
1748283730594143676,-0.027
1748283730601829961,0.014
1748283730609516246,0.039
1748283730617202531,0.069
1748283730624888816,0.108
1748283730632575101,0.15
1748283730640261386,0.192
1748283730647947671,0.23900000000000002
1748283730655633956,0.28600000000000003
1748283730663320241,0.323
1748283730671006526,0.353
1748283730678692811,0.37
1748283730686379096,0.372
1748283730694065381,0.363
1748283730701751666,0.35000000000000003
1748283730709437951,0.326
1748283730717124236,0.276
1748283730724810521,0.2
1748283730732496806,0.096
1748283730740183147,-0.022
1748283730747869014,-0.138
1748283730755554881,-0.23700000000000002
1748283730763240748,-0.308
1748283730770926615,-0.353
1748283730778612482,-0.372
1748283730786298349,-0.38
1748283730793984216,-0.375
1748283730801670083,-0.365
1748283730809355950,-0.353
1748283730817041817,-0.343
1748283730824727684,-0.326
1748283730832413551,-0.308
1748283730840099418,-0.296
1748283730847785285,-0.28800000000000003
1748283730855471152,-0.274
1748283730863157019,-0.261
1748283730870842886,-0.251
1748283730878528753,-0.244
1748283730886214620,-0.23700000000000002
1748283730893900487,-0.232
1748283730901586354,-0.227
1748283730909272221,-0.224
1748283730916958088,-0.224
1748283730924643955,-0.219
1748283730932329822,-0.217
1748283730940015689,-0.217
1748283730947701556,-0.219
1748283730955387423,-0.214
1748283730963073290,-0.209
1748283730970759157,-0.209
1748283730978445024,-0.20700000000000002
1748283730986130891,-0.2
1748283730993816758,-0.195
1748283731001502625,-0.195
1748283731009188492,-0.202
1748283731016874359,-0.20700000000000002
1748283731024560226,-0.197
1748283731032246093,-0.18
1748283731039931960,-0.158
1748283731047617827,-0.14300000000000002
1748283731055303694,-0.133
1748283731062989561,-0.113
1748283731070675428,-0.113
1748283731078361295,-0.15
1748283731086047162,-0.18
1748283731093733029,-0.17
1748283731101418896,-0.16
1748283731109104763,-0.163
1748283731116790630,-0.158
1748283731124476497,-0.153
1748283731132162364,-0.15
1748283731139848231,-0.148
1748283731147534098,-0.148
1748283731155219965,-0.16
1748283731162905832,-0.20700000000000002
1748283731170591699,-0.251
1748283731178277566,-0.069
1748283731185963433,0.553
1748283731193649300,1.348
1748283731201335167,1.822
1748283731209021034,1.346
1748283731216706901,-0.088
1748283731224392768,-0.8240000000000001
1748283731232078635,-0.301
1748283731239764502,-0.022
1748283731247450369,-0.232
1748283731255136236,-0.192
1748283731262822103,-0.083
1748283731270507970,-0.13
1748283731278193837,-0.125
1748283731285879704,-0.064
1748283731293565571,-0.054
1748283731301251490,-0.041,85,683
1748283731308937775,0.002
1748283731316624060,0.032
1748283731324310345,0.054
1748283731331996630,0.091
1748283731339682915,0.135
1748283731347369200,0.17500000000000002
1748283731355055485,0.222
1748283731362741770,0.269
1748283731370428055,0.311
1748283731378114340,0.343
1748283731385800625,0.368
1748283731393486910,0.372
1748283731401173195,0.368
1748283731408859480,0.355
1748283731416545765,0.333
1748283731424232050,0.293
1748283731431918335,0.227
1748283731439604620,0.128
1748283731447290905,0.012
1748283731454977190,-0.10300000000000001
1748283731462663475,-0.212
1748283731470349760,-0.293
1748283731478036045,-0.343
1748283731485722330,-0.365
1748283731493408615,-0.377
1748283731501094900,-0.377
1748283731508781185,-0.368
1748283731516467470,-0.358
1748283731524153755,-0.34800000000000003
1748283731531840040,-0.33
1748283731539526325,-0.318
1748283731547212610,-0.306
1748283731554898895,-0.28800000000000003
1748283731562585180,-0.274
1748283731570271465,-0.264
1748283731577957750,-0.254
1748283731585644035,-0.242
1748283731593330320,-0.234
1748283731601016605,-0.227
1748283731608702890,-0.224
1748283731616389175,-0.224
1748283731624075460,-0.219
1748283731631761745,-0.212
1748283731639448030,-0.214
1748283731647134315,-0.214
1748283731654820600,-0.209
1748283731662506885,-0.20500000000000002
1748283731670193170,-0.20500000000000002
1748283731677879455,-0.20700000000000002
1748283731685565740,-0.202
1748283731693252025,-0.195
1748283731700938310,-0.192
1748283731708624595,-0.19
1748283731716310880,-0.187
1748283731723997165,-0.187
1748283731731683450,-0.187
1748283731739369735,-0.185
1748283731747056020,-0.17500000000000002
1748283731754742305,-0.15
1748283731762428590,-0.135
1748283731770114875,-0.123
1748283731777801160,-0.106
1748283731785487445,-0.111
1748283731793173730,-0.145
1748283731800860015,-0.165
1748283731808546300,-0.155
1748283731816232585,-0.155
1748283731823918870,-0.155
1748283731831605155,-0.148
1748283731839291440,-0.148
1748283731846977725,-0.14300000000000002
1748283731854664010,-0.133
1748283731862350351,-0.135,85,707
1748283731870036636,-0.15,,709
1748283731877722921,-0.185
1748283731885409206,-0.232
1748283731893095491,-0.083
1748283731900781776,0.506
1748283731908468061,1.2710000000000001
1748283731916154346,1.684
1748283731923840631,1.23
1748283731931526916,-0.07100000000000001
1748283731939213201,-0.778
1748283731946899486,-0.306
1748283731954585771,-0.007
1748283731962272056,-0.187
1748283731969958341,-0.16
1748283731977644626,-0.059000000000000004
1748283731985330911,-0.098
1748283731993017196,-0.093
1748283732000703481,-0.034
1748283732008389766,-0.027
1748283732016076051,-0.014
1748283732023762336,0.024
1748283732031448621,0.054
1748283732039134906,0.079
1748283732046821191,0.123
1748283732054507476,0.17200000000000001
1748283732062193761,0.212
1748283732069880046,0.254
1748283732077566331,0.301
1748283732085252616,0.343
1748283732092938901,0.377
1748283732100625186,0.405
1748283732108311471,0.41200000000000003
1748283732115997756,0.4
1748283732123684041,0.382
1748283732131370326,0.365
1748283732139056611,0.326
1748283732146742896,0.249
1748283732154429181,0.155
1748283732162115466,0.049
1748283732169801751,-0.076
1748283732177488036,-0.187
1748283732185174321,-0.264
1748283732192860606,-0.311
1748283732200546891,-0.343
1748283732208233176,-0.355
1748283732215919461,-0.353
1748283732223605746,-0.34500000000000003
1748283732231292031,-0.335
1748283732238978316,-0.318
1748283732246664601,-0.301
1748283732254350886,-0.291
1748283732262037171,-0.279
1748283732269723456,-0.259
1748283732277409741,-0.251
1748283732285096026,-0.246
1748283732292782311,-0.232
1748283732300468596,-0.214
1748283732308154881,-0.20700000000000002
1748283732315841166,-0.20500000000000002
1748283732323527451,-0.2
1748283732331213736,-0.19
1748283732338900021,-0.187
1748283732346586306,-0.192
1748283732354272591,-0.19
1748283732361958876,-0.182
1748283732369645161,-0.18
1748283732377331446,-0.182
1748283732385017731,-0.177
1748283732392704016,-0.17500000000000002
1748283732400390301,-0.17200000000000001
1748283732408076586,-0.17500000000000002
1748283732415762871,-0.177
1748283732423449216,-0.18
1748283732431135501,-0.17500000000000002
1748283732438821786,-0.158
1748283732446508071,-0.133
1748283732454194356,-0.125
1748283732461880641,-0.116
1748283732469566926,-0.101
1748283732477253211,-0.111
1748283732484939496,-0.148
1748283732492625781,-0.17
1748283732500312066,-0.158
1748283732507998351,-0.148
1748283732515684636,-0.145
1748283732523370921,-0.14300000000000002
1748283732531057206,-0.14
1748283732538743491,-0.135
1748283732546429776,-0.13
1748283732554116061,-0.128
1748283732561802346,-0.145
1748283732569488631,-0.19
1748283732577174916,-0.229
1748283732584861201,-0.037
1748283732592547486,0.587
1748283732600233771,1.291
1748283732607920056,1.5310000000000001
1748283732615606341,0.926
1748283732623292626,-0.279
1748283732630978911,-0.718
1748283732638665196,-0.212
1748283732646351481,-0.019
1748283732654037766,-0.17200000000000001
1748283732661724051,-0.111
1748283732669410336,-0.039
1748283732677096621,-0.081
1748283732684782906,-0.066
1748283732692469191,-0.017
1748283732700155476,-0.012
1748283732707841761,0.004
1748283732715528046,0.044
1748283732723214331,0.07100000000000001
1748283732730900616,0.101
1748283732738586901,0.14
1748283732746273186,0.177
1748283732753959471,0.214
1748283732761645756,0.261
1748283732769332041,0.313
1748283732777018326,0.353
1748283732784704611,0.377
1748283732792390896,0.39
1748283732800077181,0.395
1748283732807763466,0.385
1748283732815449751,0.365
1748283732823136036,0.335
1748283732830822321,0.28800000000000003
1748283732838508606,0.212
1748283732846194891,0.111
1748283732853881176,-0.004
1748283732861567461,-0.121
1748283732869253746,-0.214
1748283732876940031,-0.28800000000000003
1748283732884626316,-0.333
1748283732892312601,-0.353
1748283732899998886,-0.358
1748283732907685171,-0.353
1748283732915371456,-0.34500000000000003
1748283732923057741,-0.335
1748283732930744026,-0.326
1748283732938430311,-0.313
1748283732946116596,-0.301
1748283732953802881,-0.28800000000000003
1748283732961489166,-0.274
1748283732969175451,-0.261
1748283732976861736,-0.249
1748283732984548077,-0.23900000000000002,85,710
1748283732992234153,-0.232
1748283732999920229,-0.224
1748283733007606305,-0.217
1748283733015292381,-0.212
1748283733022978457,-0.209
1748283733030664533,-0.20700000000000002
1748283733038350609,-0.20700000000000002
1748283733046036685,-0.20700000000000002
1748283733053722761,-0.20500000000000002
1748283733061408837,-0.202
1748283733069094913,-0.202
1748283733076780989,-0.20500000000000002
1748283733084467065,-0.202
1748283733092153141,-0.197
1748283733099839217,-0.195
1748283733107525293,-0.192
1748283733115211369,-0.187
1748283733122897445,-0.182
1748283733130583521,-0.182
1748283733138269597,-0.187
1748283733145955673,-0.19
1748283733153641749,-0.185
1748283733161327825,-0.167
1748283733169013901,-0.145
1748283733176699977,-0.135
1748283733184386053,-0.123
1748283733192072129,-0.106
1748283733199758205,-0.111
1748283733207444281,-0.153
1748283733215130357,-0.17500000000000002
1748283733222816433,-0.163
1748283733230502509,-0.155
1748283733238188585,-0.158
1748283733245874661,-0.15
1748283733253560737,-0.145
1748283733261246813,-0.14300000000000002
1748283733268932889,-0.138
1748283733276618965,-0.14
1748283733284305041,-0.158
1748283733291991117,-0.202
1748283733299677193,-0.224
1748283733307363269,0.022
1748283733315049345,0.686
1748283733322735421,1.417
1748283733330421497,1.719
1748283733338107573,1.044
1748283733345793649,-0.318
1748283733353479725,-0.755
1748283733361165801,-0.18
1748283733368851877,-0.027
1748283733376537953,-0.224
1748283733384224029,-0.15
1748283733391910105,-0.07100000000000001
1748283733399596181,-0.121
1748283733407282257,-0.101
1748283733414968333,-0.046
1748283733422654409,-0.039
1748283733430340485,-0.019
1748283733438026561,0.019
1748283733445712637,0.044
1748283733453398713,0.07100000000000001
1748283733461084789,0.111
1748283733468770865,0.15
1748283733476456941,0.19
1748283733484143017,0.234
1748283733491829093,0.281
1748283733499515169,0.321
1748283733507201245,0.353
1748283733514887321,0.372
1748283733522573397,0.375
1748283733530259473,0.368
1748283733537945549,0.353
1748283733545631681,0.328
1748283733553317757,0.28400000000000003
1748283733561003833,0.212
1748283733568689909,0.116
1748283733576375985,0.004
1748283733584062061,-0.111
1748283733591748137,-0.214
1748283733599434213,-0.291
1748283733607120289,-0.338
1748283733614806365,-0.36
1748283733622492441,-0.37
1748283733630178517,-0.372
1748283733637864593,-0.365
1748283733645550669,-0.355
1748283733653236745,-0.34
1748283733660922821,-0.326
1748283733668608897,-0.313
1748283733676294973,-0.298
1748283733683981049,-0.28600000000000003
1748283733691667125,-0.271
1748283733699353201,-0.259
1748283733707039277,-0.249
1748283733714725353,-0.23900000000000002
1748283733722411429,-0.232
1748283733730097505,-0.227
1748283733737783581,-0.224
1748283733745469657,-0.222
1748283733753155733,-0.217
1748283733760841809,-0.217
1748283733768527885,-0.217
1748283733776213961,-0.214
1748283733783900037,-0.214
1748283733791586113,-0.212
1748283733799272189,-0.209
1748283733806958265,-0.20700000000000002
1748283733814644341,-0.20500000000000002
1748283733822330417,-0.20500000000000002
1748283733830016493,-0.2
1748283733837702569,-0.195
1748283733845388645,-0.19
1748283733853074721,-0.187
1748283733860760797,-0.19
1748283733868446873,-0.195
1748283733876132949,-0.19
1748283733883819025,-0.17200000000000001
1748283733891505101,-0.15
1748283733899191177,-0.135
1748283733906877253,-0.123
1748283733914563329,-0.108
1748283733922249405,-0.111
1748283733929935481,-0.145
1748283733937621557,-0.17200000000000001
1748283733945307633,-0.165
1748283733952993709,-0.153
1748283733960679785,-0.155
1748283733968365861,-0.15
1748283733976051937,-0.14
1748283733983738013,-0.14
1748283733991424089,-0.14
1748283733999110165,-0.138
1748283734006796241,-0.148
1748283734014482317,-0.187
1748283734022168393,-0.227
1748283734029854469,-0.056
1748283734037540545,0.538
1748283734045226621,1.306
1748283734052912697,1.758
1748283734060598773,1.306
1748283734068284849,-0.066
1748283734075970925,-0.81
1748283734083657001,-0.306
1748283734091343077,-0.009000000000000001
1748283734099029153,-0.222
1748283734106715281,-0.197,85,715
1748283734114401566,-0.081,,690
1748283734122087851,-0.128
1748283734129774136,-0.128
1748283734137460421,-0.064
1748283734145146706,-0.051000000000000004
1748283734152832991,-0.041
1748283734160519276,0.0
1748283734168205561,0.029
1748283734175891846,0.054
1748283734183578131,0.091
1748283734191264416,0.133
1748283734198950701,0.17
1748283734206636986,0.217
1748283734214323271,0.264
1748283734222009556,0.306
1748283734229695841,0.34
1748283734237382126,0.363
1748283734245068411,0.37
1748283734252754696,0.363
1748283734260440981,0.35000000000000003
1748283734268127266,0.328
1748283734275813551,0.291
1748283734283499836,0.224
1748283734291186121,0.128
1748283734298872406,0.017
1748283734306558691,-0.096
1748283734314244976,-0.202
1748283734321931261,-0.28800000000000003
1748283734329617546,-0.343
1748283734337303831,-0.372
1748283734344990116,-0.382
1748283734352676401,-0.382
1748283734360362686,-0.38
1748283734368048971,-0.368
1748283734375735256,-0.355
1748283734383421541,-0.343
1748283734391107826,-0.33
1748283734398794111,-0.316
1748283734406480396,-0.301
1748283734414166681,-0.28800000000000003
1748283734421852966,-0.279
1748283734429539251,-0.266
1748283734437225536,-0.259
1748283734444911821,-0.249
1748283734452598106,-0.242
1748283734460284391,-0.23700000000000002
1748283734467970676,-0.234
1748283734475656961,-0.232
1748283734483343246,-0.229
1748283734491029531,-0.227
1748283734498715816,-0.224
1748283734506402101,-0.224
1748283734514088386,-0.224
1748283734521774671,-0.222
1748283734529460956,-0.219
1748283734537147241,-0.217
1748283734544833526,-0.214
1748283734552519811,-0.212
1748283734560206096,-0.20700000000000002
1748283734567892381,-0.202
1748283734575578666,-0.2
1748283734583264951,-0.20500000000000002
1748283734590951236,-0.212
1748283734598637521,-0.20700000000000002
1748283734606323806,-0.185
1748283734614010091,-0.163
1748283734621696376,-0.153
1748283734629382661,-0.14
1748283734637068946,-0.123
1748283734644755231,-0.128
1748283734652441516,-0.165
1748283734660127801,-0.19
1748283734667814142,-0.18
1748283734675500427,-0.17200000000000001
1748283734683186712,-0.17200000000000001
1748283734690872997,-0.165
1748283734698559282,-0.16
1748283734706245567,-0.16
1748283734713931852,-0.155
1748283734721618137,-0.155
1748283734729304422,-0.17
1748283734736990707,-0.212
1748283734744676992,-0.246
1748283734752363277,-0.051000000000000004
1748283734760049562,0.5700000000000001
1748283734767735847,1.338
1748283734775422132,1.756
1748283734783108417,1.237
1748283734790794702,-0.155
1748283734798480987,-0.8170000000000001
1748283734806167272,-0.28400000000000003
1748283734813853557,-0.027
1748283734821539842,-0.234
1748283734829226127,-0.192
1748283734836912412,-0.091
1748283734844598697,-0.135
1748283734852284982,-0.128
1748283734859971267,-0.066
1748283734867657552,-0.056
1748283734875343837,-0.044
1748283734883030122,-0.002
1748283734890716407,0.029
1748283734898402692,0.054
1748283734906088977,0.091
1748283734913775262,0.13
1748283734921461547,0.17200000000000001
1748283734929147832,0.217
1748283734936834117,0.264
1748283734944520402,0.303
1748283734952206687,0.338
1748283734959892972,0.36
1748283734967579257,0.365
1748283734975265542,0.358
1748283734982951827,0.343
1748283734990638112,0.321
1748283734998324397,0.28400000000000003
1748283735006010682,0.217
1748283735013696967,0.125
1748283735021383252,0.012
1748283735029069537,-0.10300000000000001
1748283735036755822,-0.20700000000000002
1748283735044442107,-0.28800000000000003
1748283735052128392,-0.343
1748283735059814677,-0.372
1748283735067500962,-0.382
1748283735075187247,-0.382
1748283735082873532,-0.375
1748283735090559817,-0.365
1748283735098246102,-0.353
1748283735105932387,-0.34
1748283735113618672,-0.33
1748283735121304957,-0.313
1748283735128991242,-0.296
1748283735136677527,-0.28400000000000003
1748283735144363812,-0.274
1748283735152050097,-0.261
1748283735159736382,-0.251
1748283735167422667,-0.244
1748283735175108952,-0.23700000000000002
1748283735182795237,-0.232
1748283735190481522,-0.229
1748283735198167807,-0.227
1748283735205854092,-0.224
1748283735213540377,-0.222
1748283735221226662,-0.219
1748283735228913007,-0.219,85,723
1748283735236598874,-0.217
1748283735244284741,-0.217
1748283735251970608,-0.214
1748283735259656475,-0.212
1748283735267342342,-0.209
1748283735275028209,-0.20500000000000002
1748283735282714076,-0.202
1748283735290399943,-0.2
1748283735298085810,-0.20500000000000002
1748283735305771677,-0.209
1748283735313457544,-0.202
1748283735321143411,-0.182
1748283735328829278,-0.163
1748283735336515145,-0.148
1748283735344201012,-0.135
1748283735351886879,-0.121
1748283735359572746,-0.125
1748283735367258613,-0.163
1748283735374944480,-0.187
1748283735382630347,-0.17500000000000002
1748283735390316214,-0.167
1748283735398002081,-0.167
1748283735405687948,-0.163
1748283735413373815,-0.155
1748283735421059682,-0.153
1748283735428745549,-0.15
1748283735436431416,-0.153
1748283735444117283,-0.165
1748283735451803150,-0.209
1748283735459489017,-0.246
1748283735467174884,-0.037
1748283735474860751,0.607
1748283735482546618,1.383
1748283735490232485,1.7650000000000001
1748283735497918352,1.168
1748283735505604219,-0.23700000000000002
1748283735513290086,-0.805
1748283735520975953,-0.244
1748283735528661820,-0.034
1748283735536347687,-0.23700000000000002
1748283735544033554,-0.17500000000000002
1748283735551719421,-0.08600000000000001
1748283735559405288,-0.135
1748283735567091155,-0.121
1748283735574777022,-0.064
1748283735582462889,-0.051000000000000004
1748283735590148756,-0.037
1748283735597834623,0.002
1748283735605520490,0.032
1748283735613206357,0.056
1748283735620892224,0.093
1748283735628578091,0.133
1748283735636263958,0.17500000000000002
1748283735643949825,0.222
1748283735651635692,0.266
1748283735659321559,0.306
1748283735667007426,0.34
1748283735674693293,0.36
1748283735682379160,0.363
1748283735690065027,0.355
1748283735697750894,0.343
1748283735705436761,0.318
1748283735713122628,0.276
1748283735720808495,0.209
1748283735728494362,0.116
1748283735736180229,0.002
1748283735743866096,-0.111
1748283735751551963,-0.214
1748283735759237830,-0.296
1748283735766923697,-0.34800000000000003
1748283735774609564,-0.372
1748283735782295431,-0.382
1748283735789981350,-0.38,85,725
1748283735797667635,-0.375
1748283735805353920,-0.365
1748283735813040205,-0.355
1748283735820726490,-0.34
1748283735828412775,-0.323
1748283735836099060,-0.311
1748283735843785345,-0.296
1748283735851471630,-0.28400000000000003
1748283735859157915,-0.274
1748283735866844200,-0.261
1748283735874530485,-0.251
1748283735882216770,-0.244
1748283735889903055,-0.23900000000000002
1748283735897589340,-0.234
1748283735905275625,-0.232
1748283735912961910,-0.229
1748283735920648195,-0.227
1748283735928334480,-0.224
1748283735936020765,-0.224
1748283735943707050,-0.222
1748283735951393335,-0.217
1748283735959079620,-0.217
1748283735966765905,-0.214
1748283735974452190,-0.212
1748283735982138475,-0.20700000000000002
1748283735989824760,-0.202
1748283735997511045,-0.197
1748283736005197330,-0.195
1748283736012883615,-0.2
1748283736020569900,-0.202
1748283736028256185,-0.195
1748283736035942470,-0.177
1748283736043628755,-0.158
1748283736051315040,-0.145
1748283736059001325,-0.133
1748283736066687610,-0.116
1748283736074373895,-0.123
1748283736082060180,-0.163
1748283736089746465,-0.185
1748283736097432750,-0.17200000000000001
1748283736105119035,-0.165
1748283736112805320,-0.165
1748283736120491605,-0.16
1748283736128177890,-0.155
1748283736135864175,-0.155
1748283736143550460,-0.15
1748283736151236745,-0.15
1748283736158923030,-0.167
1748283736166609315,-0.214
1748283736174295600,-0.244
1748283736181981885,-0.007
1748283736189668170,0.656
1748283736197354455,1.42
1748283736205040740,1.7610000000000001
1748283736212727025,1.081
1748283736220413310,-0.323
1748283736228099595,-0.785
1748283736235785880,-0.202
1748283736243472165,-0.049
1748283736251158450,-0.242
1748283736258844735,-0.16
1748283736266531020,-0.083
1748283736274217305,-0.135
1748283736281903590,-0.113
1748283736289589875,-0.059000000000000004
1748283736297276160,-0.054
1748283736304962445,-0.034
1748283736312648730,0.004
1748283736320335015,0.034
1748283736328021300,0.059000000000000004
1748283736335707585,0.098
1748283736343393870,0.14
1748283736351080211,0.18
1748283736358766705,0.224
1748283736366453199,0.269
1748283736374139693,0.311
1748283736381826187,0.343
1748283736389512681,0.36
1748283736397199175,0.368
1748283736404885669,0.363
1748283736412572163,0.34
1748283736420258657,0.316
1748283736427945151,0.276
1748283736435631645,0.20700000000000002
1748283736443318139,0.111
1748283736451004633,0.004
1748283736458691127,-0.108
1748283736466377621,-0.214
1748283736474064115,-0.293
1748283736481750609,-0.343
1748283736489437103,-0.368
1748283736497123597,-0.375
1748283736504810091,-0.377
1748283736512496585,-0.37
1748283736520183079,-0.355
1748283736527869573,-0.343
1748283736535556067,-0.333
1748283736543242561,-0.321
1748283736550929055,-0.303
1748283736558615549,-0.28600000000000003
1748283736566302043,-0.271
1748283736573988537,-0.261
1748283736581675031,-0.249
1748283736589361525,-0.242
1748283736597048019,-0.23700000000000002
1748283736604734513,-0.227
1748283736612421007,-0.224
1748283736620107501,-0.222
1748283736627793995,-0.217
1748283736635480489,-0.209
1748283736643166983,-0.209
1748283736650853477,-0.214
1748283736658539971,-0.209
1748283736666226465,-0.20500000000000002
1748283736673912959,-0.209
1748283736681599453,-0.20700000000000002
1748283736689285947,-0.197
1748283736696972441,-0.197
1748283736704658935,-0.195
1748283736712345429,-0.187
1748283736720031923,-0.187
1748283736727718417,-0.192
1748283736735404911,-0.185
1748283736743091405,-0.17
1748283736750777899,-0.15
1748283736758464393,-0.138
1748283736766150887,-0.128
1748283736773837381,-0.116
1748283736781523875,-0.121
1748283736789210369,-0.158
1748283736796896863,-0.177
1748283736804583357,-0.167
1748283736812269851,-0.158
1748283736819956345,-0.155
1748283736827642839,-0.153
1748283736835329333,-0.145
1748283736843015827,-0.138
1748283736850702321,-0.133
1748283736858388815,-0.138
1748283736866075309,-0.153
1748283736873761803,-0.197
1748283736881448297,-0.23700000000000002
1748283736889134791,-0.012
1748283736896821285,0.656
1748283736904507779,1.397
1748283736912194332,1.667,85,722
1748283736919879990,0.985,,714
1748283736927565648,-0.326
1748283736935251306,-0.736
1748283736942936964,-0.182
1748283736950622622,-0.034
1748283736958308280,-0.212
1748283736965993938,-0.138
1748283736973679596,-0.066
1748283736981365254,-0.111
1748283736989050912,-0.091
1748283736996736570,-0.041
1748283737004422228,-0.024
1748283737012107886,-0.004
1748283737019793544,0.027
1748283737027479202,0.061
1748283737035164860,0.091
1748283737042850518,0.123
1748283737050536176,0.16
1748283737058221834,0.20500000000000002
1748283737065907492,0.251
1748283737073593150,0.296
1748283737081278808,0.335
1748283737088964466,0.368
1748283737096650124,0.385
1748283737104335782,0.39
1748283737112021440,0.39
1748283737119707098,0.37
1748283737127392756,0.335
1748283737135078414,0.293
1748283737142764072,0.224
1748283737150449730,0.121
1748283737158135388,0.002
1748283737165821046,-0.111
1748283737173506704,-0.214
1748283737181192362,-0.291
1748283737188878020,-0.335
1748283737196563678,-0.365
1748283737204249336,-0.37
1748283737211934994,-0.358
1748283737219620652,-0.358
1748283737227306310,-0.363
1748283737234991968,-0.343
1748283737242677626,-0.321
1748283737250363284,-0.313
1748283737258048942,-0.298
1748283737265734600,-0.281
1748283737273420258,-0.274
1748283737281105916,-0.264
1748283737288791574,-0.251
1748283737296477232,-0.23900000000000002
1748283737304162890,-0.229
1748283737311848548,-0.229
1748283737319534206,-0.224
1748283737327219864,-0.214
1748283737334905522,-0.212
1748283737342591180,-0.214
1748283737350276838,-0.209
1748283737357962496,-0.20700000000000002
1748283737365648154,-0.209
1748283737373333812,-0.212
1748283737381019470,-0.20700000000000002
1748283737388705128,-0.195
1748283737396390786,-0.195
1748283737404076444,-0.20700000000000002
1748283737411762102,-0.209
1748283737419447760,-0.202
1748283737427133418,-0.195
1748283737434819076,-0.177
1748283737442504734,-0.153
1748283737450190392,-0.14
1748283737457876050,-0.133
1748283737465561708,-0.13
1748283737473247415,-0.153
1748283737480933700,-0.185
1748283737488619985,-0.185
1748283737496306270,-0.17200000000000001
1748283737503992555,-0.17200000000000001
1748283737511678840,-0.17
1748283737519365125,-0.163
1748283737527051410,-0.16
1748283737534737695,-0.163
1748283737542423980,-0.158
1748283737550110265,-0.16
1748283737557796550,-0.182
1748283737565482835,-0.23900000000000002
1748283737573169120,-0.167
1748283737580855405,0.318
1748283737588541690,1.052
1748283737596227975,1.496
1748283737603914260,1.21
1748283737611600545,0.091
1748283737619286830,-0.745
1748283737626973115,-0.432
1748283737634659400,-0.039
1748283737642345685,-0.165
1748283737650031970,-0.185
1748283737657718255,-0.079
1748283737665404540,-0.10300000000000001
1748283737673090825,-0.113
1748283737680777110,-0.056
1748283737688463395,-0.039
1748283737696149680,-0.034
1748283737703835965,0.002
1748283737711522250,0.037
1748283737719208535,0.061
1748283737726894820,0.096
1748283737734581105,0.135
1748283737742267390,0.17200000000000001
1748283737749953675,0.217
1748283737757639960,0.259
1748283737765326245,0.298
1748283737773012530,0.333
1748283737780698815,0.358
1748283737788385100,0.363
1748283737796071385,0.358
1748283737803757670,0.34
1748283737811443955,0.316
1748283737819130240,0.279
1748283737826816525,0.214
1748283737834502810,0.123
1748283737842189095,0.012
1748283737849875380,-0.098
1748283737857561665,-0.20500000000000002
1748283737865247950,-0.28800000000000003
1748283737872934235,-0.343
1748283737880620520,-0.372
1748283737888306805,-0.385
1748283737895993090,-0.387
1748283737903679375,-0.38
1748283737911365660,-0.37
1748283737919051945,-0.358
1748283737926738230,-0.34800000000000003
1748283737934424515,-0.333
1748283737942110800,-0.318
1748283737949797085,-0.303
1748283737957483370,-0.291
1748283737965169655,-0.279
1748283737972855940,-0.266
1748283737980542225,-0.256
1748283737988228510,-0.249
1748283737995914795,-0.242
1748283738003601080,-0.23900000000000002
1748283738011287365,-0.23700000000000002
1748283738018973650,-0.232
1748283738026659935,-0.229
1748283738034346276,-0.227,84,714
1748283738042032561,-0.227
1748283738049718846,-0.224
1748283738057405131,-0.222
1748283738065091416,-0.222
1748283738072777701,-0.219
1748283738080463986,-0.214
1748283738088150271,-0.214
1748283738095836556,-0.214
1748283738103522841,-0.217
1748283738111209126,-0.222
1748283738118895411,-0.219
1748283738126581696,-0.20500000000000002
1748283738134267981,-0.187
1748283738141954266,-0.17200000000000001
1748283738149640551,-0.16
1748283738157326836,-0.14
1748283738165013121,-0.13
1748283738172699406,-0.158
1748283738180385691,-0.195
1748283738188071976,-0.2
1748283738195758261,-0.185
1748283738203444546,-0.182
1748283738211130831,-0.177
1748283738218817116,-0.17
1748283738226503401,-0.167
1748283738234189686,-0.163
1748283738241875971,-0.16
1748283738249562256,-0.167
1748283738257248541,-0.20500000000000002
1748283738264934826,-0.259
1748283738272621111,-0.15
1748283738280307396,0.377
1748283738287993681,1.1480000000000001
1748283738295679966,1.6640000000000001
1748283738303366251,1.385
1748283738311052536,0.121
1748283738318738821,-0.8
1748283738326425106,-0.419
1748283738334111391,-0.017
1748283738341797676,-0.197
1748283738349483961,-0.224
1748283738357170246,-0.098
1748283738364856531,-0.125
1748283738372542816,-0.14
1748283738380229101,-0.081
1748283738387915386,-0.059000000000000004
1748283738395601671,-0.051000000000000004
1748283738403287956,-0.017
1748283738410974241,0.017
1748283738418660526,0.041
1748283738426346811,0.076
1748283738434033096,0.116
1748283738441719381,0.155
1748283738449405666,0.2
1748283738457091951,0.246
1748283738464778236,0.28600000000000003
1748283738472464521,0.321
1748283738480150806,0.343
1748283738487837091,0.35000000000000003
1748283738495523376,0.34800000000000003
1748283738503209661,0.333
1748283738510895946,0.313
1748283738518582231,0.279
1748283738526268516,0.217
1748283738533954801,0.125
1748283738541641086,0.017
1748283738549327371,-0.098
1748283738557013656,-0.20500000000000002
1748283738564699941,-0.28800000000000003
1748283738572386226,-0.34800000000000003
1748283738580072511,-0.377
1748283738587758796,-0.387
1748283738595445137,-0.39
1748283738603131074,-0.385
1748283738610817011,-0.375
1748283738618502948,-0.363
1748283738626188885,-0.34800000000000003
1748283738633874822,-0.333
1748283738641560759,-0.321
1748283738649246696,-0.306
1748283738656932633,-0.293
1748283738664618570,-0.28400000000000003
1748283738672304507,-0.271
1748283738679990444,-0.259
1748283738687676381,-0.251
1748283738695362318,-0.244
1748283738703048255,-0.23900000000000002
1748283738710734192,-0.23700000000000002
1748283738718420129,-0.232
1748283738726106066,-0.229
1748283738733792003,-0.227
1748283738741477940,-0.224
1748283738749163877,-0.224
1748283738756849814,-0.222
1748283738764535751,-0.222
1748283738772221688,-0.219
1748283738779907625,-0.214
1748283738787593562,-0.209
1748283738795279499,-0.20700000000000002
1748283738802965436,-0.209
1748283738810651373,-0.212
1748283738818337310,-0.212
1748283738826023247,-0.2
1748283738833709184,-0.177
1748283738841395121,-0.163
1748283738849081058,-0.155
1748283738856766995,-0.138
1748283738864452932,-0.121
1748283738872138869,-0.14300000000000002
1748283738879824806,-0.182
1748283738887510743,-0.187
1748283738895196680,-0.17500000000000002
1748283738902882617,-0.17200000000000001
1748283738910568554,-0.167
1748283738918254491,-0.163
1748283738925940428,-0.16
1748283738933626365,-0.16
1748283738941312302,-0.153
1748283738948998239,-0.155
1748283738956684176,-0.18
1748283738964370113,-0.242
1748283738972056050,-0.222
1748283738979741987,0.158
1748283738987427924,0.913
1748283738995113861,1.617
1748283739002799798,1.711
1748283739010485735,0.684
1748283739018171672,-0.629
1748283739025857609,-0.649
1748283739033543546,-0.07100000000000001
1748283739041229483,-0.121
1748283739048915420,-0.256
1748283739056601357,-0.128
1748283739064287294,-0.106
1748283739071973231,-0.153
1748283739079659168,-0.10300000000000001
1748283739087345105,-0.064
1748283739095031042,-0.061
1748283739102716979,-0.032
1748283739110402916,0.009000000000000001
1748283739118088853,0.032
1748283739125774790,0.064
1748283739133460727,0.106
1748283739141146664,0.145
1748283739148832601,0.185
1748283739156518571,0.234,84,707
1748283739164204787,0.279,,687
1748283739171891003,0.316
1748283739179577219,0.34500000000000003
1748283739187263435,0.36
1748283739194949651,0.36
1748283739202635867,0.353
1748283739210322083,0.335
1748283739218008299,0.306
1748283739225694515,0.254
1748283739233380731,0.17500000000000002
1748283739241066947,0.066
1748283739248753163,-0.051000000000000004
1748283739256439379,-0.163
1748283739264125595,-0.261
1748283739271811811,-0.33
1748283739279498027,-0.368
1748283739287184243,-0.385
1748283739294870459,-0.39
1748283739302556675,-0.387
1748283739310242891,-0.375
1748283739317929107,-0.365
1748283739325615323,-0.353
1748283739333301539,-0.338
1748283739340987755,-0.321
1748283739348673971,-0.308
1748283739356360187,-0.298
1748283739364046403,-0.28400000000000003
1748283739371732619,-0.271
1748283739379418835,-0.261
1748283739387105051,-0.249
1748283739394791267,-0.242
1748283739402477483,-0.23900000000000002
1748283739410163699,-0.234
1748283739417849915,-0.229
1748283739425536131,-0.227
1748283739433222347,-0.227
1748283739440908563,-0.224
1748283739448594779,-0.222
1748283739456280995,-0.219
1748283739463967211,-0.217
1748283739471653427,-0.214
1748283739479339643,-0.212
1748283739487025859,-0.212
1748283739494712075,-0.20700000000000002
1748283739502398291,-0.202
1748283739510084507,-0.202
1748283739517770723,-0.209
1748283739525456939,-0.212
1748283739533143155,-0.197
1748283739540829371,-0.17500000000000002
1748283739548515587,-0.158
1748283739556201803,-0.145
1748283739563888019,-0.13
1748283739571574235,-0.11800000000000001
1748283739579260451,-0.138
1748283739586946667,-0.177
1748283739594632883,-0.187
1748283739602319099,-0.17
1748283739610005315,-0.167
1748283739617691531,-0.165
1748283739625377747,-0.158
1748283739633063963,-0.155
1748283739640750179,-0.155
1748283739648436395,-0.15
1748283739656122611,-0.155
1748283739663808827,-0.177
1748283739671495043,-0.234
1748283739679181259,-0.227
1748283739686867475,0.13
1748283739694553691,0.869
1748283739702239907,1.598
1748283739709926123,1.7610000000000001
1748283739717612345,0.79
1748283739725298630,-0.577
1748283739732984915,-0.681
1748283739740671200,-0.083
1748283739748357485,-0.106
1748283739756043770,-0.254
1748283739763730055,-0.128
1748283739771416340,-0.098
1748283739779102625,-0.15
1748283739786788910,-0.10300000000000001
1748283739794475195,-0.056
1748283739802161480,-0.059000000000000004
1748283739809847765,-0.029
1748283739817534050,0.012
1748283739825220335,0.034
1748283739832906620,0.066
1748283739840592905,0.111
1748283739848279190,0.15
1748283739855965475,0.192
1748283739863651760,0.23900000000000002
1748283739871338045,0.28600000000000003
1748283739879024330,0.326
1748283739886710615,0.355
1748283739894396900,0.37
1748283739902083185,0.372
1748283739909769470,0.365
1748283739917455755,0.35000000000000003
1748283739925142040,0.323
1748283739932828325,0.274
1748283739940514610,0.192
1748283739948200895,0.08600000000000001
1748283739955887180,-0.029
1748283739963573465,-0.145
1748283739971259750,-0.244
1748283739978946035,-0.318
1748283739986632320,-0.358
1748283739994318605,-0.377
1748283740002004890,-0.38
1748283740009691175,-0.377
1748283740017377460,-0.37
1748283740025063745,-0.36
1748283740032750030,-0.343
1748283740040436315,-0.326
1748283740048122600,-0.316
1748283740055808885,-0.306
1748283740063495170,-0.291
1748283740071181455,-0.274
1748283740078867740,-0.264
1748283740086554025,-0.254
1748283740094240310,-0.244
1748283740101926595,-0.234
1748283740109612880,-0.229
1748283740117299165,-0.224
1748283740124985450,-0.222
1748283740132671735,-0.222
1748283740140358020,-0.219
1748283740148044305,-0.217
1748283740155730590,-0.214
1748283740163416875,-0.214
1748283740171103160,-0.20700000000000002
1748283740178789445,-0.20700000000000002
1748283740186475730,-0.20700000000000002
1748283740194162015,-0.202
1748283740201848300,-0.2
1748283740209534585,-0.197
1748283740217220870,-0.195
1748283740224907155,-0.2
1748283740232593440,-0.202
1748283740240279725,-0.195
1748283740247966010,-0.18
1748283740255652295,-0.158
1748283740263338580,-0.14300000000000002
1748283740271024865,-0.133
1748283740278711206,-0.113,85,699
1748283740286397352,-0.111
1748283740294083498,-0.148
1748283740301769644,-0.18
1748283740309455790,-0.17200000000000001
1748283740317141936,-0.158
1748283740324828082,-0.158
1748283740332514228,-0.153
1748283740340200374,-0.145
1748283740347886520,-0.145
1748283740355572666,-0.14300000000000002
1748283740363258812,-0.14
1748283740370944958,-0.155
1748283740378631104,-0.195
1748283740386317250,-0.23900000000000002
1748283740394003396,-0.108
1748283740401689542,0.444
1748283740409375688,1.222
1748283740417061834,1.736
1748283740424747980,1.41
1748283740432434126,0.088
1748283740440120272,-0.795
1748283740447806418,-0.375
1748283740455492564,-0.004
1748283740463178710,-0.195
1748283740470864856,-0.2
1748283740478551002,-0.076
1748283740486237148,-0.108
1748283740493923294,-0.121
1748283740501609440,-0.066
1748283740509295586,-0.046
1748283740516981732,-0.032
1748283740524667878,0.007
1748283740532354024,0.037
1748283740540040170,0.059000000000000004
1748283740547726316,0.101
1748283740555412462,0.145
1748283740563098608,0.182
1748283740570784754,0.224
1748283740578470900,0.271
1748283740586157046,0.318
1748283740593843192,0.358
1748283740601529338,0.382
1748283740609215484,0.39
1748283740616901630,0.387
1748283740624587776,0.377
1748283740632273922,0.355
1748283740639960068,0.316
1748283740647646214,0.249
1748283740655332360,0.158
1748283740663018506,0.039
1748283740670704652,-0.081
1748283740678390798,-0.19
1748283740686076944,-0.276
1748283740693763090,-0.335
1748283740701449236,-0.363
1748283740709135382,-0.372
1748283740716821528,-0.375
1748283740724507674,-0.372
1748283740732193820,-0.365
1748283740739879966,-0.35000000000000003
1748283740747566112,-0.335
1748283740755252258,-0.326
1748283740762938404,-0.311
1748283740770624550,-0.293
1748283740778310696,-0.28600000000000003
1748283740785996842,-0.274
1748283740793682988,-0.251
1748283740801369134,-0.23900000000000002
1748283740809055280,-0.242
1748283740816741426,-0.23700000000000002
1748283740824427572,-0.227
1748283740832113718,-0.224
1748283740839799897,-0.219,85,702
1748283740847485904,-0.20700000000000002
1748283740855171911,-0.20700000000000002
1748283740862857918,-0.217
1748283740870543925,-0.214
1748283740878229932,-0.20500000000000002
1748283740885915939,-0.20500000000000002
1748283740893601946,-0.209
1748283740901287953,-0.202
1748283740908973960,-0.192
1748283740916659967,-0.195
1748283740924345974,-0.20500000000000002
1748283740932031981,-0.20500000000000002
1748283740939717988,-0.195
1748283740947403995,-0.187
1748283740955090002,-0.17
1748283740962776009,-0.15
1748283740970462016,-0.14
1748283740978148023,-0.125
1748283740985834030,-0.121
1748283740993520037,-0.15
1748283741001206044,-0.18
1748283741008892051,-0.18
1748283741016578058,-0.17
1748283741024264065,-0.165
1748283741031950072,-0.163
1748283741039636079,-0.16
1748283741047322086,-0.153
1748283741055008093,-0.145
1748283741062694100,-0.145
1748283741070380107,-0.153
1748283741078066114,-0.17
1748283741085752121,-0.219
1748283741093438128,-0.192
1748283741101124135,0.2
1748283741108810142,0.921
1748283741116496149,1.472
1748283741124182156,1.368
1748283741131868163,0.375
1748283741139554170,-0.652
1748283741147240177,-0.535
1748283741154926184,-0.046
1748283741162612191,-0.111
1748283741170298198,-0.192
1748283741177984205,-0.079
1748283741185670212,-0.07100000000000001
1748283741193356219,-0.10300000000000001
1748283741201042226,-0.059000000000000004
1748283741208728233,-0.029
1748283741216414240,-0.024
1748283741224100247,0.009000000000000001
1748283741231786254,0.046
1748283741239472261,0.069
1748283741247158268,0.098
1748283741254844275,0.14300000000000002
1748283741262530282,0.182
1748283741270216289,0.222
1748283741277902296,0.269
1748283741285588303,0.318
1748283741293274310,0.355
1748283741300960317,0.377
1748283741308646324,0.395
1748283741316332331,0.39
1748283741324018338,0.372
1748283741331704345,0.353
1748283741339390352,0.321
1748283741347076359,0.264
1748283741354762366,0.17500000000000002
1748283741362448373,0.061
1748283741370134380,-0.059000000000000004
1748283741377820387,-0.17200000000000001
1748283741385506394,-0.266
1748283741393192401,-0.333
1748283741400878410,-0.368
1748283741408564695,-0.38
1748283741416250980,-0.385
1748283741423937265,-0.382
1748283741431623550,-0.372
1748283741439309835,-0.363
1748283741446996120,-0.35000000000000003
1748283741454682405,-0.338
1748283741462368690,-0.326
1748283741470054975,-0.313
1748283741477741260,-0.301
1748283741485427545,-0.28800000000000003
1748283741493113830,-0.276
1748283741500800115,-0.266
1748283741508486400,-0.256
1748283741516172685,-0.246
1748283741523858970,-0.242
1748283741531545255,-0.23900000000000002
1748283741539231540,-0.234
1748283741546917825,-0.232
1748283741554604110,-0.229
1748283741562290395,-0.224
1748283741569976680,-0.224
1748283741577662965,-0.224
1748283741585349250,-0.224
1748283741593035535,-0.222
1748283741600721820,-0.217
1748283741608408105,-0.217
1748283741616094390,-0.214
1748283741623780675,-0.209
1748283741631466960,-0.209
1748283741639153245,-0.214
1748283741646839530,-0.217
1748283741654525815,-0.209
1748283741662212100,-0.195
1748283741669898385,-0.17500000000000002
1748283741677584670,-0.163
1748283741685270955,-0.15
1748283741692957240,-0.133
1748283741700643525,-0.138
1748283741708329810,-0.177
1748283741716016095,-0.202
1748283741723702380,-0.187
1748283741731388665,-0.18
1748283741739074950,-0.18
1748283741746761235,-0.17200000000000001
1748283741754447520,-0.167
1748283741762133805,-0.167
1748283741769820090,-0.165
1748283741777506375,-0.163
1748283741785192660,-0.17200000000000001
1748283741792878945,-0.212
1748283741800565230,-0.256
1748283741808251515,-0.088
1748283741815937800,0.511
1748283741823624085,1.274
1748283741831310370,1.711
1748283741838996655,1.2690000000000001
1748283741846682940,-0.079
1748283741854369225,-0.8200000000000001
1748283741862055510,-0.328
1748283741869741795,-0.022
1748283741877428080,-0.227
1748283741885114365,-0.20700000000000002
1748283741892800650,-0.096
1748283741900486935,-0.135
1748283741908173220,-0.135
1748283741915859505,-0.074
1748283741923545790,-0.061
1748283741931232075,-0.051000000000000004
1748283741938918360,-0.012
1748283741946604645,0.022
1748283741954290930,0.046
1748283741961977271,0.081,85,708
1748283741969663556,0.125,,711
1748283741977349841,0.165
1748283741985036126,0.20700000000000002
1748283741992722411,0.256
1748283742000408696,0.301
1748283742008094981,0.333
1748283742015781266,0.355
1748283742023467551,0.365
1748283742031153836,0.36
1748283742038840121,0.34800000000000003
1748283742046526406,0.326
1748283742054212691,0.291
1748283742061898976,0.227
1748283742069585261,0.128
1748283742077271546,0.012
1748283742084957831,-0.101
1748283742092644116,-0.20700000000000002
1748283742100330401,-0.293
1748283742108016686,-0.34800000000000003
1748283742115702971,-0.372
1748283742123389256,-0.385
1748283742131075541,-0.385
1748283742138761826,-0.377
1748283742146448111,-0.365
1748283742154134396,-0.353
1748283742161820681,-0.34
1748283742169506966,-0.328
1748283742177193251,-0.313
1748283742184879536,-0.301
1748283742192565821,-0.28600000000000003
1748283742200252106,-0.274
1748283742207938391,-0.261
1748283742215624676,-0.251
1748283742223310961,-0.242
1748283742230997246,-0.234
1748283742238683531,-0.229
1748283742246369816,-0.227
1748283742254056101,-0.224
1748283742261742386,-0.222
1748283742269428671,-0.219
1748283742277114956,-0.214
1748283742284801241,-0.212
1748283742292487526,-0.209
1748283742300173811,-0.209
1748283742307860096,-0.20700000000000002
1748283742315546381,-0.20500000000000002
1748283742323232666,-0.202
1748283742330918951,-0.197
1748283742338605236,-0.192
1748283742346291521,-0.187
1748283742353977806,-0.185
1748283742361664091,-0.187
1748283742369350376,-0.19
1748283742377036661,-0.187
1748283742384722946,-0.17500000000000002
1748283742392409231,-0.155
1748283742400095516,-0.135
1748283742407781801,-0.128
1748283742415468086,-0.116
1748283742423154371,-0.101
1748283742430840656,-0.121
1748283742438526941,-0.16
1748283742446213226,-0.17
1748283742453899511,-0.155
1748283742461585796,-0.15
1748283742469272081,-0.15
1748283742476958366,-0.145
1748283742484644651,-0.14
1748283742492330936,-0.138
1748283742500017221,-0.135
1748283742507703506,-0.138
1748283742515389791,-0.16
1748283742523076136,-0.212
1748283742530762003,-0.217
1748283742538447870,0.088
1748283742546133737,0.802
1748283742553819604,1.568
1748283742561505471,1.867
1748283742569191338,1.032
1748283742576877205,-0.442
1748283742584563072,-0.745
1748283742592248939,-0.125
1748283742599934806,-0.074
1748283742607620673,-0.261
1748283742615306540,-0.148
1748283742622992407,-0.093
1748283742630678274,-0.148
1748283742638364141,-0.111
1748283742646050008,-0.059000000000000004
1748283742653735875,-0.059000000000000004
1748283742661421742,-0.034
1748283742669107609,0.009000000000000001
1748283742676793476,0.037
1748283742684479343,0.066
1748283742692165210,0.106
1748283742699851077,0.145
1748283742707536944,0.187
1748283742715222811,0.23700000000000002
1748283742722908678,0.281
1748283742730594545,0.323
1748283742738280412,0.358
1748283742745966279,0.377
1748283742753652146,0.385
1748283742761338013,0.382
1748283742769023880,0.368
1748283742776709747,0.343
1748283742784395614,0.301
1748283742792081481,0.227
1748283742799767348,0.123
1748283742807453215,0.009000000000000001
1748283742815139082,-0.108
1748283742822824949,-0.217
1748283742830510816,-0.293
1748283742838196683,-0.34
1748283742845882550,-0.368
1748283742853568417,-0.377
1748283742861254284,-0.377
1748283742868940151,-0.37
1748283742876626018,-0.358
1748283742884311885,-0.34500000000000003
1748283742891997752,-0.33
1748283742899683619,-0.316
1748283742907369486,-0.301
1748283742915055353,-0.28800000000000003
1748283742922741220,-0.274
1748283742930427087,-0.264
1748283742938112954,-0.251
1748283742945798821,-0.242
1748283742953484688,-0.234
1748283742961170555,-0.227
1748283742968856422,-0.222
1748283742976542289,-0.219
1748283742984228156,-0.217
1748283742991914023,-0.214
1748283742999599890,-0.214
1748283743007285757,-0.209
1748283743014971624,-0.20700000000000002
1748283743022657491,-0.20700000000000002
1748283743030343358,-0.20500000000000002
1748283743038029225,-0.202
1748283743045715092,-0.197
1748283743053400959,-0.195
1748283743061086826,-0.192
1748283743068772693,-0.187
1748283743076458560,-0.182
1748283743084144479,-0.182,85,701
1748283743091830764,-0.185
1748283743099517049,-0.187
1748283743107203334,-0.185
1748283743114889619,-0.17
1748283743122575904,-0.145
1748283743130262189,-0.13
1748283743137948474,-0.121
1748283743145634759,-0.10300000000000001
1748283743153321044,-0.098
1748283743161007329,-0.13
1748283743168693614,-0.163
1748283743176379899,-0.163
1748283743184066184,-0.153
1748283743191752469,-0.153
1748283743199438754,-0.148
1748283743207125039,-0.14
1748283743214811324,-0.138
1748283743222497609,-0.133
1748283743230183894,-0.13
1748283743237870179,-0.135
1748283743245556464,-0.163
1748283743253242749,-0.224
1748283743260929034,-0.20500000000000002
1748283743268615319,0.17200000000000001
1748283743276301604,0.923
1748283743283987889,1.6540000000000001
1748283743291674174,1.812
1748283743299360459,0.802
1748283743307046744,-0.582
1748283743314733029,-0.661
1748283743322419314,-0.066
1748283743330105599,-0.101
1748283743337791884,-0.246
1748283743345478169,-0.11800000000000001
1748283743353164454,-0.091
1748283743360850739,-0.14
1748283743368537024,-0.091
1748283743376223309,-0.049
1748283743383909594,-0.046
1748283743391595879,-0.019
1748283743399282164,0.022
1748283743406968449,0.046
1748283743414654734,0.079
1748283743422341019,0.11800000000000001
1748283743430027304,0.163
1748283743437713589,0.20700000000000002
1748283743445399874,0.249
1748283743453086159,0.293
1748283743460772444,0.335
1748283743468458729,0.365
1748283743476145014,0.385
1748283743483831299,0.395
1748283743491517584,0.385
1748283743499203869,0.368
1748283743506890154,0.34
1748283743514576439,0.293
1748283743522262724,0.217
1748283743529949009,0.116
1748283743537635294,0.0
1748283743545321579,-0.121
1748283743553007864,-0.224
1748283743560694149,-0.298
1748283743568380434,-0.34500000000000003
1748283743576066719,-0.365
1748283743583753004,-0.37
1748283743591439289,-0.368
1748283743599125574,-0.358
1748283743606811859,-0.34800000000000003
1748283743614498144,-0.338
1748283743622184429,-0.321
1748283743629870714,-0.303
1748283743637556999,-0.293
1748283743645243340,-0.28600000000000003
1748283743652929207,-0.266
1748283743660615074,-0.251
1748283743668300941,-0.246
1748283743675986808,-0.23700000000000002
1748283743683672675,-0.224
1748283743691358542,-0.222
1748283743699044409,-0.217
1748283743706730276,-0.209
1748283743714416143,-0.20700000000000002
1748283743722102010,-0.209
1748283743729787877,-0.20700000000000002
1748283743737473744,-0.20500000000000002
1748283743745159611,-0.20700000000000002
1748283743752845478,-0.20500000000000002
1748283743760531345,-0.197
1748283743768217212,-0.192
1748283743775903079,-0.195
1748283743783588946,-0.195
1748283743791274813,-0.187
1748283743798960680,-0.17500000000000002
1748283743806646547,-0.17200000000000001
1748283743814332414,-0.18
1748283743822018281,-0.182
1748283743829704148,-0.17500000000000002
1748283743837390015,-0.165
1748283743845075882,-0.148
1748283743852761749,-0.133
1748283743860447616,-0.121
1748283743868133483,-0.101
1748283743875819350,-0.098
1748283743883505217,-0.135
1748283743891191084,-0.165
1748283743898876951,-0.155
1748283743906562818,-0.145
1748283743914248685,-0.148
1748283743921934552,-0.138
1748283743929620419,-0.133
1748283743937306286,-0.135
1748283743944992153,-0.13
1748283743952678020,-0.123
1748283743960363887,-0.138
1748283743968049754,-0.167
1748283743975735621,-0.209
1748283743983421488,-0.15
1748283743991107355,0.306
1748283743998793222,1.069
1748283744006479089,1.622
1748283744014164956,1.469
1748283744021850823,0.35000000000000003
1748283744029536690,-0.6940000000000001
1748283744037222557,-0.489
1748283744044908424,-0.017
1748283744052594291,-0.138
1748283744060280158,-0.202
1748283744067966025,-0.076
1748283744075651892,-0.083
1748283744083337759,-0.111
1748283744091023626,-0.056
1748283744098709493,-0.027
1748283744106395360,-0.024
1748283744114081227,0.009000000000000001
1748283744121767094,0.049
1748283744129452961,0.066
1748283744137138828,0.096
1748283744144824695,0.14300000000000002
1748283744152510562,0.185
1748283744160196429,0.219
1748283744167882296,0.269
1748283744175568163,0.321
1748283744183254030,0.358
1748283744190939897,0.382
1748283744198625764,0.4
1748283744206311683,0.395,85,712
1748283744213997968,0.382,,728
1748283744221684253,0.365
1748283744229370538,0.33
1748283744237056823,0.271
1748283744244743108,0.19
1748283744252429393,0.079
1748283744260115678,-0.044
1748283744267801963,-0.155
1748283744275488248,-0.251
1748283744283174533,-0.316
1748283744290860818,-0.355
1748283744298547103,-0.375
1748283744306233388,-0.377
1748283744313919673,-0.372
1748283744321605958,-0.365
1748283744329292243,-0.358
1748283744336978528,-0.34800000000000003
1748283744344664813,-0.328
1748283744352351098,-0.313
1748283744360037383,-0.306
1748283744367723668,-0.293
1748283744375409953,-0.274
1748283744383096238,-0.264
1748283744390782523,-0.259
1748283744398468808,-0.249
1748283744406155093,-0.23700000000000002
1748283744413841378,-0.234
1748283744421527663,-0.232
1748283744429213948,-0.224
1748283744436900233,-0.217
1748283744444586518,-0.217
1748283744452272803,-0.217
1748283744459959088,-0.212
1748283744467645373,-0.212
1748283744475331658,-0.212
1748283744483017943,-0.209
1748283744490704228,-0.20700000000000002
1748283744498390513,-0.20500000000000002
1748283744506076798,-0.20500000000000002
1748283744513763083,-0.20500000000000002
1748283744521449368,-0.209
1748283744529135653,-0.212
1748283744536821938,-0.2
1748283744544508223,-0.177
1748283744552194508,-0.163
1748283744559880793,-0.153
1748283744567567078,-0.138
1748283744575253363,-0.128
1748283744582939648,-0.148
1748283744590625933,-0.185
1748283744598312218,-0.195
1748283744605998503,-0.18
1748283744613684788,-0.17500000000000002
1748283744621371073,-0.17200000000000001
1748283744629057358,-0.167
1748283744636743643,-0.165
1748283744644429928,-0.165
1748283744652116213,-0.16
1748283744659802498,-0.163
1748283744667488783,-0.18
1748283744675175068,-0.229
1748283744682861353,-0.244
1748283744690547638,0.046
1748283744698233923,0.75
1748283744705920208,1.459
1748283744713606493,1.649
1748283744721292778,0.839
1748283744728979063,-0.481
1748283744736665348,-0.738
1748283744744351633,-0.155
1748283744752037918,-0.08600000000000001
1748283744759724203,-0.251
1748283744767410544,-0.15
1748283744775096829,-0.096
1748283744782783114,-0.14300000000000002
1748283744790469399,-0.111
1748283744798155684,-0.064
1748283744805841969,-0.061
1748283744813528254,-0.039
1748283744821214539,0.0
1748283744828900824,0.027
1748283744836587109,0.056
1748283744844273394,0.093
1748283744851959679,0.133
1748283744859645964,0.17500000000000002
1748283744867332249,0.224
1748283744875018534,0.269
1748283744882704819,0.308
1748283744890391104,0.34
1748283744898077389,0.358
1748283744905763674,0.36
1748283744913449959,0.35000000000000003
1748283744921136244,0.333
1748283744928822529,0.308
1748283744936508814,0.264
1748283744944195099,0.187
1748283744951881384,0.083
1748283744959567669,-0.029
1748283744967253954,-0.145
1748283744974940239,-0.244
1748283744982626524,-0.318
1748283744990312809,-0.365
1748283744997999094,-0.387
1748283745005685379,-0.39
1748283745013371664,-0.387
1748283745021057949,-0.38
1748283745028744234,-0.37
1748283745036430519,-0.358
1748283745044116804,-0.34500000000000003
1748283745051803089,-0.328
1748283745059489374,-0.313
1748283745067175659,-0.301
1748283745074861944,-0.28800000000000003
1748283745082548229,-0.274
1748283745090234514,-0.264
1748283745097920799,-0.254
1748283745105607084,-0.244
