time,ecg,hr,rr,marker
1748284965878078698,-0.10400000000000001,84,678
1748284965885765471,-0.099,,680
1748284965893452244,-0.094
1748284965901139017,-0.114
1748284965908825790,-0.128
1748284965916512563,-0.126
1748284965924199336,-0.126
1748284965931886109,-0.126
1748284965939572882,-0.11900000000000001
1748284965947259655,-0.116
1748284965954946428,-0.133
1748284965962633201,-0.16
1748284965970319974,-0.009000000000000001
1748284965978006747,0.5710000000000001
1748284965985693520,1.185
1748284965993380293,0.917
1748284966001067066,-0.182
1748284966008753839,-0.8150000000000001
1748284966016440612,-0.525
1748284966024127385,-0.272
1748284966031814158,-0.316
1748284966039500931,-0.197
1748284966047187704,-0.068
1748284966054874477,-0.10200000000000001
1748284966062561250,-0.107
1748284966070248023,-0.058
1748284966077934796,-0.053
1748284966085621569,-0.058
1748284966093308342,-0.041
1748284966100995115,-0.034
1748284966108681888,-0.031
1748284966116368661,-0.019
1748284966124055434,-0.009000000000000001
1748284966131742207,-0.004
1748284966139428980,0.002
1748284966147115753,0.012
1748284966154802526,0.019
1748284966162489299,0.024
1748284966170176072,0.034
1748284966177862845,0.041
1748284966185549618,0.048
1748284966193236391,0.055
1748284966200923164,0.065
1748284966208609937,0.07200000000000001
1748284966216296710,0.077
1748284966223983483,0.085
1748284966231670256,0.09
1748284966239357029,0.092
1748284966247043802,0.094
1748284966254730575,0.099
1748284966262417348,0.109
1748284966270104121,0.114
1748284966277790894,0.099
1748284966285477667,0.068
1748284966293164440,0.029
1748284966300851213,-0.012
1748284966308537986,-0.053
1748284966316224759,-0.08700000000000001
1748284966323911532,-0.114
1748284966331598305,-0.128
1748284966339285078,-0.138
1748284966346971851,-0.145
1748284966354658624,-0.145
1748284966362345397,-0.14300000000000002
1748284966370032170,-0.14100000000000001
1748284966377718943,-0.14100000000000001
1748284966385405716,-0.14100000000000001
1748284966393092489,-0.14100000000000001
1748284966400779262,-0.14300000000000002
1748284966408466035,-0.14300000000000002
1748284966416152808,-0.145
1748284966423839581,-0.148
1748284966431526354,-0.148
1748284966439213164,-0.148
1748284966446899867,-0.148
1748284966454586570,-0.148
1748284966462273273,-0.145
1748284966469959976,-0.14300000000000002
1748284966477646679,-0.14300000000000002
1748284966485333382,-0.14100000000000001
1748284966493020085,-0.138
1748284966500706788,-0.136
1748284966508393491,-0.138
1748284966516080194,-0.14300000000000002
1748284966523766897,-0.15
1748284966531453600,-0.15
1748284966539140303,-0.14100000000000001
1748284966546827006,-0.121
1748284966554513709,-0.099
1748284966562200412,-0.094
1748284966569887115,-0.09
1748284966577573818,-0.08
1748284966585260521,-0.094
1748284966592947224,-0.121
1748284966600633927,-0.121
1748284966608320630,-0.114
1748284966616007333,-0.114
1748284966623694036,-0.107
1748284966631380739,-0.10400000000000001
1748284966639067442,-0.124
1748284966646754145,-0.177
1748284966654440848,-0.128
1748284966662127551,0.326
1748284966669814254,1.063
1748284966677500957,1.233
1748284966685187660,0.364
1748284966692874363,-0.603
1748284966700561066,-0.63
1748284966708247769,-0.274
1748284966715934472,-0.262
1748284966723621175,-0.245
1748284966731307878,-0.107
1748284966738994581,-0.099
1748284966746681284,-0.131
1748284966754367987,-0.08700000000000001
1748284966762054690,-0.065
1748284966769741393,-0.075
1748284966777428096,-0.063
1748284966785114799,-0.048
1748284966792801502,-0.046
1748284966800488205,-0.036000000000000004
1748284966808174908,-0.026000000000000002
1748284966815861611,-0.019
1748284966823548314,-0.012
1748284966831235017,-0.002
1748284966838921720,0.007
1748284966846608423,0.014
1748284966854295126,0.024
1748284966861981829,0.031
1748284966869668532,0.038
1748284966877355235,0.046
1748284966885041938,0.055
1748284966892728641,0.06
1748284966900415344,0.065
1748284966908102047,0.07
1748284966915788750,0.075
1748284966923475453,0.077
1748284966931162156,0.077
1748284966938848859,0.08
1748284966946535562,0.08700000000000001
1748284966954222265,0.092
1748284966961908968,0.092
1748284966969595671,0.07200000000000001
1748284966977282374,0.041
1748284966984969077,0.004
1748284966992655780,-0.031
1748284967000342543,-0.068,84,682
1748284967008029246,-0.094
1748284967015715949,-0.111
1748284967023402652,-0.124
1748284967031089355,-0.133
1748284967038776058,-0.133
1748284967046462761,-0.133
1748284967054149464,-0.136
1748284967061836167,-0.138
1748284967069522870,-0.138
1748284967077209573,-0.138
1748284967084896276,-0.14100000000000001
1748284967092582979,-0.138
1748284967100269682,-0.138
1748284967107956385,-0.14100000000000001
1748284967115643088,-0.14300000000000002
1748284967123329791,-0.14100000000000001
1748284967131016494,-0.14100000000000001
1748284967138703197,-0.14300000000000002
1748284967146389900,-0.14300000000000002
1748284967154076603,-0.14100000000000001
1748284967161763306,-0.138
1748284967169450009,-0.136
1748284967177136712,-0.133
1748284967184823415,-0.131
1748284967192510118,-0.128
1748284967200196821,-0.128
1748284967207883524,-0.133
1748284967215570227,-0.14100000000000001
1748284967223256930,-0.14300000000000002
1748284967230943633,-0.136
1748284967238630336,-0.116
1748284967246317039,-0.092
1748284967254003742,-0.085
1748284967261690445,-0.08
1748284967269377148,-0.07
1748284967277063851,-0.08
1748284967284750554,-0.10400000000000001
1748284967292437257,-0.107
1748284967300123960,-0.10200000000000001
1748284967307810663,-0.10400000000000001
1748284967315497366,-0.10200000000000001
1748284967323184069,-0.094
1748284967330870772,-0.10400000000000001
1748284967338557475,-0.145
1748284967346244178,-0.145
1748284967353930881,0.189
1748284967361617584,0.91
1748284967369304287,1.2750000000000001
1748284967376990990,0.608
1748284967384677693,-0.445
1748284967392364396,-0.6980000000000001
1748284967400051099,-0.34
1748284967407737802,-0.23800000000000002
1748284967415424505,-0.257
1748284967423111208,-0.124
1748284967430797911,-0.077
1748284967438484614,-0.116
1748284967446171317,-0.09
1748284967453858020,-0.058
1748284967461544723,-0.063
1748284967469231426,-0.058
1748284967476918129,-0.041
1748284967484604832,-0.034
1748284967492291535,-0.029
1748284967499978238,-0.017
1748284967507664941,-0.009000000000000001
1748284967515351644,-0.002
1748284967523038347,0.007
1748284967530725050,0.014
1748284967538411753,0.026000000000000002
1748284967546098456,0.034
1748284967553785159,0.043000000000000003
1748284967561471922,0.053
1748284967569158625,0.058
1748284967576845328,0.063
1748284967584532031,0.07200000000000001
1748284967592218734,0.08
1748284967599905437,0.082
1748284967607592140,0.08700000000000001
1748284967615278843,0.09
1748284967622965546,0.08700000000000001
1748284967630652249,0.08700000000000001
1748284967638338952,0.094
1748284967646025655,0.10200000000000001
1748284967653712358,0.097
1748284967661399061,0.077
1748284967669085764,0.051000000000000004
1748284967676772467,0.009000000000000001
1748284967684459170,-0.031
1748284967692145873,-0.06
1748284967699832576,-0.08700000000000001
1748284967707519279,-0.116
1748284967715205982,-0.133
1748284967722892685,-0.138
1748284967730579388,-0.14300000000000002
1748284967738266091,-0.145
1748284967745952794,-0.14300000000000002
1748284967753639497,-0.145
1748284967761326200,-0.145
1748284967769012903,-0.14100000000000001
1748284967776699606,-0.145
1748284967784386309,-0.15
1748284967792073012,-0.148
1748284967799759715,-0.148
1748284967807446418,-0.15
1748284967815133121,-0.15
1748284967822819824,-0.15
1748284967830506527,-0.153
1748284967838193230,-0.153
1748284967845879933,-0.148
1748284967853566636,-0.14300000000000002
1748284967861253339,-0.14300000000000002
1748284967868940042,-0.14300000000000002
1748284967876626745,-0.14300000000000002
1748284967884313448,-0.14300000000000002
1748284967892000151,-0.136
1748284967899686854,-0.131
1748284967907373557,-0.133
1748284967915060260,-0.133
1748284967922746963,-0.136
1748284967930433666,-0.14100000000000001
1748284967938120369,-0.14100000000000001
1748284967945807072,-0.136
1748284967953493775,-0.116
1748284967961180478,-0.08700000000000001
1748284967968867181,-0.08
1748284967976553884,-0.085
1748284967984240587,-0.08
1748284967991927290,-0.08700000000000001
1748284967999613993,-0.10200000000000001
1748284968007300696,-0.109
1748284968014987399,-0.109
1748284968022674102,-0.109
1748284968030360805,-0.10200000000000001
1748284968038047508,-0.094
1748284968045734211,-0.10400000000000001
1748284968053420914,-0.14100000000000001
1748284968061107617,-0.10200000000000001
1748284968068794320,0.311
1748284968076481023,1.0170000000000001
1748284968084167726,1.163
1748284968091854429,0.262
1748284968099541132,-0.6880000000000001
1748284968107227835,-0.676
1748284968114914538,-0.313
1748284968122601301,-0.291,85,676
1748284968130288004,-0.255,,688
1748284968137974707,-0.092
1748284968145661410,-0.07
1748284968153348113,-0.10200000000000001
1748284968161034816,-0.065
1748284968168721519,-0.048
1748284968176408222,-0.051000000000000004
1748284968184094925,-0.034
1748284968191781628,-0.024
1748284968199468331,-0.024
1748284968207155034,-0.009000000000000001
1748284968214841737,0.0
1748284968222528440,0.0
1748284968230215143,0.007
1748284968237901846,0.021
1748284968245588549,0.029
1748284968253275252,0.034
1748284968260961955,0.046
1748284968268648658,0.053
1748284968276335361,0.06
1748284968284022064,0.075
1748284968291708767,0.082
1748284968299395470,0.08
1748284968307082173,0.092
1748284968314768876,0.10200000000000001
1748284968322455579,0.097
1748284968330142282,0.097
1748284968337828985,0.10400000000000001
1748284968345515688,0.10400000000000001
1748284968353202391,0.107
1748284968360889094,0.114
1748284968368575797,0.107
1748284968376262500,0.082
1748284968383949203,0.051000000000000004
1748284968391635906,0.004
1748284968399322609,-0.041
1748284968407009312,-0.075
1748284968414696015,-0.10200000000000001
1748284968422382718,-0.121
1748284968430069421,-0.133
1748284968437756124,-0.138
1748284968445442827,-0.138
1748284968453129530,-0.133
1748284968460816233,-0.131
1748284968468502936,-0.131
1748284968476189639,-0.128
1748284968483876342,-0.128
1748284968491563045,-0.128
1748284968499249748,-0.131
1748284968506936451,-0.136
1748284968514623154,-0.14100000000000001
1748284968522309857,-0.145
1748284968529996560,-0.145
1748284968537683263,-0.148
1748284968545369966,-0.145
1748284968553056669,-0.148
1748284968560743372,-0.15
1748284968568430075,-0.15
1748284968576116778,-0.148
1748284968583803481,-0.145
1748284968591490184,-0.145
1748284968599176887,-0.145
1748284968606863590,-0.148
1748284968614550293,-0.148
1748284968622236996,-0.148
1748284968629923699,-0.145
1748284968637610402,-0.14100000000000001
1748284968645297105,-0.121
1748284968652983808,-0.099
1748284968660670511,-0.092
1748284968668357214,-0.09
1748284968676043917,-0.08700000000000001
1748284968683730680,-0.10400000000000001
1748284968691417383,-0.11900000000000001
1748284968699104086,-0.116
1748284968706790789,-0.116
1748284968714477492,-0.114
1748284968722164195,-0.10400000000000001
1748284968729850898,-0.107
1748284968737537601,-0.124
1748284968745224304,-0.15
1748284968752911007,-0.026000000000000002
1748284968760597710,0.518
1748284968768284413,1.16
1748284968775971116,0.97
1748284968783657819,-0.11900000000000001
1748284968791344522,-0.8240000000000001
1748284968799031225,-0.5660000000000001
1748284968806717928,-0.289
1748284968814404631,-0.323
1748284968822091334,-0.20400000000000001
1748284968829778037,-0.055
1748284968837464740,-0.082
1748284968845151443,-0.092
1748284968852838146,-0.043000000000000003
1748284968860524849,-0.038
1748284968868211552,-0.046
1748284968875898255,-0.026000000000000002
1748284968883584958,-0.017
1748284968891271661,-0.017
1748284968898958364,-0.004
1748284968906645067,0.004
1748284968914331770,0.007
1748284968922018473,0.017
1748284968929705176,0.029
1748284968937391879,0.034
1748284968945078582,0.041
1748284968952765285,0.051000000000000004
1748284968960451988,0.058
1748284968968138691,0.068
1748284968975825394,0.077
1748284968983512097,0.08700000000000001
1748284968991198800,0.094
1748284968998885503,0.10200000000000001
1748284969006572206,0.109
1748284969014258909,0.114
1748284969021945612,0.114
1748284969029632315,0.116
1748284969037319018,0.116
1748284969045005721,0.11900000000000001
1748284969052692424,0.116
1748284969060379127,0.097
1748284969068065830,0.06
1748284969075752533,0.009000000000000001
1748284969083439236,-0.043000000000000003
1748284969091125939,-0.08700000000000001
1748284969098812642,-0.11900000000000001
1748284969106499345,-0.145
1748284969114186048,-0.16
1748284969121872751,-0.17
1748284969129559454,-0.17500000000000002
1748284969137246157,-0.17200000000000001
1748284969144932860,-0.165
1748284969152619563,-0.163
1748284969160306266,-0.16
1748284969167992969,-0.158
1748284969175679672,-0.158
1748284969183366375,-0.158
1748284969191053078,-0.158
1748284969198739781,-0.16
1748284969206426484,-0.165
1748284969214113187,-0.167
1748284969221799890,-0.165
1748284969229486593,-0.167
1748284969237173296,-0.17
1748284969244860059,-0.167,86,693
1748284969252546762,-0.165
1748284969260233465,-0.165
1748284969267920168,-0.163
1748284969275606871,-0.163
1748284969283293574,-0.163
1748284969290980277,-0.163
1748284969298666980,-0.16
1748284969306353683,-0.158
1748284969314040386,-0.155
1748284969321727089,-0.153
1748284969329413792,-0.155
1748284969337100495,-0.165
1748284969344787198,-0.167
1748284969352473901,-0.165
1748284969360160604,-0.155
1748284969367847307,-0.131
1748284969375534010,-0.111
1748284969383220713,-0.111
1748284969390907416,-0.109
1748284969398594119,-0.10400000000000001
1748284969406280822,-0.124
1748284969413967525,-0.14300000000000002
1748284969421654228,-0.138
1748284969429340931,-0.133
1748284969437027634,-0.138
1748284969444714337,-0.133
1748284969452401040,-0.131
1748284969460087743,-0.158
1748284969467774446,-0.20600000000000002
1748284969475461149,-0.08
1748284969483147852,0.491
1748284969490834555,1.167
1748284969498521258,1.082
1748284969506207961,0.075
1748284969513894664,-0.717
1748284969521581367,-0.562
1748284969529268070,-0.255
1748284969536954773,-0.291
1748284969544641476,-0.24
1748284969552328179,-0.124
1748284969560014882,-0.145
1748284969567701585,-0.16
1748284969575388288,-0.114
1748284969583074991,-0.10200000000000001
1748284969590761694,-0.107
1748284969598448397,-0.092
1748284969606135100,-0.08
1748284969613821803,-0.077
1748284969621508506,-0.068
1748284969629195209,-0.055
1748284969636881912,-0.048
1748284969644568615,-0.041
1748284969652255318,-0.029
1748284969659942021,-0.017
1748284969667628724,-0.007
1748284969675315427,0.002
1748284969683002130,0.012
1748284969690688833,0.019
1748284969698375536,0.034
1748284969706062239,0.043000000000000003
1748284969713748942,0.051000000000000004
1748284969721435645,0.055
1748284969729122348,0.063
1748284969736809051,0.068
1748284969744495754,0.068
1748284969752182457,0.068
1748284969759869160,0.065
1748284969767555863,0.068
1748284969775242566,0.07200000000000001
1748284969782929269,0.065
1748284969790615972,0.041
1748284969798302675,0.007
1748284969805989438,-0.034,86,713
1748284969813676211,-0.075
1748284969821362984,-0.109
1748284969829049757,-0.136
1748284969836736530,-0.155
1748284969844423303,-0.167
1748284969852110076,-0.17200000000000001
1748284969859796849,-0.17500000000000002
1748284969867483622,-0.17500000000000002
1748284969875170395,-0.17200000000000001
1748284969882857168,-0.17
1748284969890543941,-0.17
1748284969898230714,-0.165
1748284969905917487,-0.163
1748284969913604260,-0.163
1748284969921291033,-0.163
1748284969928977806,-0.16
1748284969936664579,-0.16
1748284969944351352,-0.16
1748284969952038125,-0.16
1748284969959724898,-0.16
1748284969967411671,-0.163
1748284969975098444,-0.16
1748284969982785217,-0.158
1748284969990471990,-0.155
1748284969998158763,-0.15
1748284970005845536,-0.148
1748284970013532309,-0.148
1748284970021219082,-0.145
1748284970028905855,-0.14100000000000001
1748284970036592628,-0.136
1748284970044279401,-0.133
1748284970051966174,-0.131
1748284970059652947,-0.131
1748284970067339720,-0.128
1748284970075026493,-0.128
1748284970082713266,-0.133
1748284970090400039,-0.14100000000000001
1748284970098086812,-0.133
1748284970105773585,-0.11900000000000001
1748284970113460358,-0.097
1748284970121147131,-0.08
1748284970128833904,-0.08
1748284970136520677,-0.07200000000000001
1748284970144207450,-0.07
1748284970151894223,-0.09
1748284970159580996,-0.107
1748284970167267769,-0.10400000000000001
1748284970174954542,-0.099
1748284970182641315,-0.099
1748284970190328088,-0.099
1748284970198014861,-0.097
1748284970205701634,-0.114
1748284970213388407,-0.16
1748284970221075180,-0.07
1748284970228761953,0.45
1748284970236448726,1.143
1748284970244135499,1.129
1748284970251822272,0.17200000000000001
1748284970259509045,-0.669
1748284970267195818,-0.581
1748284970274882591,-0.253
1748284970282569364,-0.255
1748284970290256137,-0.209
1748284970297942910,-0.082
1748284970305629683,-0.092
1748284970313316456,-0.111
1748284970321003229,-0.068
1748284970328690002,-0.053
1748284970336376775,-0.063
1748284970344063548,-0.048
1748284970351750321,-0.034
1748284970359437094,-0.031
1748284970367123908,-0.021
1748284970374810681,-0.012
1748284970382497454,-0.004
1748284970390184227,0.004
1748284970397871000,0.014
1748284970405557773,0.021
1748284970413244546,0.031
1748284970420931319,0.043000000000000003
1748284970428618092,0.053
1748284970436304865,0.063
1748284970443991638,0.07
1748284970451678411,0.082
1748284970459365184,0.094
1748284970467051957,0.10200000000000001
1748284970474738730,0.107
1748284970482425503,0.111
1748284970490112276,0.114
1748284970497799049,0.114
1748284970505485822,0.111
1748284970513172595,0.114
1748284970520859368,0.116
1748284970528546141,0.109
1748284970536232914,0.082
1748284970543919687,0.043000000000000003
1748284970551606460,0.004
1748284970559293233,-0.034
1748284970566980006,-0.07
1748284970574666779,-0.10200000000000001
1748284970582353552,-0.116
1748284970590040325,-0.128
1748284970597727098,-0.138
1748284970605413871,-0.14100000000000001
1748284970613100644,-0.14100000000000001
1748284970620787417,-0.14100000000000001
1748284970628474190,-0.14100000000000001
1748284970636160963,-0.136
1748284970643847736,-0.133
1748284970651534509,-0.131
1748284970659221282,-0.128
1748284970666908055,-0.128
1748284970674594828,-0.128
1748284970682281601,-0.128
1748284970689968374,-0.126
1748284970697655147,-0.131
1748284970705341920,-0.136
1748284970713028693,-0.133
1748284970720715466,-0.128
1748284970728402239,-0.126
1748284970736089012,-0.121
1748284970743775785,-0.124
1748284970751462558,-0.126
1748284970759149331,-0.121
1748284970766836104,-0.11900000000000001
1748284970774522877,-0.116
1748284970782209650,-0.109
1748284970789896423,-0.109
1748284970797583196,-0.109
1748284970805269969,-0.10400000000000001
1748284970812956742,-0.099
1748284970820643515,-0.099
1748284970828330288,-0.099
1748284970836017061,-0.097
1748284970843703834,-0.092
1748284970851390607,-0.08700000000000001
1748284970859077380,-0.09
1748284970866764153,-0.099
1748284970874450926,-0.10200000000000001
1748284970882137699,-0.097
1748284970889824472,-0.09
1748284970897511245,-0.077
1748284970905198018,-0.055
1748284970912884791,-0.043000000000000003
1748284970920571564,-0.043000000000000003
1748284970928258374,-0.043000000000000003,86,689
1748284970935945147,-0.055,,724
1748284970943631920,-0.07
1748284970951318693,-0.07200000000000001
1748284970959005466,-0.075
1748284970966692239,-0.077
1748284970974379012,-0.07
1748284970982065785,-0.068
1748284970989752558,-0.077
1748284970997439331,-0.107
1748284971005126104,-0.077
1748284971012812877,0.301
1748284971020499650,1.0070000000000001
1748284971028186423,1.231
1748284971035873196,0.418
1748284971043559969,-0.579
1748284971051246742,-0.681
1748284971058933515,-0.309
1748284971066620288,-0.25
1748284971074307061,-0.248
1748284971081993834,-0.092
1748284971089680607,-0.048
1748284971097367380,-0.08700000000000001
1748284971105054153,-0.06
1748284971112740926,-0.026000000000000002
1748284971120427699,-0.029
1748284971128114472,-0.021
1748284971135801245,-0.009000000000000001
1748284971143488018,-0.009000000000000001
1748284971151174791,-0.002
1748284971158861564,0.012
1748284971166548337,0.017
1748284971174235110,0.024
1748284971181921883,0.038
1748284971189608656,0.051000000000000004
1748284971197295429,0.058
1748284971204982202,0.063
1748284971212668975,0.075
1748284971220355748,0.09
1748284971228042521,0.099
1748284971235729294,0.10400000000000001
1748284971243416067,0.11900000000000001
1748284971251102840,0.136
1748284971258789613,0.14100000000000001
1748284971266476386,0.14100000000000001
1748284971274163159,0.14100000000000001
1748284971281849932,0.148
1748284971289536705,0.148
1748284971297223478,0.14100000000000001
1748284971304910251,0.14300000000000002
1748284971312597024,0.14100000000000001
1748284971320283797,0.116
1748284971327970570,0.08
1748284971335657343,0.031
1748284971343344116,-0.019
1748284971351030889,-0.063
1748284971358717662,-0.09
1748284971366404435,-0.111
1748284971374091208,-0.126
1748284971381777981,-0.136
1748284971389464754,-0.138
1748284971397151527,-0.131
1748284971404838300,-0.126
1748284971412525073,-0.124
1748284971420211846,-0.121
1748284971427898619,-0.116
1748284971435585392,-0.116
1748284971443272165,-0.116
1748284971450958938,-0.116
1748284971458645711,-0.124
1748284971466332484,-0.126
1748284971474019257,-0.128
1748284971481706030,-0.131
1748284971489392840,-0.133
1748284971497079613,-0.133
1748284971504766386,-0.136
1748284971512453159,-0.136
1748284971520139932,-0.136
1748284971527826705,-0.133
1748284971535513478,-0.131
1748284971543200251,-0.128
1748284971550887024,-0.128
1748284971558573797,-0.128
1748284971566260570,-0.126
1748284971573947343,-0.124
1748284971581634116,-0.11900000000000001
1748284971589320889,-0.11900000000000001
1748284971597007662,-0.124
1748284971604694435,-0.126
1748284971612381208,-0.124
1748284971620067981,-0.11900000000000001
1748284971627754754,-0.109
1748284971635441527,-0.09
1748284971643128300,-0.075
1748284971650815073,-0.07
1748284971658501846,-0.063
1748284971666188619,-0.07
1748284971673875392,-0.094
1748284971681562165,-0.10200000000000001
1748284971689248938,-0.099
1748284971696935711,-0.099
1748284971704622484,-0.099
1748284971712309257,-0.092
1748284971719996030,-0.094
1748284971727682803,-0.126
1748284971735369576,-0.116
1748284971743056349,0.199
1748284971750743122,0.885
1748284971758429895,1.221
1748284971766116668,0.493
1748284971773803441,-0.5760000000000001
1748284971781490214,-0.761
1748284971789176987,-0.364
1748284971796863760,-0.28200000000000003
1748284971804550533,-0.279
1748284971812237306,-0.10200000000000001
1748284971819924079,-0.041
1748284971827610852,-0.09
1748284971835297625,-0.06
1748284971842984398,-0.026000000000000002
1748284971850671171,-0.034
1748284971858357944,-0.029
1748284971866044717,-0.009000000000000001
1748284971873731490,-0.007
1748284971881418263,-0.004
1748284971889105036,0.009000000000000001
1748284971896791809,0.021
1748284971904478582,0.026000000000000002
1748284971912165355,0.036000000000000004
1748284971919852128,0.046
1748284971927538901,0.053
1748284971935225674,0.063
1748284971942912447,0.075
1748284971950599220,0.08700000000000001
1748284971958285993,0.099
1748284971965972766,0.111
1748284971973659539,0.126
1748284971981346312,0.14100000000000001
1748284971989033085,0.15
1748284971996719858,0.158
1748284972004406631,0.163
1748284972012093404,0.163
1748284972019780177,0.165
1748284972027466950,0.167
1748284972035153723,0.163
1748284972042840496,0.148
1748284972050527306,0.116,86,746
1748284972058214149,0.063
1748284972065900992,0.002
1748284972073587835,-0.055
1748284972081274678,-0.10400000000000001
1748284972088961521,-0.138
1748284972096648364,-0.16
1748284972104335207,-0.17
1748284972112022050,-0.17500000000000002
1748284972119708893,-0.17200000000000001
1748284972127395736,-0.165
1748284972135082579,-0.155
1748284972142769422,-0.15
1748284972150456265,-0.14300000000000002
1748284972158143108,-0.136
1748284972165829951,-0.131
1748284972173516794,-0.131
1748284972181203637,-0.131
1748284972188890480,-0.131
1748284972196577323,-0.133
1748284972204264166,-0.133
1748284972211951009,-0.136
1748284972219637852,-0.14100000000000001
1748284972227324695,-0.14100000000000001
1748284972235011538,-0.138
1748284972242698381,-0.136
1748284972250385224,-0.136
1748284972258072067,-0.136
1748284972265758910,-0.131
1748284972273445753,-0.128
1748284972281132596,-0.128
1748284972288819439,-0.126
1748284972296506282,-0.124
1748284972304193125,-0.121
1748284972311879968,-0.121
1748284972319566811,-0.11900000000000001
1748284972327253654,-0.116
1748284972334940497,-0.114
1748284972342627340,-0.111
1748284972350314183,-0.109
1748284972358001026,-0.107
1748284972365687869,-0.10400000000000001
1748284972373374712,-0.10400000000000001
1748284972381061555,-0.109
1748284972388748398,-0.11900000000000001
1748284972396435241,-0.11900000000000001
1748284972404122084,-0.111
1748284972411808927,-0.094
1748284972419495770,-0.07
1748284972427182613,-0.06
1748284972434869456,-0.063
1748284972442556299,-0.053
1748284972450243142,-0.06
1748284972457929985,-0.085
1748284972465616828,-0.092
1748284972473303671,-0.08700000000000001
1748284972480990514,-0.08700000000000001
1748284972488677357,-0.08700000000000001
1748284972496364200,-0.085
1748284972504051043,-0.09
1748284972511737886,-0.126
1748284972519424729,-0.16
1748284972527111572,0.068
1748284972534798415,0.739
1748284972542485258,1.301
1748284972550172101,0.9460000000000001
1748284972557858944,-0.128
1748284972565545787,-0.7000000000000001
1748284972573232630,-0.40800000000000003
1748284972580919473,-0.187
1748284972588606316,-0.245
1748284972596293159,-0.16
1748284972603980002,-0.075
1748284972611666855,-0.114
1748284972619353558,-0.107
1748284972627040261,-0.063
1748284972634726964,-0.068
1748284972642413667,-0.07
1748284972650100370,-0.048
1748284972657787073,-0.038
1748284972665473776,-0.036000000000000004
1748284972673160479,-0.026000000000000002
1748284972680847182,-0.019
1748284972688533885,-0.009000000000000001
1748284972696220588,0.0
1748284972703907291,0.009000000000000001
1748284972711593994,0.019
1748284972719280697,0.029
1748284972726967400,0.041
1748284972734654103,0.053
1748284972742340806,0.065
1748284972750027509,0.077
1748284972757714212,0.09
1748284972765400915,0.10400000000000001
1748284972773087618,0.116
1748284972780774321,0.126
1748284972788461024,0.133
1748284972796147727,0.136
1748284972803834430,0.138
1748284972811521133,0.138
1748284972819207836,0.138
1748284972826894539,0.131
1748284972834581242,0.114
1748284972842267945,0.082
1748284972849954648,0.036000000000000004
1748284972857641351,-0.017
1748284972865328054,-0.06
1748284972873014757,-0.097
1748284972880701460,-0.128
1748284972888388163,-0.148
1748284972896074866,-0.158
1748284972903761569,-0.163
1748284972911448272,-0.165
1748284972919134975,-0.163
1748284972926821678,-0.158
1748284972934508381,-0.153
1748284972942195084,-0.15
1748284972949881787,-0.148
1748284972957568490,-0.14100000000000001
1748284972965255193,-0.138
1748284972972941896,-0.138
1748284972980628599,-0.136
1748284972988315302,-0.138
1748284972996002005,-0.14100000000000001
1748284973003688708,-0.14100000000000001
1748284973011375411,-0.138
1748284973019062114,-0.138
1748284973026748817,-0.14100000000000001
1748284973034435520,-0.14100000000000001
1748284973042122223,-0.138
1748284973049808926,-0.136
1748284973057495629,-0.136
1748284973065182332,-0.133
1748284973072869035,-0.131
1748284973080555738,-0.126
1748284973088242441,-0.124
1748284973095929144,-0.124
1748284973103615847,-0.121
1748284973111302550,-0.121
1748284973118989253,-0.11900000000000001
1748284973126675956,-0.116
1748284973134362659,-0.114
1748284973142049362,-0.114
1748284973149736065,-0.111
1748284973157422768,-0.107
1748284973165109471,-0.10400000000000001
1748284973172796238,-0.10200000000000001,85,786
1748284973180482941,-0.099
1748284973188169644,-0.097
1748284973195856347,-0.097
1748284973203543050,-0.097
1748284973211229753,-0.094
1748284973218916456,-0.094
1748284973226603159,-0.092
1748284973234289862,-0.092
1748284973241976565,-0.099
1748284973249663268,-0.10400000000000001
1748284973257349971,-0.10200000000000001
1748284973265036674,-0.092
1748284973272723377,-0.075
1748284973280410080,-0.058
1748284973288096783,-0.053
1748284973295783486,-0.048
1748284973303470189,-0.046
1748284973311156892,-0.063
1748284973318843595,-0.085
1748284973326530298,-0.082
1748284973334217001,-0.082
1748284973341903704,-0.085
1748284973349590407,-0.08
1748284973357277110,-0.077
1748284973364963813,-0.094
1748284973372650516,-0.14300000000000002
1748284973380337219,-0.10200000000000001
1748284973388023922,0.33
1748284973395710625,1.046
1748284973403397328,1.245
1748284973411084031,0.459
1748284973418770734,-0.513
1748284973426457437,-0.627
1748284973434144140,-0.267
1748284973441830843,-0.218
1748284973449517546,-0.231
1748284973457204249,-0.10400000000000001
1748284973464890952,-0.085
1748284973472577655,-0.11900000000000001
1748284973480264358,-0.085
1748284973487951061,-0.06
1748284973495637764,-0.068
1748284973503324467,-0.058
1748284973511011170,-0.043000000000000003
1748284973518697873,-0.038
1748284973526384576,-0.031
1748284973534071279,-0.024
1748284973541757982,-0.014
1748284973549444685,-0.002
1748284973557131388,0.007
1748284973564818091,0.014
1748284973572504794,0.021
1748284973580191497,0.031
1748284973587878200,0.043000000000000003
1748284973595564903,0.053
1748284973603251606,0.063
1748284973610938309,0.075
1748284973618625012,0.09
1748284973626311715,0.10200000000000001
1748284973633998418,0.111
1748284973641685121,0.124
1748284973649371824,0.128
1748284973657058527,0.131
1748284973664745230,0.131
1748284973672431933,0.131
1748284973680118636,0.131
1748284973687805339,0.128
1748284973695492042,0.111
1748284973703178745,0.07
1748284973710865448,0.024
1748284973718552151,-0.021
1748284973726238854,-0.068
1748284973733925617,-0.109
1748284973741612320,-0.131
1748284973749299023,-0.145
1748284973756985726,-0.158
1748284973764672429,-0.165
1748284973772359132,-0.165
1748284973780045835,-0.165
1748284973787732538,-0.163
1748284973795419241,-0.155
1748284973803105944,-0.15
1748284973810792647,-0.145
1748284973818479350,-0.14100000000000001
1748284973826166053,-0.138
1748284973833852756,-0.14100000000000001
1748284973841539459,-0.14300000000000002
1748284973849226162,-0.14100000000000001
1748284973856912865,-0.138
1748284973864599568,-0.14100000000000001
1748284973872286271,-0.14300000000000002
1748284973879972974,-0.14300000000000002
1748284973887659677,-0.14300000000000002
1748284973895346380,-0.14300000000000002
1748284973903033083,-0.138
1748284973910719786,-0.131
1748284973918406489,-0.133
1748284973926093192,-0.136
1748284973933779895,-0.133
1748284973941466598,-0.128
1748284973949153301,-0.126
1748284973956840004,-0.124
1748284973964526707,-0.126
1748284973972213410,-0.121
1748284973979900113,-0.111
1748284973987586816,-0.109
1748284973995273519,-0.111
1748284974002960222,-0.107
1748284974010646925,-0.107
1748284974018333628,-0.111
1748284974026020331,-0.107
1748284974033707034,-0.099
1748284974041393737,-0.092
1748284974049080440,-0.09
1748284974056767143,-0.092
1748284974064453846,-0.094
1748284974072140549,-0.09
1748284974079827252,-0.09
1748284974087513955,-0.08700000000000001
1748284974095200658,-0.085
1748284974102887361,-0.082
1748284974110574064,-0.085
1748284974118260767,-0.082
1748284974125947470,-0.08
1748284974133634173,-0.08
1748284974141320876,-0.082
1748284974149007579,-0.08
1748284974156694282,-0.077
1748284974164380985,-0.075
1748284974172067688,-0.06
1748284974179754391,-0.051000000000000004
1748284974187441094,-0.043000000000000003
1748284974195127797,-0.034
1748284974202814500,-0.038
1748284974210501203,-0.06
1748284974218187906,-0.068
1748284974225874609,-0.068
1748284974233561312,-0.07
1748284974241248015,-0.068
1748284974248934718,-0.068
1748284974256621421,-0.07200000000000001
1748284974264308124,-0.094
1748284974271994827,-0.099
1748284974279681530,0.138
1748284974287368233,0.781
1748284974295054996,1.272,84,731
1748284974302741699,0.79
1748284974310428402,-0.311
1748284974318115105,-0.768
1748284974325801808,-0.43
1748284974333488511,-0.243
1748284974341175214,-0.279
1748284974348861917,-0.14300000000000002
1748284974356548620,-0.041
1748284974364235323,-0.08
1748284974371922026,-0.075
1748284974379608729,-0.034
1748284974387295432,-0.031
1748284974394982135,-0.031
1748284974402668838,-0.019
1748284974410355541,-0.012
1748284974418042244,-0.007
1748284974425728947,0.004
1748284974433415650,0.012
1748284974441102353,0.019
1748284974448789056,0.026000000000000002
1748284974456475759,0.036000000000000004
1748284974464162462,0.048
1748284974471849165,0.053
1748284974479535868,0.063
1748284974487222571,0.075
1748284974494909274,0.08700000000000001
1748284974502595977,0.099
1748284974510282680,0.111
1748284974517969383,0.124
1748284974525656086,0.136
1748284974533342789,0.148
1748284974541029492,0.155
1748284974548716195,0.158
1748284974556402898,0.155
1748284974564089601,0.153
1748284974571776304,0.15
1748284974579463007,0.145
1748284974587149710,0.133
1748284974594836413,0.099
1748284974602523116,0.046
1748284974610209819,-0.009000000000000001
1748284974617896522,-0.063
1748284974625583225,-0.107
1748284974633269928,-0.138
1748284974640956631,-0.16
1748284974648643334,-0.17200000000000001
1748284974656330037,-0.17200000000000001
1748284974664016740,-0.167
1748284974671703443,-0.163
1748284974679390146,-0.153
1748284974687076849,-0.14300000000000002
1748284974694763552,-0.136
1748284974702450255,-0.128
1748284974710136958,-0.124
1748284974717823661,-0.121
1748284974725510364,-0.121
1748284974733197067,-0.124
1748284974740883770,-0.126
1748284974748570473,-0.128
1748284974756257176,-0.133
1748284974763943879,-0.138
1748284974771630582,-0.138
1748284974779317285,-0.138
1748284974787003988,-0.14100000000000001
1748284974794690691,-0.14300000000000002
1748284974802377394,-0.14300000000000002
1748284974810064097,-0.14300000000000002
1748284974817750800,-0.14100000000000001
1748284974825437503,-0.138
1748284974833124206,-0.136
1748284974840810909,-0.131
1748284974848497612,-0.131
1748284974856184375,-0.131,84,787
1748284974863871357,-0.128
1748284974871558339,-0.124
1748284974879245321,-0.121
1748284974886932303,-0.121
1748284974894619285,-0.11900000000000001
1748284974902306267,-0.116
1748284974909993249,-0.116
1748284974917680231,-0.109
1748284974925367213,-0.107
1748284974933054195,-0.107
1748284974940741177,-0.10200000000000001
1748284974948428159,-0.099
1748284974956115141,-0.097
1748284974963802123,-0.097
1748284974971489105,-0.094
1748284974979176087,-0.092
1748284974986863069,-0.09
1748284974994550051,-0.08700000000000001
1748284975002237033,-0.08700000000000001
1748284975009924015,-0.08700000000000001
1748284975017610997,-0.082
1748284975025297979,-0.08
1748284975032984961,-0.08
1748284975040671943,-0.08
1748284975048358925,-0.077
1748284975056045907,-0.077
1748284975063732889,-0.082
1748284975071419871,-0.08700000000000001
1748284975079106853,-0.09
1748284975086793835,-0.085
1748284975094480817,-0.07200000000000001
1748284975102167799,-0.058
1748284975109854781,-0.048
1748284975117541763,-0.038
1748284975125228745,-0.029
1748284975132915727,-0.038
1748284975140602709,-0.063
1748284975148289691,-0.068
1748284975155976673,-0.065
1748284975163663655,-0.068
1748284975171350637,-0.068
1748284975179037619,-0.063
1748284975186724601,-0.065
1748284975194411583,-0.099
1748284975202098565,-0.14300000000000002
1748284975209785547,0.051000000000000004
1748284975217472529,0.6930000000000001
1748284975225159511,1.301
1748284975232846493,1.053
1748284975240533475,0.017
1748284975248220457,-0.652
1748284975255907439,-0.437
1748284975263594421,-0.197
1748284975271281403,-0.243
1748284975278968385,-0.167
1748284975286655367,-0.07
1748284975294342349,-0.10200000000000001
1748284975302029331,-0.10400000000000001
1748284975309716313,-0.065
1748284975317403295,-0.06
1748284975325090277,-0.063
1748284975332777259,-0.046
1748284975340464241,-0.038
1748284975348151223,-0.036000000000000004
1748284975355838205,-0.024
1748284975363525187,-0.012
1748284975371212169,-0.007
1748284975378899151,0.0
1748284975386586133,0.012
1748284975394273115,0.021
1748284975401960097,0.029
1748284975409647079,0.041
1748284975417334102,0.055
1748284975425020945,0.068
1748284975432707788,0.08
1748284975440394631,0.097
1748284975448081474,0.111
1748284975455768317,0.126
1748284975463455160,0.14100000000000001
1748284975471142003,0.153
1748284975478828846,0.16
1748284975486515689,0.163
1748284975494202532,0.163
1748284975501889375,0.16
1748284975509576218,0.155
1748284975517263061,0.14300000000000002
1748284975524949904,0.114
1748284975532636747,0.07
1748284975540323590,0.017
1748284975548010433,-0.034
1748284975555697276,-0.082
1748284975563384119,-0.116
1748284975571070962,-0.14100000000000001
1748284975578757805,-0.155
1748284975586444648,-0.163
1748284975594131491,-0.167
1748284975601818334,-0.167
1748284975609505177,-0.165
1748284975617192020,-0.16
1748284975624878863,-0.153
1748284975632565706,-0.148
1748284975640252549,-0.14100000000000001
1748284975647939392,-0.136
1748284975655626235,-0.133
1748284975663313078,-0.133
1748284975670999921,-0.128
1748284975678686764,-0.128
1748284975686373607,-0.133
1748284975694060450,-0.133
1748284975701747293,-0.131
1748284975709434136,-0.133
1748284975717120979,-0.133
1748284975724807822,-0.133
1748284975732494665,-0.133
1748284975740181508,-0.131
1748284975747868351,-0.126
1748284975755555194,-0.126
1748284975763242037,-0.126
1748284975770928880,-0.124
1748284975778615723,-0.121
1748284975786302566,-0.11900000000000001
1748284975793989409,-0.116
1748284975801676252,-0.111
1748284975809363095,-0.109
1748284975817049938,-0.107
1748284975824736781,-0.107
1748284975832423624,-0.107
1748284975840110467,-0.10200000000000001
1748284975847797310,-0.099
1748284975855484153,-0.097
1748284975863170996,-0.094
1748284975870857839,-0.092
1748284975878544682,-0.092
1748284975886231525,-0.09
1748284975893918368,-0.08700000000000001
1748284975901605211,-0.085
1748284975909292054,-0.085
1748284975916978897,-0.085
1748284975924665740,-0.082
1748284975932352583,-0.08
1748284975940039426,-0.08
1748284975947726269,-0.077
1748284975955413112,-0.075
1748284975963099955,-0.07200000000000001
1748284975970786798,-0.07200000000000001
1748284975978473651,-0.07200000000000001,83,857
1748284975986160354,-0.07
1748284975993847057,-0.07
1748284976001533760,-0.07
1748284976009220463,-0.068
1748284976016907166,-0.068
1748284976024593869,-0.07
1748284976032280572,-0.068
1748284976039967275,-0.063
1748284976047653978,-0.06
1748284976055340681,-0.06
1748284976063027384,-0.06
1748284976070714087,-0.06
1748284976078400790,-0.063
1748284976086087493,-0.065
1748284976093774196,-0.07200000000000001
1748284976101460899,-0.077
1748284976109147602,-0.07200000000000001
1748284976116834305,-0.063
1748284976124521008,-0.051000000000000004
1748284976132207711,-0.041
1748284976139894414,-0.034
1748284976147581117,-0.021
1748284976155267820,-0.024
1748284976162954523,-0.048
1748284976170641226,-0.06
1748284976178327929,-0.058
1748284976186014632,-0.06
1748284976193701335,-0.06
1748284976201388038,-0.058
1748284976209074741,-0.058
1748284976216761444,-0.08700000000000001
1748284976224448147,-0.14300000000000002
1748284976232134850,-0.024
1748284976239821553,0.54
1748284976247508256,1.233
1748284976255194959,1.216
1748284976262881662,0.28700000000000003
1748284976270568365,-0.562
1748284976278255068,-0.508
1748284976285941771,-0.20400000000000001
1748284976293628474,-0.223
1748284976301315177,-0.197
1748284976309001880,-0.082
1748284976316688583,-0.094
1748284976324375286,-0.116
1748284976332061989,-0.07200000000000001
1748284976339748692,-0.058
1748284976347435395,-0.068
1748284976355122098,-0.053
1748284976362808801,-0.038
1748284976370495504,-0.036000000000000004
1748284976378182207,-0.029
1748284976385868910,-0.017
1748284976393555613,-0.009000000000000001
1748284976401242316,-0.002
1748284976408929019,0.009000000000000001
1748284976416615722,0.019
1748284976424302425,0.026000000000000002
1748284976431989128,0.038
1748284976439675831,0.051000000000000004
1748284976447362534,0.063
1748284976455049237,0.075
1748284976462735940,0.09
1748284976470422643,0.10200000000000001
1748284976478109346,0.114
1748284976485796049,0.128
1748284976493482752,0.14300000000000002
1748284976501169455,0.15
1748284976508856158,0.15
1748284976516542861,0.153
1748284976524229564,0.155
1748284976531916267,0.15
1748284976539603030,0.14300000000000002
1748284976547289803,0.126
1748284976554976576,0.094
1748284976562663349,0.048
1748284976570350122,-0.002
1748284976578036895,-0.051000000000000004
1748284976585723668,-0.09
1748284976593410441,-0.121
1748284976601097214,-0.14300000000000002
1748284976608783987,-0.155
1748284976616470760,-0.163
1748284976624157533,-0.163
1748284976631844306,-0.16
1748284976639531079,-0.155
1748284976647217852,-0.15
1748284976654904625,-0.145
1748284976662591398,-0.14300000000000002
1748284976670278171,-0.136
1748284976677964944,-0.133
1748284976685651717,-0.131
1748284976693338490,-0.131
1748284976701025263,-0.128
1748284976708712036,-0.128
1748284976716398809,-0.128
1748284976724085582,-0.128
1748284976731772355,-0.131
1748284976739459128,-0.133
1748284976747145901,-0.133
1748284976754832674,-0.131
1748284976762519447,-0.131
1748284976770206220,-0.128
1748284976777892993,-0.128
1748284976785579766,-0.126
1748284976793266539,-0.124
1748284976800953312,-0.121
1748284976808640085,-0.11900000000000001
1748284976816326858,-0.11900000000000001
1748284976824013631,-0.114
1748284976831700404,-0.114
1748284976839387177,-0.114
1748284976847073950,-0.111
1748284976854760723,-0.10400000000000001
1748284976862447496,-0.10200000000000001
1748284976870134269,-0.10200000000000001
1748284976877821042,-0.10200000000000001
1748284976885507815,-0.099
1748284976893194588,-0.097
1748284976900881361,-0.094
1748284976908568134,-0.094
1748284976916254907,-0.092
1748284976923941680,-0.09
1748284976931628453,-0.08700000000000001
1748284976939315226,-0.08700000000000001
1748284976947001999,-0.08700000000000001
1748284976954688772,-0.085
1748284976962375545,-0.082
1748284976970062318,-0.08
1748284976977749091,-0.08
1748284976985435864,-0.077
1748284976993122637,-0.077
1748284977000809410,-0.075
1748284977008496183,-0.07200000000000001
1748284977016182956,-0.07
1748284977023869729,-0.07
1748284977031556502,-0.07
1748284977039243275,-0.068
1748284977046930048,-0.065
1748284977054616821,-0.065
1748284977062303594,-0.065
1748284977069990367,-0.065
1748284977077677140,-0.065
1748284977085363913,-0.06
1748284977093050686,-0.06
1748284977100737500,-0.06,82,895
1748284977108424273,-0.058
1748284977116111046,-0.058
1748284977123797819,-0.055
1748284977131484592,-0.055
1748284977139171365,-0.058
1748284977146858138,-0.058
1748284977154544911,-0.055
1748284977162231684,-0.055
1748284977169918457,-0.055
1748284977177605230,-0.06
1748284977185292003,-0.065
1748284977192978776,-0.068
1748284977200665549,-0.068
1748284977208352322,-0.06
1748284977216039095,-0.046
1748284977223725868,-0.034
1748284977231412641,-0.021
1748284977239099414,-0.014
1748284977246786187,-0.021
1748284977254472960,-0.046
1748284977262159733,-0.053
1748284977269846506,-0.051000000000000004
1748284977277533279,-0.055
1748284977285220052,-0.058
1748284977292906825,-0.051000000000000004
1748284977300593598,-0.055
1748284977308280371,-0.09
1748284977315967144,-0.133
1748284977323653917,0.021
1748284977331340690,0.62
1748284977339027463,1.272
1748284977346714236,1.133
1748284977354401009,0.14300000000000002
1748284977362087782,-0.61
1748284977369774555,-0.47200000000000003
1748284977377461328,-0.199
1748284977385148101,-0.233
1748284977392834874,-0.18
1748284977400521647,-0.07
1748284977408208420,-0.094
1748284977415895193,-0.10400000000000001
1748284977423581966,-0.063
1748284977431268739,-0.058
1748284977438955512,-0.06
1748284977446642285,-0.041
1748284977454329058,-0.029
1748284977462015831,-0.029
1748284977469702604,-0.019
1748284977477389377,-0.009000000000000001
1748284977485076150,0.0
1748284977492762923,0.007
1748284977500449696,0.017
1748284977508136469,0.024
1748284977515823242,0.034
1748284977523510015,0.043000000000000003
1748284977531196788,0.053
1748284977538883561,0.065
1748284977546570334,0.082
1748284977554257107,0.097
1748284977561943880,0.107
1748284977569630653,0.11900000000000001
1748284977577317426,0.136
1748284977585004199,0.15
1748284977592690972,0.16
1748284977600377745,0.163
1748284977608064518,0.16
1748284977615751291,0.155
1748284977623438064,0.155
1748284977631124837,0.145
1748284977638811610,0.126
1748284977646498383,0.097
1748284977654185156,0.053
1748284977661871966,0.002
1748284977669558739,-0.046
1748284977677245512,-0.09
1748284977684932285,-0.121
1748284977692619058,-0.138
1748284977700305831,-0.15
1748284977707992604,-0.155
1748284977715679377,-0.158
1748284977723366150,-0.158
1748284977731052923,-0.155
1748284977738739696,-0.148
1748284977746426469,-0.138
1748284977754113242,-0.131
1748284977761800015,-0.126
1748284977769486788,-0.126
1748284977777173561,-0.121
1748284977784860334,-0.116
1748284977792547107,-0.121
1748284977800233880,-0.126
1748284977807920653,-0.121
1748284977815607426,-0.121
1748284977823294199,-0.128
1748284977830980972,-0.131
1748284977838667745,-0.126
1748284977846354518,-0.126
1748284977854041291,-0.128
1748284977861728064,-0.128
1748284977869414837,-0.126
1748284977877101610,-0.126
1748284977884788383,-0.126
1748284977892475156,-0.11900000000000001
1748284977900161929,-0.114
1748284977907848702,-0.114
1748284977915535475,-0.114
1748284977923222248,-0.114
1748284977930909021,-0.107
1748284977938595794,-0.10200000000000001
1748284977946282567,-0.109
1748284977953969340,-0.111
1748284977961656113,-0.10200000000000001
1748284977969342886,-0.094
1748284977977029659,-0.092
1748284977984716432,-0.092
1748284977992403205,-0.09
1748284978000089978,-0.09
1748284978007776751,-0.09
1748284978015463524,-0.08700000000000001
1748284978023150297,-0.08700000000000001
1748284978030837070,-0.085
1748284978038523843,-0.082
1748284978046210616,-0.08
1748284978053897389,-0.077
1748284978061584162,-0.075
1748284978069270935,-0.07
1748284978076957708,-0.07
1748284978084644481,-0.075
1748284978092331254,-0.075
1748284978100018027,-0.07
1748284978107704800,-0.065
1748284978115391573,-0.068
1748284978123078346,-0.068
1748284978130765119,-0.065
1748284978138451892,-0.065
1748284978146138665,-0.063
1748284978153825438,-0.06
1748284978161512211,-0.055
1748284978169198984,-0.058
1748284978176885757,-0.06
1748284978184572530,-0.058
1748284978192259303,-0.055
1748284978199946076,-0.055
1748284978207632849,-0.055
1748284978215319622,-0.055
1748284978223006432,-0.051000000000000004,80,932
1748284978230693205,-0.055
1748284978238379978,-0.065
1748284978246066751,-0.06
1748284978253753524,-0.055
1748284978261440297,-0.053
1748284978269127070,-0.041
1748284978276813843,-0.031
1748284978284500616,-0.024
1748284978292187389,-0.014
1748284978299874162,-0.026000000000000002
1748284978307560935,-0.051000000000000004
1748284978315247708,-0.055
1748284978322934481,-0.055
1748284978330621254,-0.06
1748284978338308027,-0.058
1748284978345994800,-0.053
1748284978353681573,-0.06
1748284978361368346,-0.092
1748284978369055119,-0.08
1748284978376741892,0.248
1748284978384428665,0.9390000000000001
1748284978392115438,1.2750000000000001
1748284978399802211,0.591
1748284978407488984,-0.457
1748284978415175757,-0.7000000000000001
1748284978422862530,-0.34700000000000003
1748284978430549303,-0.253
1748284978438236076,-0.26
1748284978445922849,-0.10400000000000001
1748284978453609622,-0.048
1748284978461296395,-0.092
1748284978468983168,-0.063
1748284978476669941,-0.029
1748284978484356714,-0.041
1748284978492043487,-0.036000000000000004
1748284978499730260,-0.019
1748284978507417033,-0.012
1748284978515103806,-0.009000000000000001
1748284978522790579,0.0
1748284978530477352,0.009000000000000001
1748284978538164125,0.017
1748284978545850898,0.026000000000000002
1748284978553537671,0.034
1748284978561224444,0.041
1748284978568911217,0.051000000000000004
1748284978576597990,0.063
1748284978584284763,0.07200000000000001
1748284978591971536,0.085
1748284978599658309,0.099
1748284978607345082,0.114
1748284978615031855,0.131
1748284978622718628,0.148
1748284978630405401,0.16
1748284978638092174,0.17
1748284978645778947,0.177
1748284978653465720,0.18
1748284978661152493,0.177
1748284978668839266,0.17
1748284978676526039,0.163
1748284978684212812,0.148
1748284978691899585,0.116
1748284978699586358,0.07
1748284978707273131,0.017
1748284978714959904,-0.043000000000000003
1748284978722646677,-0.094
1748284978730333450,-0.131
1748284978738020223,-0.158
1748284978745706996,-0.17500000000000002
1748284978753393769,-0.184
1748284978761080542,-0.184
1748284978768767315,-0.17500000000000002
1748284978776454088,-0.17
1748284978784140898,-0.163
1748284978791827671,-0.153
1748284978799514444,-0.14100000000000001
1748284978807201217,-0.133
1748284978814887990,-0.128
1748284978822574763,-0.124
1748284978830261536,-0.11900000000000001
1748284978837948309,-0.121
1748284978845635082,-0.124
1748284978853321855,-0.126
1748284978861008628,-0.128
1748284978868695401,-0.131
1748284978876382174,-0.131
1748284978884068947,-0.131
1748284978891755720,-0.133
1748284978899442493,-0.136
1748284978907129266,-0.133
1748284978914816039,-0.131
1748284978922502812,-0.131
1748284978930189585,-0.131
1748284978937876358,-0.128
1748284978945563131,-0.128
1748284978953249904,-0.128
1748284978960936677,-0.124
1748284978968623450,-0.126
1748284978976310223,-0.126
1748284978983996996,-0.121
1748284978991683769,-0.11900000000000001
1748284978999370542,-0.116
1748284979007057315,-0.116
1748284979014744088,-0.114
1748284979022430861,-0.109
1748284979030117634,-0.107
1748284979037804407,-0.107
1748284979045491180,-0.107
1748284979053177953,-0.10200000000000001
1748284979060864726,-0.099
1748284979068551499,-0.097
1748284979076238272,-0.097
1748284979083925045,-0.097
1748284979091611818,-0.092
1748284979099298591,-0.09
1748284979106985364,-0.09
1748284979114672137,-0.08700000000000001
1748284979122358910,-0.085
1748284979130045683,-0.085
1748284979137732456,-0.082
1748284979145419229,-0.085
1748284979153106002,-0.085
1748284979160792775,-0.082
1748284979168479548,-0.08
1748284979176166321,-0.08
1748284979183853094,-0.08
1748284979191539867,-0.077
1748284979199226640,-0.077
1748284979206913413,-0.077
1748284979214600186,-0.077
1748284979222286959,-0.075
1748284979229973732,-0.075
1748284979237660505,-0.075
1748284979245347278,-0.07200000000000001
1748284979253034051,-0.07200000000000001
1748284979260720824,-0.07
1748284979268407597,-0.077
1748284979276094370,-0.085
1748284979283781143,-0.085
1748284979291467916,-0.08
1748284979299154689,-0.07200000000000001
1748284979306841462,-0.058
1748284979314528235,-0.051000000000000004
1748284979322215008,-0.046
1748284979329901781,-0.034
1748284979337588554,-0.036000000000000004
1748284979345275364,-0.06,76,1023
1748284979352962137,-0.07200000000000001
1748284979360648910,-0.068
1748284979368335683,-0.07200000000000001
1748284979376022456,-0.075
1748284979383709229,-0.07200000000000001
1748284979391396002,-0.077
1748284979399082775,-0.114
1748284979406769548,-0.155
1748284979414456321,0.048
1748284979422143094,0.6980000000000001
1748284979429829867,1.309
1748284979437516640,1.077
1748284979445203413,0.06
1748284979452890186,-0.627
1748284979460576959,-0.442
1748284979468263732,-0.20400000000000001
1748284979475950505,-0.255
1748284979483637278,-0.189
1748284979491324051,-0.094
1748284979499010824,-0.124
1748284979506697597,-0.128
1748284979514384370,-0.085
1748284979522071143,-0.08
1748284979529757916,-0.082
1748284979537444689,-0.065
1748284979545131462,-0.058
1748284979552818235,-0.055
1748284979560505008,-0.043000000000000003
1748284979568191781,-0.034
1748284979575878554,-0.026000000000000002
1748284979583565327,-0.019
1748284979591252100,-0.009000000000000001
1748284979598938873,0.0
1748284979606625646,0.012
1748284979614312419,0.024
1748284979621999192,0.036000000000000004
1748284979629685965,0.048
1748284979637372738,0.065
1748284979645059511,0.082
1748284979652746284,0.099
1748284979660433057,0.11900000000000001
1748284979668119830,0.136
1748284979675806603,0.15
1748284979683493376,0.163
1748284979691180149,0.17
1748284979698866922,0.17200000000000001
1748284979706553695,0.17
1748284979714240468,0.163
1748284979721927241,0.145
1748284979729614014,0.116
1748284979737300787,0.07200000000000001
1748284979744987560,0.019
1748284979752674333,-0.038
1748284979760361106,-0.08700000000000001
1748284979768047879,-0.128
1748284979775734652,-0.158
1748284979783421425,-0.177
1748284979791108198,-0.189
1748284979798794971,-0.192
1748284979806481744,-0.189
1748284979814168517,-0.184
1748284979821855290,-0.177
1748284979829542063,-0.17
1748284979837228836,-0.165
1748284979844915609,-0.158
1748284979852602382,-0.15
1748284979860289155,-0.145
1748284979867975928,-0.14100000000000001
1748284979875662701,-0.136
1748284979883349474,-0.133
1748284979891036247,-0.133
1748284979898723020,-0.133
1748284979906409826,-0.133,72,1091
1748284979914096529,-0.133
1748284979921783232,-0.133
1748284979929469935,-0.136
1748284979937156638,-0.136
1748284979944843341,-0.133
1748284979952530044,-0.133
1748284979960216747,-0.133
1748284979967903450,-0.133
1748284979975590153,-0.133
1748284979983276856,-0.131
1748284979990963559,-0.128
1748284979998650262,-0.126
1748284980006336965,-0.124
1748284980014023668,-0.121
1748284980021710371,-0.116
1748284980029397074,-0.116
1748284980037083777,-0.114
1748284980044770480,-0.111
1748284980052457183,-0.107
1748284980060143886,-0.10400000000000001
1748284980067830589,-0.107
1748284980075517292,-0.10400000000000001
1748284980083203995,-0.10200000000000001
1748284980090890698,-0.097
1748284980098577401,-0.097
1748284980106264104,-0.094
1748284980113950807,-0.094
1748284980121637510,-0.092
1748284980129324213,-0.09
1748284980137010916,-0.09
1748284980144697619,-0.09
1748284980152384322,-0.09
1748284980160071025,-0.08700000000000001
1748284980167757728,-0.085
1748284980175444431,-0.085
1748284980183131134,-0.085
1748284980190817837,-0.082
1748284980198504540,-0.08
1748284980206191243,-0.08
1748284980213877946,-0.08
1748284980221564649,-0.08
1748284980229251352,-0.08
1748284980236938055,-0.08
1748284980244624758,-0.08
1748284980252311461,-0.08
1748284980259998164,-0.08
1748284980267684867,-0.077
1748284980275371570,-0.077
1748284980283058273,-0.08
1748284980290744976,-0.085
1748284980298431679,-0.09
1748284980306118382,-0.09
1748284980313805085,-0.08700000000000001
1748284980321491788,-0.08
1748284980329178491,-0.068
1748284980336865194,-0.058
1748284980344551897,-0.051000000000000004
1748284980352238600,-0.043000000000000003
1748284980359925303,-0.053
1748284980367612006,-0.077
1748284980375298709,-0.085
1748284980382985412,-0.085
1748284980390672115,-0.08700000000000001
1748284980398358818,-0.085
1748284980406045521,-0.082
1748284980413732224,-0.08700000000000001
1748284980421418927,-0.121
1748284980429105630,-0.16
1748284980436792333,0.034
1748284980444479036,0.676
1748284980452165739,1.292
1748284980459852442,1.063
1748284980467539209,0.038
1748284980475225912,-0.659
1748284980482912615,-0.47400000000000003
1748284980490599318,-0.226
1748284980498286021,-0.272
1748284980505972724,-0.209
1748284980513659427,-0.109
1748284980521346130,-0.136
1748284980529032833,-0.14300000000000002
1748284980536719536,-0.099
1748284980544406239,-0.097
1748284980552092942,-0.10200000000000001
1748284980559779645,-0.085
1748284980567466348,-0.07200000000000001
1748284980575153051,-0.07
1748284980582839754,-0.063
1748284980590526457,-0.053
1748284980598213160,-0.046
1748284980605899863,-0.034
1748284980613586566,-0.026000000000000002
1748284980621273269,-0.017
1748284980628959972,-0.007
1748284980636646675,0.007
1748284980644333378,0.019
1748284980652020081,0.031
1748284980659706784,0.046
1748284980667393487,0.065
1748284980675080190,0.082
1748284980682766893,0.10400000000000001
1748284980690453596,0.126
1748284980698140299,0.14100000000000001
1748284980705827002,0.15
1748284980713513705,0.16
1748284980721200408,0.165
1748284980728887111,0.163
1748284980736573814,0.155
1748284980744260517,0.136
1748284980751947220,0.10200000000000001
1748284980759633923,0.051000000000000004
1748284980767320626,-0.004
1748284980775007329,-0.063
1748284980782694032,-0.116
1748284980790380735,-0.163
1748284980798067438,-0.194
1748284980805754141,-0.211
1748284980813440844,-0.221
1748284980821127547,-0.223
1748284980828814250,-0.223
1748284980836500953,-0.214
1748284980844187656,-0.20600000000000002
1748284980851874359,-0.201
1748284980859561062,-0.194
1748284980867247765,-0.184
1748284980874934468,-0.177
1748284980882621171,-0.17200000000000001
1748284980890307874,-0.165
1748284980897994577,-0.16
1748284980905681280,-0.16
1748284980913367983,-0.158
1748284980921054686,-0.153
1748284980928741389,-0.153
1748284980936428092,-0.15
1748284980944114795,-0.15
1748284980951801498,-0.158
1748284980959488201,-0.16
1748284980967174904,-0.155
1748284980974861607,-0.15
1748284980982548310,-0.15
1748284980990235013,-0.15
1748284980997921716,-0.148
1748284981005608419,-0.14300000000000002
1748284981013295122,-0.14300000000000002
1748284981020981825,-0.14100000000000001
1748284981028668588,-0.138,71,1049
1748284981036355291,-0.133
1748284981044041994,-0.131
1748284981051728697,-0.131
1748284981059415400,-0.128
1748284981067102103,-0.126
1748284981074788806,-0.126
1748284981082475509,-0.121
1748284981090162212,-0.11900000000000001
1748284981097848915,-0.11900000000000001
1748284981105535618,-0.11900000000000001
1748284981113222321,-0.114
1748284981120909024,-0.109
1748284981128595727,-0.107
1748284981136282430,-0.107
1748284981143969133,-0.10400000000000001
1748284981151655836,-0.099
1748284981159342539,-0.097
1748284981167029242,-0.097
1748284981174715945,-0.094
1748284981182402648,-0.092
1748284981190089351,-0.09
1748284981197776054,-0.09
1748284981205462757,-0.092
1748284981213149460,-0.09
1748284981220836163,-0.085
1748284981228522866,-0.08
1748284981236209569,-0.082
1748284981243896272,-0.082
1748284981251582975,-0.077
1748284981259269678,-0.075
1748284981266956381,-0.07200000000000001
1748284981274643084,-0.07
1748284981282329787,-0.07200000000000001
1748284981290016490,-0.068
1748284981297703193,-0.065
1748284981305389896,-0.068
1748284981313076599,-0.068
1748284981320763302,-0.065
1748284981328450005,-0.063
1748284981336136708,-0.065
1748284981343823411,-0.063
1748284981351510114,-0.058
1748284981359196817,-0.06
1748284981366883520,-0.063
1748284981374570223,-0.063
1748284981382256926,-0.06
1748284981389943629,-0.063
1748284981397630332,-0.058
1748284981405317035,-0.041
1748284981413003738,-0.026000000000000002
1748284981420690441,-0.019
1748284981428377144,-0.014
1748284981436063847,-0.031
1748284981443750550,-0.053
1748284981451437253,-0.055
1748284981459123956,-0.055
1748284981466810659,-0.058
1748284981474497362,-0.055
1748284981482184065,-0.051000000000000004
1748284981489870768,-0.063
1748284981497557471,-0.10200000000000001
1748284981505244174,-0.077
1748284981512930877,0.309
1748284981520617580,1.039
1748284981528304283,1.335
1748284981535990986,0.601
1748284981543677689,-0.447
1748284981551364392,-0.666
1748284981559051095,-0.321
1748284981566737798,-0.243
1748284981574424501,-0.25
1748284981582111204,-0.10400000000000001
1748284981589797967,-0.063
1748284981597484670,-0.10200000000000001
1748284981605171373,-0.07
1748284981612858076,-0.038
1748284981620544779,-0.048
1748284981628231482,-0.041
1748284981635918185,-0.024
1748284981643604888,-0.019
1748284981651291591,-0.012
1748284981658978294,-0.002
1748284981666664997,0.004
1748284981674351700,0.012
1748284981682038403,0.021
1748284981689725106,0.031
1748284981697411809,0.038
1748284981705098512,0.051000000000000004
1748284981712785215,0.063
1748284981720471918,0.075
1748284981728158621,0.092
1748284981735845324,0.109
1748284981743532027,0.128
1748284981751218730,0.148
1748284981758905433,0.167
1748284981766592136,0.187
1748284981774278839,0.201
1748284981781965542,0.211
1748284981789652245,0.216
1748284981797338948,0.218
1748284981805025651,0.214
1748284981812712354,0.201
1748284981820399057,0.18
1748284981828085760,0.138
1748284981835772463,0.08
1748284981843459166,0.021
1748284981851145869,-0.036000000000000004
1748284981858832572,-0.092
1748284981866519275,-0.133
1748284981874205978,-0.165
1748284981881892681,-0.182
1748284981889579384,-0.189
1748284981897266087,-0.189
1748284981904952790,-0.184
1748284981912639493,-0.17500000000000002
1748284981920326196,-0.165
1748284981928012899,-0.155
1748284981935699602,-0.145
1748284981943386305,-0.138
1748284981951073008,-0.128
1748284981958759711,-0.121
1748284981966446414,-0.114
1748284981974133117,-0.109
1748284981981819820,-0.109
1748284981989506523,-0.107
1748284981997193226,-0.107
1748284982004879929,-0.109
1748284982012566632,-0.111
1748284982020253335,-0.111
1748284982027940038,-0.114
1748284982035626741,-0.116
1748284982043313444,-0.116
1748284982051000147,-0.114
1748284982058686850,-0.116
1748284982066373553,-0.116
1748284982074060256,-0.114
1748284982081746959,-0.111
1748284982089433662,-0.109
1748284982097120365,-0.109
1748284982104807068,-0.107
1748284982112493771,-0.10400000000000001
1748284982120180474,-0.10400000000000001
1748284982127867177,-0.10200000000000001
1748284982135553880,-0.099
1748284982143240583,-0.097
1748284982150927346,-0.092,69,1041
1748284982158614049,-0.09
1748284982166300752,-0.08700000000000001
1748284982173987455,-0.08700000000000001
1748284982181674158,-0.085
1748284982189360861,-0.082
1748284982197047564,-0.08
1748284982204734267,-0.077
1748284982212420970,-0.075
1748284982220107673,-0.07200000000000001
1748284982227794376,-0.07200000000000001
1748284982235481079,-0.07
1748284982243167782,-0.068
1748284982250854485,-0.068
1748284982258541188,-0.065
1748284982266227891,-0.063
1748284982273914594,-0.06
1748284982281601297,-0.06
1748284982289288000,-0.055
1748284982296974703,-0.053
1748284982304661406,-0.055
1748284982312348109,-0.055
1748284982320034812,-0.053
1748284982327721515,-0.051000000000000004
1748284982335408218,-0.051000000000000004
1748284982343094921,-0.051000000000000004
1748284982350781624,-0.048
1748284982358468327,-0.046
1748284982366155030,-0.048
1748284982373841733,-0.046
1748284982381528436,-0.043000000000000003
1748284982389215139,-0.043000000000000003
1748284982396901842,-0.043000000000000003
1748284982404588545,-0.041
1748284982412275248,-0.038
1748284982419961951,-0.041
1748284982427648654,-0.041
1748284982435335357,-0.038
1748284982443022060,-0.036000000000000004
1748284982450708763,-0.038
1748284982458395466,-0.046
1748284982466082169,-0.051000000000000004
1748284982473768872,-0.048
1748284982481455575,-0.046
1748284982489142278,-0.036000000000000004
1748284982496828981,-0.021
1748284982504515684,-0.014
1748284982512202387,-0.007
1748284982519889090,0.0
1748284982527575793,-0.012
1748284982535262496,-0.034
1748284982542949199,-0.038
1748284982550635902,-0.036000000000000004
1748284982558322605,-0.038
1748284982566009308,-0.038
1748284982573696011,-0.036000000000000004
1748284982581382714,-0.043000000000000003
1748284982589069417,-0.08700000000000001
1748284982596756120,-0.121
1748284982604442823,0.133
1748284982612129526,0.837
1748284982619816229,1.401
1748284982627502932,1.06
1748284982635189635,0.004
1748284982642876338,-0.603
1748284982650563041,-0.372
1748284982658249744,-0.17200000000000001
1748284982665936447,-0.228
1748284982673623150,-0.148
1748284982681309853,-0.065
1748284982688996556,-0.10200000000000001
1748284982696683259,-0.097
1748284982704369962,-0.058
1748284982712056725,-0.058
1748284982719743428,-0.058
1748284982727430131,-0.038
1748284982735116834,-0.029
1748284982742803537,-0.026000000000000002
1748284982750490240,-0.017
1748284982758176943,-0.007
1748284982765863646,0.0
1748284982773550349,0.009000000000000001
1748284982781237052,0.017
1748284982788923755,0.029
1748284982796610458,0.041
1748284982804297161,0.053
1748284982811983864,0.063
1748284982819670567,0.077
1748284982827357270,0.094
1748284982835043973,0.111
1748284982842730676,0.136
1748284982850417379,0.158
1748284982858104082,0.182
1748284982865790785,0.201
1748284982873477488,0.218
1748284982881164191,0.228
1748284982888850894,0.233
1748284982896537597,0.231
1748284982904224300,0.226
1748284982911911003,0.20600000000000002
1748284982919597706,0.17
1748284982927284409,0.11900000000000001
1748284982934971112,0.058
1748284982942657815,-0.002
1748284982950344518,-0.055
1748284982958031221,-0.10200000000000001
1748284982965717924,-0.138
1748284982973404627,-0.16
1748284982981091330,-0.17200000000000001
1748284982988778033,-0.17500000000000002
1748284982996464736,-0.17200000000000001
1748284983004151439,-0.17
1748284983011838142,-0.167
1748284983019524845,-0.16
1748284983027211548,-0.15
1748284983034898251,-0.14300000000000002
1748284983042584954,-0.138
1748284983050271657,-0.131
1748284983057958360,-0.124
1748284983065645063,-0.11900000000000001
1748284983073331766,-0.114
1748284983081018469,-0.111
1748284983088705172,-0.109
1748284983096391875,-0.109
1748284983104078578,-0.107
1748284983111765281,-0.109
1748284983119451984,-0.109
1748284983127138687,-0.111
1748284983134825390,-0.111
1748284983142512093,-0.114
1748284983150198796,-0.111
1748284983157885499,-0.111
1748284983165572202,-0.114
1748284983173258905,-0.111
1748284983180945608,-0.109
1748284983188632311,-0.107
1748284983196319014,-0.10400000000000001
1748284983204005717,-0.10200000000000001
1748284983211692420,-0.099
1748284983219379123,-0.097
1748284983227065826,-0.094
1748284983234752529,-0.092
1748284983242439232,-0.09
1748284983250125935,-0.08700000000000001
1748284983257812638,-0.085
1748284983265499341,-0.082
1748284983273186104,-0.08,68,1022
1748284983280872807,-0.08
1748284983288559510,-0.077
1748284983296246213,-0.075
1748284983303932916,-0.075
1748284983311619619,-0.07200000000000001
1748284983319306322,-0.07
1748284983326993025,-0.068
1748284983334679728,-0.068
1748284983342366431,-0.068
1748284983350053134,-0.065
1748284983357739837,-0.063
1748284983365426540,-0.06
1748284983373113243,-0.06
1748284983380799946,-0.06
1748284983388486649,-0.06
1748284983396173352,-0.058
1748284983403860055,-0.055
1748284983411546758,-0.055
1748284983419233461,-0.053
1748284983426920164,-0.051000000000000004
1748284983434606867,-0.051000000000000004
1748284983442293570,-0.051000000000000004
1748284983449980273,-0.048
1748284983457666976,-0.048
1748284983465353679,-0.046
1748284983473040382,-0.043000000000000003
1748284983480727085,-0.043000000000000003
1748284983488413788,-0.043000000000000003
1748284983496100491,-0.043000000000000003
1748284983503787194,-0.041
1748284983511473897,-0.041
1748284983519160600,-0.041
1748284983526847303,-0.041
1748284983534534006,-0.038
1748284983542220709,-0.038
1748284983549907412,-0.038
1748284983557594115,-0.036000000000000004
1748284983565280818,-0.038
1748284983572967521,-0.038
1748284983580654224,-0.036000000000000004
1748284983588340927,-0.036000000000000004
1748284983596027630,-0.036000000000000004
1748284983603714333,-0.041
1748284983611401036,-0.046
1748284983619087739,-0.048
1748284983626774442,-0.036000000000000004
1748284983634461145,-0.019
1748284983642147848,-0.002
1748284983649834551,0.007
1748284983657521254,0.0
1748284983665207957,-0.014
1748284983672894660,-0.014
1748284983680581363,-0.014
1748284983688268066,-0.024
1748284983695954769,-0.036000000000000004
1748284983703641472,-0.046
1748284983711328175,-0.048
1748284983719014878,-0.046
1748284983726701581,-0.043000000000000003
1748284983734388284,-0.043000000000000003
1748284983742074987,-0.068
1748284983749761690,-0.124
1748284983757448393,-0.06
1748284983765135096,0.423
1748284983772821799,1.158
1748284983780508502,1.348
1748284983788195205,0.5760000000000001
1748284983795881908,-0.401
1748284983803568611,-0.5760000000000001
1748284983811255314,-0.255
1748284983818942017,-0.20400000000000001
1748284983826628720,-0.221
1748284983834315487,-0.10200000000000001,67,1072
1748284983842002190,-0.08
1748284983849688893,-0.114
1748284983857375596,-0.08
1748284983865062299,-0.055
1748284983872749002,-0.065
1748284983880435705,-0.055
1748284983888122408,-0.038
1748284983895809111,-0.036000000000000004
1748284983903495814,-0.026000000000000002
1748284983911182517,-0.017
1748284983918869220,-0.009000000000000001
1748284983926555923,-0.002
1748284983934242626,0.007
1748284983941929329,0.017
1748284983949616032,0.029
1748284983957302735,0.038
1748284983964989438,0.048
1748284983972676141,0.063
1748284983980362844,0.08
1748284983988049547,0.094
1748284983995736250,0.111
1748284984003422953,0.133
1748284984011109656,0.155
1748284984018796359,0.177
1748284984026483062,0.197
1748284984034169765,0.211
1748284984041856468,0.218
1748284984049543171,0.221
1748284984057229874,0.218
1748284984064916577,0.211
1748284984072603280,0.189
1748284984080289983,0.153
1748284984087976686,0.097
1748284984095663389,0.036000000000000004
1748284984103350092,-0.021
1748284984111036795,-0.075
1748284984118723498,-0.116
1748284984126410201,-0.148
1748284984134096904,-0.167
1748284984141783607,-0.177
1748284984149470310,-0.18
1748284984157157013,-0.177
1748284984164843716,-0.17200000000000001
1748284984172530419,-0.167
1748284984180217122,-0.16
1748284984187903825,-0.153
1748284984195590528,-0.145
1748284984203277231,-0.14100000000000001
1748284984210963934,-0.131
1748284984218650637,-0.126
1748284984226337340,-0.126
1748284984234024043,-0.121
1748284984241710746,-0.116
1748284984249397449,-0.116
1748284984257084152,-0.116
1748284984264770855,-0.116
1748284984272457558,-0.116
1748284984280144261,-0.11900000000000001
1748284984287830964,-0.116
1748284984295517667,-0.11900000000000001
1748284984303204370,-0.11900000000000001
1748284984310891073,-0.11900000000000001
1748284984318577776,-0.11900000000000001
1748284984326264479,-0.11900000000000001
1748284984333951182,-0.11900000000000001
1748284984341637885,-0.116
1748284984349324588,-0.114
1748284984357011291,-0.111
1748284984364697994,-0.109
1748284984372384697,-0.107
1748284984380071400,-0.10400000000000001
1748284984387758103,-0.10400000000000001
1748284984395444866,-0.10200000000000001
1748284984403131569,-0.099
1748284984410818272,-0.097
1748284984418504975,-0.097
1748284984426191678,-0.094
1748284984433878381,-0.09
1748284984441565084,-0.09
1748284984449251787,-0.08700000000000001
1748284984456938490,-0.08700000000000001
1748284984464625193,-0.085
1748284984472311896,-0.082
1748284984479998599,-0.082
1748284984487685302,-0.082
1748284984495372005,-0.08
1748284984503058708,-0.077
1748284984510745411,-0.075
1748284984518432114,-0.075
1748284984526118817,-0.07200000000000001
1748284984533805520,-0.07200000000000001
1748284984541492223,-0.07
1748284984549178926,-0.068
1748284984556865629,-0.068
1748284984564552332,-0.068
1748284984572239035,-0.065
1748284984579925738,-0.065
1748284984587612441,-0.065
1748284984595299144,-0.063
1748284984602985847,-0.063
1748284984610672550,-0.06
1748284984618359253,-0.06
1748284984626045956,-0.06
1748284984633732659,-0.06
1748284984641419362,-0.058
1748284984649106065,-0.055
1748284984656792768,-0.055
1748284984664479471,-0.053
1748284984672166174,-0.053
1748284984679852877,-0.053
1748284984687539580,-0.055
1748284984695226283,-0.06
1748284984702912986,-0.06
1748284984710599689,-0.051000000000000004
1748284984718286392,-0.036000000000000004
1748284984725973095,-0.021
1748284984733659798,-0.012
1748284984741346501,-0.012
1748284984749033204,-0.026000000000000002
1748284984756719907,-0.031
1748284984764406610,-0.029
1748284984772093313,-0.034
1748284984779780016,-0.043000000000000003
1748284984787466719,-0.058
1748284984795153422,-0.068
1748284984802840125,-0.063
1748284984810526828,-0.058
1748284984818213531,-0.06
1748284984825900234,-0.068
1748284984833586937,-0.107
1748284984841273640,-0.131
1748284984848960343,0.148
1748284984856647046,0.851
1748284984864333749,1.36
1748284984872020452,0.9530000000000001
1748284984879707155,-0.09
1748284984887393858,-0.647
1748284984895080561,-0.401
1748284984902767264,-0.20400000000000001
1748284984910453967,-0.25
1748284984918140670,-0.163
1748284984925827373,-0.082
1748284984933514076,-0.11900000000000001
1748284984941200779,-0.111
1748284984948887482,-0.07
1748284984956574245,-0.07,66,1095
1748284984964260948,-0.068
1748284984971947651,-0.051000000000000004
1748284984979634354,-0.041
1748284984987321057,-0.036000000000000004
1748284984995007760,-0.024
1748284985002694463,-0.017
1748284985010381166,-0.012
1748284985018067869,0.0
1748284985025754572,0.009000000000000001
1748284985033441275,0.019
1748284985041127978,0.031
1748284985048814681,0.043000000000000003
1748284985056501384,0.055
1748284985064188087,0.07200000000000001
1748284985071874790,0.09
1748284985079561493,0.10400000000000001
1748284985087248196,0.126
1748284985094934899,0.148
1748284985102621602,0.17200000000000001
1748284985110308305,0.194
1748284985117995008,0.211
1748284985125681711,0.223
1748284985133368414,0.228
1748284985141055117,0.226
1748284985148741820,0.218
1748284985156428523,0.201
1748284985164115226,0.167
1748284985171801929,0.114
1748284985179488632,0.053
1748284985187175335,-0.007
1748284985194862038,-0.063
1748284985202548741,-0.109
1748284985210235444,-0.145
1748284985217922147,-0.17200000000000001
1748284985225608850,-0.184
1748284985233295553,-0.187
1748284985240982256,-0.184
1748284985248668959,-0.18
1748284985256355662,-0.17500000000000002
1748284985264042365,-0.165
1748284985271729068,-0.155
1748284985279415771,-0.15
1748284985287102474,-0.14300000000000002
1748284985294789177,-0.136
1748284985302475880,-0.128
1748284985310162583,-0.124
1748284985317849286,-0.121
1748284985325535989,-0.11900000000000001
1748284985333222692,-0.116
1748284985340909395,-0.11900000000000001
1748284985348596098,-0.11900000000000001
1748284985356282801,-0.11900000000000001
1748284985363969504,-0.11900000000000001
1748284985371656207,-0.11900000000000001
1748284985379342910,-0.116
1748284985387029613,-0.116
1748284985394716316,-0.11900000000000001
1748284985402403019,-0.121
1748284985410089722,-0.11900000000000001
1748284985417776425,-0.116
1748284985425463128,-0.114
1748284985433149831,-0.111
1748284985440836534,-0.111
1748284985448523237,-0.111
1748284985456209940,-0.107
1748284985463896643,-0.10400000000000001
1748284985471583346,-0.099
1748284985479270049,-0.097
1748284985486956752,-0.092
1748284985494643455,-0.092
1748284985502330158,-0.092
1748284985510016861,-0.092
1748284985517703624,-0.08700000000000001
1748284985525390258,-0.08700000000000001
1748284985533076892,-0.085
1748284985540763526,-0.08
1748284985548450160,-0.077
1748284985556136794,-0.077
1748284985563823428,-0.075
1748284985571510062,-0.07200000000000001
1748284985579196696,-0.07200000000000001
1748284985586883330,-0.07200000000000001
1748284985594569964,-0.07
1748284985602256598,-0.068
1748284985609943232,-0.068
1748284985617629866,-0.065
1748284985625316500,-0.065
1748284985633003134,-0.065
1748284985640689768,-0.063
1748284985648376402,-0.06
1748284985656063036,-0.058
1748284985663749670,-0.058
1748284985671436304,-0.058
1748284985679122938,-0.055
1748284985686809572,-0.058
1748284985694496206,-0.06
1748284985702182840,-0.055
1748284985709869474,-0.053
1748284985717556108,-0.051000000000000004
1748284985725242742,-0.051000000000000004
1748284985732929376,-0.053
1748284985740616010,-0.055
1748284985748302644,-0.051000000000000004
1748284985755989278,-0.048
1748284985763675912,-0.048
1748284985771362546,-0.048
1748284985779049180,-0.048
1748284985786735814,-0.048
1748284985794422448,-0.051000000000000004
1748284985802109082,-0.055
1748284985809795716,-0.055
1748284985817482350,-0.036000000000000004
1748284985825168984,-0.017
1748284985832855618,-0.009000000000000001
1748284985840542252,-0.007
1748284985848228886,-0.014
1748284985855915520,-0.026000000000000002
1748284985863602154,-0.026000000000000002
1748284985871288788,-0.026000000000000002
1748284985878975422,-0.034
1748284985886662056,-0.043000000000000003
1748284985894348690,-0.058
1748284985902035324,-0.06
1748284985909721958,-0.053
1748284985917408592,-0.053
1748284985925095226,-0.058
1748284985932781860,-0.077
1748284985940468494,-0.121
1748284985948155128,-0.002
1748284985955841762,0.559
1748284985963528396,1.245
1748284985971215030,1.209
1748284985978901664,0.272
1748284985986588298,-0.5760000000000001
1748284985994274932,-0.547
1748284986001961566,-0.25
1748284986009648200,-0.248
1748284986017334834,-0.211
1748284986025021468,-0.085
1748284986032708102,-0.09
1748284986040394736,-0.109
1748284986048081370,-0.07
1748284986055768004,-0.055
1748284986063454638,-0.058
1748284986071141272,-0.043000000000000003
1748284986078827920,-0.031,65,1157
1748284986086514275,-0.029
1748284986094200630,-0.021
1748284986101886985,-0.009000000000000001
1748284986109573340,-0.002
1748284986117259695,0.004
1748284986124946050,0.014
1748284986132632405,0.026000000000000002
1748284986140318760,0.036000000000000004
1748284986148005115,0.046
1748284986155691470,0.058
1748284986163377825,0.07
1748284986171064180,0.08700000000000001
1748284986178750535,0.109
1748284986186436890,0.128
1748284986194123245,0.15
1748284986201809600,0.177
1748284986209495955,0.199
1748284986217182310,0.216
1748284986224868665,0.228
1748284986232555020,0.23600000000000002
1748284986240241375,0.23600000000000002
1748284986247927730,0.233
1748284986255614085,0.221
1748284986263300440,0.194
1748284986270986795,0.15
1748284986278673150,0.092
1748284986286359505,0.029
1748284986294045860,-0.034
1748284986301732215,-0.09
1748284986309418570,-0.133
1748284986317104925,-0.165
1748284986324791280,-0.184
1748284986332477635,-0.192
1748284986340163990,-0.194
1748284986347850345,-0.192
1748284986355536700,-0.184
1748284986363223055,-0.17500000000000002
1748284986370909410,-0.167
1748284986378595765,-0.158
1748284986386282120,-0.148
1748284986393968475,-0.14100000000000001
1748284986401654830,-0.133
1748284986409341185,-0.126
1748284986417027540,-0.124
1748284986424713895,-0.121
1748284986432400250,-0.116
1748284986440086605,-0.116
1748284986447772960,-0.11900000000000001
1748284986455459315,-0.121
1748284986463145670,-0.11900000000000001
1748284986470832025,-0.121
1748284986478518380,-0.121
1748284986486204735,-0.121
1748284986493891090,-0.124
1748284986501577445,-0.124
1748284986509263800,-0.121
1748284986516950155,-0.11900000000000001
1748284986524636510,-0.11900000000000001
1748284986532322865,-0.116
1748284986540009220,-0.114
1748284986547695575,-0.114
1748284986555381930,-0.111
1748284986563068285,-0.109
1748284986570754640,-0.109
1748284986578440995,-0.107
1748284986586127350,-0.10400000000000001
1748284986593813705,-0.10200000000000001
1748284986601500060,-0.099
1748284986609186415,-0.094
1748284986616872770,-0.094
1748284986624559125,-0.094
1748284986632245480,-0.092
1748284986639931864,-0.08700000000000001
1748284986647618637,-0.08700000000000001
1748284986655305410,-0.085
1748284986662992183,-0.085
1748284986670678956,-0.082
1748284986678365729,-0.08
1748284986686052502,-0.077
1748284986693739275,-0.077
1748284986701426048,-0.075
1748284986709112821,-0.07200000000000001
1748284986716799594,-0.07200000000000001
1748284986724486367,-0.07200000000000001
1748284986732173140,-0.07
1748284986739859913,-0.07
1748284986747546686,-0.068
1748284986755233459,-0.065
1748284986762920232,-0.063
1748284986770607005,-0.063
1748284986778293778,-0.063
1748284986785980551,-0.06
1748284986793667324,-0.058
1748284986801354097,-0.055
1748284986809040870,-0.053
1748284986816727643,-0.053
1748284986824414416,-0.053
1748284986832101189,-0.051000000000000004
1748284986839787962,-0.053
1748284986847474735,-0.058
1748284986855161508,-0.063
1748284986862848281,-0.058
1748284986870535054,-0.041
1748284986878221827,-0.024
1748284986885908600,-0.012
1748284986893595373,-0.007
1748284986901282146,-0.019
1748284986908968919,-0.029
1748284986916655692,-0.026000000000000002
1748284986924342465,-0.029
1748284986932029238,-0.036000000000000004
1748284986939716011,-0.048
1748284986947402784,-0.063
1748284986955089557,-0.06
1748284986962776330,-0.053
1748284986970463103,-0.053
1748284986978149876,-0.058
1748284986985836649,-0.08700000000000001
1748284986993523422,-0.126
1748284987001210195,0.058
1748284987008896968,0.6880000000000001
1748284987016583741,1.316
1748284987024270514,1.1260000000000001
1748284987031957287,0.124
1748284987039644060,-0.613
1748284987047330833,-0.47600000000000003
1748284987055017606,-0.216
1748284987062704379,-0.245
1748284987070391152,-0.184
1748284987078077925,-0.075
1748284987085764698,-0.097
1748284987093451471,-0.109
1748284987101138244,-0.065
1748284987108825017,-0.058
1748284987116511790,-0.06
1748284987124198563,-0.046
1748284987131885336,-0.036000000000000004
1748284987139572109,-0.031
1748284987147258882,-0.021
1748284987154945655,-0.012
1748284987162632428,-0.002
1748284987170319201,0.007
1748284987178005974,0.014
1748284987185692747,0.024
1748284987193379520,0.036000000000000004
1748284987201066334,0.048,64,1087
1748284987208752968,0.058
1748284987216439602,0.075
1748284987224126236,0.092
1748284987231812870,0.109
1748284987239499504,0.128
1748284987247186138,0.153
1748284987254872772,0.177
1748284987262559406,0.199
1748284987270246040,0.216
1748284987277932674,0.231
1748284987285619308,0.23800000000000002
1748284987293305942,0.23800000000000002
1748284987300992576,0.231
1748284987308679210,0.216
1748284987316365844,0.184
1748284987324052478,0.136
1748284987331739112,0.075
1748284987339425746,0.012
1748284987347112380,-0.048
1748284987354799014,-0.10200000000000001
1748284987362485648,-0.14100000000000001
1748284987370172282,-0.167
1748284987377858916,-0.182
1748284987385545550,-0.187
1748284987393232184,-0.187
1748284987400918818,-0.184
1748284987408605452,-0.17500000000000002
1748284987416292086,-0.167
1748284987423978720,-0.16
1748284987431665354,-0.153
1748284987439351988,-0.14300000000000002
1748284987447038622,-0.138
1748284987454725256,-0.133
1748284987462411890,-0.128
1748284987470098524,-0.121
1748284987477785158,-0.11900000000000001
1748284987485471792,-0.116
1748284987493158426,-0.116
1748284987500845060,-0.116
1748284987508531694,-0.11900000000000001
1748284987516218328,-0.11900000000000001
1748284987523904962,-0.116
1748284987531591596,-0.11900000000000001
1748284987539278230,-0.11900000000000001
1748284987546964864,-0.116
1748284987554651498,-0.116
1748284987562338132,-0.116
1748284987570024766,-0.116
1748284987577711400,-0.116
1748284987585398034,-0.114
1748284987593084668,-0.111
1748284987600771302,-0.109
1748284987608457936,-0.107
1748284987616144570,-0.10400000000000001
1748284987623831204,-0.099
1748284987631517838,-0.099
1748284987639204472,-0.097
1748284987646891106,-0.094
1748284987654577740,-0.092
1748284987662264374,-0.09
1748284987669951008,-0.08700000000000001
1748284987677637642,-0.085
1748284987685324276,-0.082
1748284987693010910,-0.08
1748284987700697544,-0.08
1748284987708384178,-0.077
1748284987716070812,-0.077
1748284987723757446,-0.075
1748284987731444080,-0.07200000000000001
1748284987739130714,-0.07
1748284987746817348,-0.068
1748284987754503982,-0.065
1748284987762190626,-0.068
1748284987769877329,-0.068
1748284987777564032,-0.065
1748284987785250735,-0.063
1748284987792937438,-0.063
1748284987800624141,-0.06
1748284987808310844,-0.06
1748284987815997547,-0.06
1748284987823684250,-0.06
1748284987831370953,-0.058
1748284987839057656,-0.055
1748284987846744359,-0.058
1748284987854431062,-0.058
1748284987862117765,-0.055
1748284987869804468,-0.055
1748284987877491171,-0.055
1748284987885177874,-0.053
1748284987892864577,-0.053
1748284987900551280,-0.053
1748284987908237983,-0.051000000000000004
1748284987915924686,-0.051000000000000004
1748284987923611389,-0.048
1748284987931298092,-0.048
1748284987938984795,-0.051000000000000004
1748284987946671498,-0.048
1748284987954358201,-0.046
1748284987962044904,-0.046
1748284987969731607,-0.046
1748284987977418310,-0.046
1748284987985105013,-0.046
1748284987992791716,-0.048
1748284988000478419,-0.048
1748284988008165122,-0.053
1748284988015851825,-0.048
1748284988023538528,-0.031
1748284988031225231,-0.017
1748284988038911934,-0.004
1748284988046598637,0.0
1748284988054285340,-0.014
1748284988061972043,-0.026000000000000002
1748284988069658746,-0.021
1748284988077345449,-0.024
1748284988085032152,-0.031
1748284988092718855,-0.046
1748284988100405558,-0.058
1748284988108092261,-0.058
1748284988115778964,-0.051000000000000004
1748284988123465667,-0.051000000000000004
1748284988131152370,-0.058
1748284988138839073,-0.09
1748284988146525776,-0.133
1748284988154212479,0.041
1748284988161899182,0.659
1748284988169585885,1.292
1748284988177272588,1.163
1748284988184959291,0.214
1748284988192645994,-0.5690000000000001
1748284988200332697,-0.486
1748284988208019400,-0.209
1748284988215706103,-0.233
1748284988223392806,-0.197
1748284988231079509,-0.092
1748284988238766212,-0.107
1748284988246452915,-0.121
1748284988254139618,-0.08
1748284988261826321,-0.068
1748284988269513024,-0.07200000000000001
1748284988277199727,-0.058
1748284988284886430,-0.046
1748284988292573133,-0.043000000000000003
1748284988300259836,-0.034
1748284988307946539,-0.021
1748284988315633242,-0.017
1748284988323320005,-0.009000000000000001,64
1748284988331006708,0.0
1748284988338693411,0.009000000000000001
1748284988346380114,0.019
1748284988354066817,0.029
1748284988361753520,0.038
1748284988369440223,0.048
1748284988377126926,0.065
1748284988384813629,0.082
1748284988392500332,0.099
1748284988400187035,0.11900000000000001
1748284988407873738,0.14100000000000001
1748284988415560441,0.16
1748284988423247144,0.177
1748284988430933847,0.189
1748284988438620550,0.197
1748284988446307253,0.197
1748284988453993956,0.192
1748284988461680659,0.182
1748284988469367362,0.16
1748284988477054065,0.121
1748284988484740768,0.07
1748284988492427471,0.009000000000000001
1748284988500114174,-0.048
1748284988507800877,-0.099
1748284988515487580,-0.14100000000000001
1748284988523174283,-0.17200000000000001
1748284988530860986,-0.192
1748284988538547689,-0.201
1748284988546234392,-0.20400000000000001
1748284988553921095,-0.201
1748284988561607798,-0.199
1748284988569294501,-0.194
1748284988576981204,-0.187
1748284988584667907,-0.182
1748284988592354610,-0.177
1748284988600041313,-0.17200000000000001
1748284988607728016,-0.167
1748284988615414719,-0.165
1748284988623101422,-0.163
1748284988630788125,-0.16
1748284988638474828,-0.16
1748284988646161531,-0.158
1748284988653848234,-0.158
1748284988661534937,-0.158
1748284988669221640,-0.16
1748284988676908343,-0.16
1748284988684595046,-0.163
1748284988692281749,-0.163
1748284988699968452,-0.165
1748284988707655155,-0.165
1748284988715341858,-0.165
1748284988723028561,-0.165
1748284988730715264,-0.165
1748284988738401967,-0.165
1748284988746088670,-0.165
1748284988753775373,-0.163
1748284988761462076,-0.16
1748284988769148779,-0.158
1748284988776835482,-0.158
1748284988784522185,-0.158
1748284988792208888,-0.155
1748284988799895591,-0.155
1748284988807582294,-0.153
1748284988815268997,-0.15
1748284988822955700,-0.148
1748284988830642403,-0.148
1748284988838329106,-0.148
1748284988846015809,-0.148
1748284988853702512,-0.148
1748284988861389215,-0.148
1748284988869075918,-0.145
1748284988876762621,-0.145
1748284988884449384,-0.14300000000000002,63,1102
1748284988892136087,-0.14100000000000001
1748284988899822790,-0.14100000000000001
1748284988907509493,-0.138
1748284988915196196,-0.138
1748284988922882899,-0.138
1748284988930569602,-0.138
1748284988938256305,-0.136
1748284988945943008,-0.136
1748284988953629711,-0.133
1748284988961316414,-0.133
1748284988969003117,-0.133
1748284988976689820,-0.131
1748284988984376523,-0.131
1748284988992063226,-0.131
1748284988999749929,-0.128
1748284989007436632,-0.126
1748284989015123335,-0.126
1748284989022810038,-0.126
1748284989030496741,-0.126
1748284989038183444,-0.126
1748284989045870147,-0.124
1748284989053556850,-0.121
1748284989061243553,-0.124
1748284989068930256,-0.124
1748284989076616959,-0.121
1748284989084303662,-0.121
1748284989091990365,-0.11900000000000001
1748284989099677068,-0.11900000000000001
1748284989107363771,-0.11900000000000001
1748284989115050474,-0.116
1748284989122737177,-0.114
1748284989130423880,-0.114
1748284989138110583,-0.114
1748284989145797286,-0.111
1748284989153483989,-0.111
1748284989161170692,-0.109
1748284989168857395,-0.111
1748284989176544098,-0.11900000000000001
1748284989184230801,-0.121
1748284989191917504,-0.107
1748284989199604207,-0.09
1748284989207290910,-0.075
1748284989214977613,-0.065
1748284989222664316,-0.07
1748284989230351019,-0.085
1748284989238037722,-0.09
1748284989245724425,-0.085
1748284989253411128,-0.08700000000000001
1748284989261097831,-0.097
1748284989268784534,-0.109
1748284989276471237,-0.11900000000000001
1748284989284157940,-0.114
1748284989291844643,-0.107
1748284989299531346,-0.109
1748284989307218049,-0.121
1748284989314904752,-0.17
1748284989322591455,-0.14300000000000002
1748284989330278158,0.26
1748284989337964861,0.985
1748284989345651564,1.296
1748284989353338267,0.669
1748284989361024970,-0.338
1748284989368711673,-0.671
1748284989376398376,-0.364
1748284989384085079,-0.248
1748284989391771782,-0.28400000000000003
1748284989399458485,-0.17500000000000002
1748284989407145188,-0.126
1748284989414831891,-0.16
1748284989422518594,-0.138
1748284989430205297,-0.109
1748284989437892000,-0.111
1748284989445578763,-0.10200000000000001
1748284989453265466,-0.082
1748284989460952169,-0.075
1748284989468638872,-0.07
1748284989476325575,-0.058
1748284989484012278,-0.048
1748284989491698981,-0.038
1748284989499385684,-0.031
1748284989507072387,-0.021
1748284989514759090,-0.009000000000000001
1748284989522445793,0.004
1748284989530132496,0.019
1748284989537819199,0.034
1748284989545505902,0.046
1748284989553192605,0.06
1748284989560879308,0.08
1748284989568566011,0.10200000000000001
1748284989576252714,0.124
1748284989583939417,0.145
1748284989591626120,0.165
1748284989599312823,0.182
1748284989606999526,0.194
1748284989614686229,0.199
1748284989622372932,0.197
1748284989630059635,0.187
1748284989637746338,0.17200000000000001
1748284989645433041,0.145
1748284989653119744,0.10400000000000001
1748284989660806447,0.048
1748284989668493150,-0.009000000000000001
1748284989676179853,-0.063
1748284989683866556,-0.107
1748284989691553259,-0.145
1748284989699239962,-0.17
1748284989706926665,-0.184
1748284989714613368,-0.189
1748284989722300071,-0.187
1748284989729986774,-0.182
1748284989737673477,-0.177
1748284989745360180,-0.17
1748284989753046883,-0.163
1748284989760733586,-0.153
1748284989768420289,-0.145
1748284989776106992,-0.14300000000000002
1748284989783793695,-0.138
1748284989791480398,-0.131
1748284989799167101,-0.124
1748284989806853804,-0.121
1748284989814540507,-0.11900000000000001
1748284989822227210,-0.116
1748284989829913913,-0.11900000000000001
1748284989837600616,-0.11900000000000001
1748284989845287319,-0.114
1748284989852974022,-0.114
1748284989860660725,-0.116
1748284989868347428,-0.116
1748284989876034131,-0.116
1748284989883720834,-0.111
1748284989891407537,-0.109
1748284989899094240,-0.109
1748284989906780943,-0.109
1748284989914467646,-0.109
1748284989922154349,-0.107
1748284989929841052,-0.099
1748284989937527755,-0.099
1748284989945214458,-0.099
1748284989952901161,-0.094
1748284989960587864,-0.09
1748284989968274567,-0.092
1748284989975961270,-0.09
1748284989983647973,-0.085
1748284989991334676,-0.082
1748284989999021379,-0.085
1748284990006708146,-0.08,62,1052
1748284990014394501,-0.075
1748284990022080856,-0.07200000000000001
1748284990029767211,-0.07
1748284990037453566,-0.068
1748284990045139921,-0.07
1748284990052826276,-0.068
1748284990060512631,-0.063
1748284990068198986,-0.058
1748284990075885341,-0.058
1748284990083571696,-0.058
1748284990091258051,-0.055
1748284990098944406,-0.053
1748284990106630761,-0.055
1748284990114317116,-0.051000000000000004
1748284990122003471,-0.051000000000000004
1748284990129689826,-0.053
1748284990137376181,-0.048
1748284990145062536,-0.046
1748284990152748891,-0.048
1748284990160435246,-0.048
1748284990168121601,-0.043000000000000003
1748284990175807956,-0.043000000000000003
1748284990183494311,-0.043000000000000003
1748284990191180666,-0.038
1748284990198867021,-0.041
1748284990206553376,-0.043000000000000003
1748284990214239731,-0.036000000000000004
1748284990221926086,-0.031
1748284990229612441,-0.036000000000000004
1748284990237298796,-0.036000000000000004
1748284990244985151,-0.034
1748284990252671506,-0.031
1748284990260357861,-0.034
1748284990268044216,-0.031
1748284990275730571,-0.029
1748284990283416926,-0.029
1748284990291103281,-0.026000000000000002
1748284990298789636,-0.026000000000000002
1748284990306475991,-0.036000000000000004
1748284990314162346,-0.038
1748284990321848701,-0.031
1748284990329535056,-0.019
1748284990337221411,-0.004
1748284990344907766,0.007
1748284990352594121,0.014
1748284990360280476,0.004
1748284990367966831,-0.007
1748284990375653186,-0.009000000000000001
1748284990383339541,-0.009000000000000001
1748284990391025896,-0.017
1748284990398712251,-0.026000000000000002
1748284990406398606,-0.043000000000000003
1748284990414084961,-0.048
1748284990421771316,-0.038
1748284990429457671,-0.031
1748284990437144026,-0.036000000000000004
1748284990444830381,-0.058
1748284990452516736,-0.094
1748284990460203091,0.017
1748284990467889446,0.557
1748284990475575801,1.25
1748284990483262156,1.233
1748284990490948511,0.28700000000000003
1748284990498634866,-0.586
1748284990506321221,-0.5640000000000001
1748284990514007576,-0.25
1748284990521693931,-0.245
1748284990529380286,-0.209
1748284990537066641,-0.068
1748284990544752996,-0.063
1748284990552439351,-0.092
1748284990560125706,-0.055
1748284990567812094,-0.034
1748284990575498728,-0.038
1748284990583185362,-0.026000000000000002
1748284990590871996,-0.014
1748284990598558630,-0.009000000000000001
1748284990606245264,-0.002
1748284990613931898,0.009000000000000001
1748284990621618532,0.017
1748284990629305166,0.024
1748284990636991800,0.031
1748284990644678434,0.038
1748284990652365068,0.048
1748284990660051702,0.063
1748284990667738336,0.077
1748284990675424970,0.09
1748284990683111604,0.10400000000000001
1748284990690798238,0.124
1748284990698484872,0.14300000000000002
1748284990706171506,0.163
1748284990713858140,0.187
1748284990721544774,0.211
1748284990729231408,0.231
1748284990736918042,0.243
1748284990744604676,0.25
1748284990752291310,0.25
1748284990759977944,0.248
1748284990767664578,0.233
1748284990775351212,0.209
1748284990783037846,0.167
1748284990790724480,0.109
1748284990798411114,0.046
1748284990806097748,-0.014
1748284990813784382,-0.07200000000000001
1748284990821471016,-0.121
1748284990829157650,-0.158
1748284990836844284,-0.18
1748284990844530918,-0.192
1748284990852217552,-0.194
1748284990859904186,-0.189
1748284990867590820,-0.182
1748284990875277454,-0.17500000000000002
1748284990882964088,-0.167
1748284990890650722,-0.158
1748284990898337356,-0.15
1748284990906023990,-0.14300000000000002
1748284990913710624,-0.133
1748284990921397258,-0.124
1748284990929083892,-0.121
1748284990936770526,-0.11900000000000001
1748284990944457160,-0.116
1748284990952143794,-0.114
1748284990959830428,-0.116
1748284990967517062,-0.116
1748284990975203696,-0.116
1748284990982890330,-0.116
1748284990990576964,-0.11900000000000001
1748284990998263598,-0.11900000000000001
1748284991005950232,-0.11900000000000001
1748284991013636866,-0.11900000000000001
1748284991021323500,-0.11900000000000001
1748284991029010134,-0.116
1748284991036696768,-0.116
1748284991044383402,-0.114
1748284991052070036,-0.114
1748284991059756670,-0.114
1748284991067443304,-0.111
1748284991075129938,-0.109
1748284991082816572,-0.10400000000000001
1748284991090503206,-0.10400000000000001
1748284991098189840,-0.10200000000000001
1748284991105876474,-0.099
1748284991113563108,-0.097
1748284991121249742,-0.097
1748284991128936386,-0.092,61,1153
1748284991136623089,-0.09
1748284991144309792,-0.08700000000000001
1748284991151996495,-0.085
1748284991159683198,-0.082
1748284991167369901,-0.082
1748284991175056604,-0.08
1748284991182743307,-0.08
1748284991190430010,-0.077
1748284991198116713,-0.075
1748284991205803416,-0.07200000000000001
1748284991213490119,-0.07200000000000001
1748284991221176822,-0.07200000000000001
1748284991228863525,-0.07200000000000001
1748284991236550228,-0.068
1748284991244236931,-0.068
1748284991251923634,-0.068
1748284991259610337,-0.068
1748284991267297040,-0.065
1748284991274983743,-0.063
1748284991282670446,-0.063
1748284991290357149,-0.063
1748284991298043852,-0.063
1748284991305730555,-0.063
1748284991313417258,-0.06
1748284991321103961,-0.058
1748284991328790664,-0.058
1748284991336477367,-0.058
1748284991344164070,-0.055
1748284991351850773,-0.055
1748284991359537476,-0.055
1748284991367224179,-0.055
1748284991374910882,-0.055
1748284991382597585,-0.06
1748284991390284288,-0.063
1748284991397970991,-0.055
1748284991405657694,-0.041
1748284991413344397,-0.024
1748284991421031100,-0.014
1748284991428717803,-0.012
1748284991436404506,-0.024
1748284991444091209,-0.034
1748284991451777912,-0.029
1748284991459464615,-0.034
1748284991467151318,-0.043000000000000003
1748284991474838021,-0.055
1748284991482524724,-0.068
1748284991490211427,-0.065
1748284991497898130,-0.06
1748284991505584833,-0.06
1748284991513271536,-0.07
1748284991520958239,-0.10400000000000001
1748284991528644942,-0.136
1748284991536331645,0.116
1748284991544018348,0.802
1748284991551705051,1.367
1748284991559391754,1.056
1748284991567078457,0.021
1748284991574765160,-0.637
1748284991582451863,-0.442
1748284991590138566,-0.211
1748284991597825269,-0.257
1748284991605511972,-0.189
1748284991613198675,-0.097
1748284991620885378,-0.126
1748284991628572081,-0.126
1748284991636258784,-0.085
1748284991643945487,-0.082
1748284991651632190,-0.085
1748284991659318893,-0.068
1748284991667005596,-0.06
1748284991674692299,-0.058
1748284991682379002,-0.048
1748284991690065765,-0.038
1748284991697752468,-0.031
1748284991705439171,-0.024
1748284991713125874,-0.017
1748284991720812577,-0.009000000000000001
1748284991728499280,0.002
1748284991736185983,0.014
1748284991743872686,0.024
1748284991751559389,0.036000000000000004
1748284991759246092,0.053
1748284991766932795,0.07
1748284991774619498,0.09
1748284991782306201,0.111
1748284991789992904,0.136
1748284991797679607,0.155
1748284991805366310,0.17500000000000002
1748284991813053013,0.189
1748284991820739716,0.194
1748284991828426419,0.194
1748284991836113122,0.187
1748284991843799825,0.17
1748284991851486528,0.138
1748284991859173231,0.092
1748284991866859934,0.031
1748284991874546637,-0.036000000000000004
1748284991882233340,-0.099
1748284991889920043,-0.15
1748284991897606746,-0.194
1748284991905293449,-0.223
1748284991912980152,-0.24
1748284991920666855,-0.248
1748284991928353558,-0.25
1748284991936040261,-0.248
1748284991943726964,-0.243
1748284991951413667,-0.23800000000000002
1748284991959100370,-0.233
1748284991966787073,-0.226
1748284991974473776,-0.218
1748284991982160479,-0.214
1748284991989847182,-0.209
1748284991997533885,-0.201
1748284992005220588,-0.197
1748284992012907291,-0.197
1748284992020593994,-0.194
1748284992028280697,-0.192
1748284992035967400,-0.192
1748284992043654103,-0.192
1748284992051340806,-0.192
1748284992059027509,-0.192
1748284992066714212,-0.192
1748284992074400915,-0.194
1748284992082087618,-0.194
1748284992089774321,-0.197
1748284992097461024,-0.197
1748284992105147727,-0.194
1748284992112834430,-0.194
1748284992120521133,-0.194
1748284992128207836,-0.192
1748284992135894539,-0.189
1748284992143581242,-0.189
1748284992151267945,-0.187
1748284992158954648,-0.182
1748284992166641351,-0.18
1748284992174328054,-0.18
1748284992182014757,-0.177
1748284992189701460,-0.17200000000000001
1748284992197388163,-0.17
1748284992205074866,-0.167
1748284992212761569,-0.163
1748284992220448272,-0.163
1748284992228134975,-0.16
1748284992235821678,-0.158
1748284992243508381,-0.155
1748284992251195144,-0.153,61,1172
1748284992258881847,-0.148
1748284992266568550,-0.145
1748284992274255253,-0.14300000000000002
1748284992281941956,-0.14100000000000001
1748284992289628659,-0.138
1748284992297315362,-0.136
1748284992305002065,-0.136
1748284992312688768,-0.133
1748284992320375471,-0.128
1748284992328062174,-0.126
1748284992335748877,-0.126
1748284992343435580,-0.124
1748284992351122283,-0.121
1748284992358808986,-0.121
1748284992366495689,-0.116
1748284992374182392,-0.111
1748284992381869095,-0.111
1748284992389555798,-0.109
1748284992397242501,-0.10400000000000001
1748284992404929204,-0.10400000000000001
1748284992412615907,-0.10200000000000001
1748284992420302610,-0.099
1748284992427989313,-0.099
1748284992435676016,-0.097
1748284992443362719,-0.09
1748284992451049422,-0.085
1748284992458736125,-0.082
1748284992466422828,-0.082
1748284992474109531,-0.08
1748284992481796234,-0.08
1748284992489482937,-0.08
1748284992497169640,-0.065
1748284992504856343,-0.041
1748284992512543046,-0.026000000000000002
1748284992520229749,-0.017
1748284992527916452,-0.019
1748284992535603155,-0.031
1748284992543289858,-0.029
1748284992550976561,-0.024
1748284992558663264,-0.029
1748284992566349967,-0.034
1748284992574036670,-0.046
1748284992581723373,-0.051000000000000004
1748284992589410076,-0.043000000000000003
1748284992597096779,-0.036000000000000004
1748284992604783482,-0.034
1748284992612470185,-0.046
1748284992620156888,-0.092
1748284992627843591,-0.07
1748284992635530294,0.333
1748284992643216997,1.075
1748284992650903700,1.425
1748284992658590403,0.8150000000000001
1748284992666277106,-0.223
1748284992673963809,-0.596
1748284992681650512,-0.28700000000000003
1748284992689337215,-0.158
1748284992697023918,-0.199
1748284992704710621,-0.092
1748284992712397324,-0.036000000000000004
1748284992720084027,-0.07
1748284992727770730,-0.051000000000000004
1748284992735457433,-0.014
1748284992743144136,-0.017
1748284992750830839,-0.007
1748284992758517542,0.012
1748284992766204245,0.017
1748284992773890948,0.024
1748284992781577651,0.036000000000000004
1748284992789264354,0.046
1748284992796951057,0.055
1748284992804637760,0.065
1748284992812324523,0.077,60,1135
1748284992820011226,0.08700000000000001
1748284992827697929,0.099
1748284992835384632,0.111
1748284992843071335,0.126
1748284992850758038,0.14100000000000001
1748284992858444741,0.158
1748284992866131444,0.177
1748284992873818147,0.201
1748284992881504850,0.226
1748284992889191553,0.25
1748284992896878256,0.272
1748284992904564959,0.291
1748284992912251662,0.304
1748284992919938365,0.309
1748284992927625068,0.309
1748284992935311771,0.304
1748284992942998474,0.28400000000000003
1748284992950685177,0.253
1748284992958371880,0.201
1748284992966058583,0.14300000000000002
1748284992973745286,0.08
1748284992981431989,0.021
1748284992989118692,-0.026000000000000002
1748284992996805395,-0.063
1748284993004492098,-0.08700000000000001
1748284993012178801,-0.10200000000000001
1748284993019865504,-0.107
1748284993027552207,-0.109
1748284993035238910,-0.107
1748284993042925613,-0.099
1748284993050612316,-0.094
1748284993058299019,-0.09
1748284993065985722,-0.08
1748284993073672425,-0.075
1748284993081359128,-0.07
1748284993089045831,-0.065
1748284993096732534,-0.058
1748284993104419237,-0.055
1748284993112105940,-0.055
1748284993119792643,-0.053
1748284993127479346,-0.053
1748284993135166049,-0.053
1748284993142852752,-0.051000000000000004
1748284993150539455,-0.051000000000000004
1748284993158226158,-0.051000000000000004
1748284993165912861,-0.051000000000000004
1748284993173599564,-0.055
1748284993181286267,-0.055
1748284993188972970,-0.055
1748284993196659673,-0.055
1748284993204346376,-0.058
1748284993212033079,-0.055
1748284993219719782,-0.055
1748284993227406485,-0.055
1748284993235093188,-0.055
1748284993242779891,-0.053
1748284993250466594,-0.053
1748284993258153297,-0.051000000000000004
1748284993265840000,-0.051000000000000004
1748284993273526703,-0.048
1748284993281213406,-0.048
1748284993288900109,-0.048
1748284993296586812,-0.046
1748284993304273515,-0.046
1748284993311960218,-0.043000000000000003
1748284993319646921,-0.041
1748284993327333624,-0.043000000000000003
1748284993335020327,-0.043000000000000003
1748284993342707030,-0.041
1748284993350393733,-0.038
1748284993358080436,-0.038
1748284993365767139,-0.038
1748284993373453902,-0.038
1748284993381140605,-0.038
1748284993388827308,-0.036000000000000004
1748284993396514011,-0.036000000000000004
1748284993404200714,-0.036000000000000004
1748284993411887417,-0.036000000000000004
1748284993419574120,-0.034
1748284993427260823,-0.029
1748284993434947526,-0.026000000000000002
1748284993442634229,-0.029
1748284993450320932,-0.029
1748284993458007635,-0.029
1748284993465694338,-0.029
1748284993473381041,-0.029
1748284993481067744,-0.026000000000000002
1748284993488754447,-0.026000000000000002
1748284993496441150,-0.029
1748284993504127853,-0.031
1748284993511814556,-0.034
1748284993519501259,-0.038
1748284993527187962,-0.036000000000000004
1748284993534874665,-0.034
1748284993542561368,-0.034
1748284993550248071,-0.034
1748284993557934774,-0.031
1748284993565621477,-0.031
1748284993573308180,-0.034
1748284993580994883,-0.036000000000000004
1748284993588681586,-0.036000000000000004
1748284993596368289,-0.034
1748284993604054992,-0.034
1748284993611741695,-0.036000000000000004
1748284993619428398,-0.036000000000000004
1748284993627115101,-0.036000000000000004
1748284993634801804,-0.041
1748284993642488507,-0.048
1748284993650175210,-0.043000000000000003
1748284993657861913,-0.026000000000000002
1748284993665548616,-0.009000000000000001
1748284993673235319,-0.004
1748284993680922022,-0.002
1748284993688608725,-0.009000000000000001
1748284993696295428,-0.017
1748284993703982131,-0.019
1748284993711668834,-0.026000000000000002
1748284993719355537,-0.036000000000000004
1748284993727042240,-0.046
1748284993734728943,-0.058
1748284993742415646,-0.065
1748284993750102349,-0.058
1748284993757789052,-0.055
1748284993765475755,-0.06
1748284993773162458,-0.09
1748284993780849161,-0.128
1748284993788535864,0.036000000000000004
1748284993796222567,0.649
1748284993803909270,1.304
1748284993811595973,1.172
1748284993819282676,0.189
1748284993826969379,-0.618
1748284993834656082,-0.54
1748284993842342785,-0.253
1748284993850029488,-0.267
1748284993857716191,-0.223
1748284993865402894,-0.10400000000000001
1748284993873089597,-0.114
1748284993880776300,-0.131
1748284993888463003,-0.092
1748284993896149706,-0.08
1748284993903836409,-0.085
1748284993911523112,-0.07
1748284993919209815,-0.06
1748284993926896518,-0.053
1748284993934583285,-0.043000000000000003,59,1074
1748284993942269988,-0.036000000000000004
1748284993949956691,-0.029
1748284993957643394,-0.021
1748284993965330097,-0.009000000000000001
1748284993973016800,0.0
1748284993980703503,0.007
1748284993988390206,0.012
1748284993996076909,0.026000000000000002
1748284994003763612,0.046
1748284994011450315,0.065
1748284994019137018,0.08
1748284994026823721,0.099
1748284994034510424,0.126
1748284994042197127,0.15
1748284994049883830,0.167
1748284994057570533,0.182
1748284994065257236,0.201
1748284994072943939,0.216
1748284994080630642,0.218
1748284994088317345,0.216
1748284994096004048,0.20600000000000002
1748284994103690751,0.182
1748284994111377454,0.138
1748284994119064157,0.085
1748284994126750860,0.021
1748284994134437563,-0.046
1748284994142124266,-0.107
1748284994149810969,-0.153
1748284994157497672,-0.187
1748284994165184375,-0.209
1748284994172871078,-0.223
1748284994180557781,-0.228
1748284994188244484,-0.228
1748284994195931187,-0.223
1748284994203617890,-0.214
1748284994211304593,-0.20400000000000001
1748284994218991296,-0.199
1748284994226677999,-0.192
1748284994234364702,-0.182
1748284994242051405,-0.17200000000000001
1748284994249738108,-0.17
1748284994257424811,-0.165
1748284994265111514,-0.158
1748284994272798217,-0.153
1748284994280484920,-0.15
1748284994288171623,-0.15
1748284994295858326,-0.153
1748284994303545029,-0.155
1748284994311231732,-0.155
1748284994318918435,-0.158
1748284994326605138,-0.158
1748284994334291841,-0.16
1748284994341978544,-0.16
1748284994349665247,-0.16
1748284994357351950,-0.16
1748284994365038653,-0.158
1748284994372725356,-0.155
1748284994380412059,-0.153
1748284994388098762,-0.15
1748284994395785465,-0.148
1748284994403472168,-0.148
1748284994411158871,-0.148
1748284994418845574,-0.14300000000000002
1748284994426532277,-0.14300000000000002
1748284994434218980,-0.14300000000000002
1748284994441905683,-0.14100000000000001
1748284994449592386,-0.138
1748284994457279089,-0.138
1748284994464965792,-0.133
1748284994472652495,-0.131
1748284994480339198,-0.131
1748284994488025901,-0.131
1748284994495712664,-0.128
1748284994503399367,-0.126
1748284994511086070,-0.124
1748284994518772773,-0.121
1748284994526459476,-0.11900000000000001
1748284994534146179,-0.11900000000000001
1748284994541832882,-0.116
1748284994549519585,-0.116
1748284994557206288,-0.114
1748284994564892991,-0.111
1748284994572579694,-0.111
1748284994580266397,-0.109
1748284994587953100,-0.111
1748284994595639803,-0.109
1748284994603326506,-0.107
1748284994611013209,-0.10400000000000001
1748284994618699912,-0.10400000000000001
1748284994626386615,-0.10200000000000001
1748284994634073318,-0.10200000000000001
1748284994641760021,-0.10200000000000001
1748284994649446724,-0.10400000000000001
1748284994657133427,-0.109
1748284994664820130,-0.10400000000000001
1748284994672506833,-0.08700000000000001
1748284994680193536,-0.07
1748284994687880239,-0.06
1748284994695566942,-0.053
1748284994703253645,-0.063
1748284994710940348,-0.075
1748284994718627051,-0.075
1748284994726313754,-0.075
1748284994734000457,-0.082
1748284994741687160,-0.094
1748284994749373863,-0.109
1748284994757060566,-0.109
1748284994764747269,-0.099
1748284994772433972,-0.099
1748284994780120675,-0.10400000000000001
1748284994787807378,-0.124
1748284994795494081,-0.167
1748284994803180784,-0.046
1748284994810867487,0.523
1748284994818554190,1.226
1748284994826240893,1.209
1748284994833927596,0.262
1748284994841614299,-0.625
1748284994849301002,-0.613
1748284994856987705,-0.304
1748284994864674408,-0.301
1748284994872361111,-0.267
1748284994880047814,-0.133
1748284994887734517,-0.133
1748284994895421220,-0.158
1748284994903107923,-0.116
1748284994910794626,-0.099
1748284994918481329,-0.10400000000000001
1748284994926168032,-0.09
1748284994933854735,-0.077
1748284994941541438,-0.07200000000000001
1748284994949228141,-0.065
1748284994956914844,-0.055
1748284994964601547,-0.048
1748284994972288250,-0.041
1748284994979974953,-0.029
1748284994987661656,-0.019
1748284994995348359,-0.012
1748284995003035062,0.002
1748284995010721765,0.017
1748284995018408468,0.029
1748284995026095171,0.043000000000000003
1748284995033781874,0.06
1748284995041468577,0.085
1748284995049155280,0.111
1748284995056842043,0.136,59,1097
1748284995064528746,0.163
1748284995072215449,0.189
1748284995079902152,0.20600000000000002
1748284995087588855,0.216
1748284995095275558,0.221
1748284995102962261,0.218
1748284995110648964,0.20600000000000002
1748284995118335667,0.177
1748284995126022370,0.128
1748284995133709073,0.068
1748284995141395776,0.002
1748284995149082479,-0.063
1748284995156769182,-0.121
1748284995164455885,-0.167
1748284995172142588,-0.199
1748284995179829291,-0.218
1748284995187515994,-0.231
1748284995195202697,-0.233
1748284995202889400,-0.231
1748284995210576103,-0.223
1748284995218262806,-0.216
1748284995225949509,-0.209
1748284995233636212,-0.199
1748284995241322915,-0.189
1748284995249009618,-0.182
1748284995256696321,-0.17500000000000002
1748284995264383024,-0.167
1748284995272069727,-0.163
1748284995279756430,-0.155
1748284995287443133,-0.153
1748284995295129836,-0.15
1748284995302816539,-0.148
1748284995310503242,-0.145
1748284995318189945,-0.148
1748284995325876648,-0.148
1748284995333563351,-0.148
1748284995341250054,-0.148
1748284995348936757,-0.148
1748284995356623460,-0.148
1748284995364310163,-0.148
1748284995371996866,-0.148
1748284995379683569,-0.145
1748284995387370272,-0.145
1748284995395056975,-0.14300000000000002
1748284995402743678,-0.14100000000000001
1748284995410430381,-0.138
1748284995418117084,-0.136
1748284995425803787,-0.133
1748284995433490490,-0.131
1748284995441177193,-0.126
1748284995448863896,-0.126
1748284995456550599,-0.124
1748284995464237302,-0.11900000000000001
1748284995471924005,-0.116
1748284995479610708,-0.116
1748284995487297411,-0.116
1748284995494984114,-0.111
1748284995502670817,-0.109
1748284995510357520,-0.109
1748284995518044223,-0.107
1748284995525730926,-0.10400000000000001
1748284995533417629,-0.10200000000000001
1748284995541104332,-0.10200000000000001
1748284995548791035,-0.097
1748284995556477738,-0.097
1748284995564164441,-0.097
1748284995571851144,-0.094
1748284995579537847,-0.094
1748284995587224550,-0.092
1748284995594911253,-0.092
1748284995602597956,-0.09
1748284995610284659,-0.09
1748284995617971422,-0.08700000000000001
1748284995625658056,-0.08700000000000001
1748284995633344690,-0.085
1748284995641031324,-0.085
1748284995648717958,-0.085
1748284995656404592,-0.082
1748284995664091226,-0.082
1748284995671777860,-0.082
1748284995679464494,-0.08
1748284995687151128,-0.077
1748284995694837762,-0.077
1748284995702524396,-0.077
1748284995710211030,-0.077
1748284995717897664,-0.077
1748284995725584298,-0.075
1748284995733270932,-0.075
1748284995740957566,-0.075
1748284995748644200,-0.07200000000000001
1748284995756330834,-0.07200000000000001
1748284995764017468,-0.07200000000000001
1748284995771704102,-0.075
1748284995779390736,-0.077
1748284995787077370,-0.08
1748284995794764004,-0.068
1748284995802450638,-0.051000000000000004
1748284995810137272,-0.036000000000000004
1748284995817823906,-0.026000000000000002
1748284995825510540,-0.034
1748284995833197174,-0.048
1748284995840883808,-0.048
1748284995848570442,-0.046
1748284995856257076,-0.053
1748284995863943710,-0.063
1748284995871630344,-0.077
1748284995879316978,-0.085
1748284995887003612,-0.077
1748284995894690246,-0.075
1748284995902376880,-0.077
1748284995910063514,-0.094
1748284995917750148,-0.15
1748284995925436782,-0.107
1748284995933123416,0.34700000000000003
1748284995940810050,1.092
1748284995948496684,1.365
1748284995956183318,0.6910000000000001
1748284995963869952,-0.33
1748284995971556586,-0.635
1748284995979243220,-0.321
1748284995986929854,-0.226
1748284995994616488,-0.27
1748284996002303122,-0.163
1748284996009989756,-0.121
1748284996017676390,-0.158
1748284996025363024,-0.131
1748284996033049658,-0.099
1748284996040736292,-0.10200000000000001
1748284996048422926,-0.097
1748284996056109560,-0.08
1748284996063796194,-0.07200000000000001
1748284996071482828,-0.07
1748284996079169462,-0.058
1748284996086856096,-0.051000000000000004
1748284996094542730,-0.043000000000000003
1748284996102229364,-0.034
1748284996109915998,-0.021
1748284996117602632,-0.012
1748284996125289266,0.0
1748284996132975900,0.012
1748284996140662534,0.024
1748284996148349168,0.038
1748284996156035802,0.051000000000000004
1748284996163722436,0.068
1748284996171409070,0.094
1748284996179095718,0.11900000000000001,58,1157
1748284996186782073,0.14100000000000001
1748284996194468428,0.163
1748284996202154783,0.182
1748284996209841138,0.197
1748284996217527493,0.20400000000000001
1748284996225213848,0.20600000000000002
1748284996232900203,0.20400000000000001
1748284996240586558,0.189
1748284996248272913,0.16
1748284996255959268,0.111
1748284996263645623,0.055
1748284996271331978,-0.004
1748284996279018333,-0.063
1748284996286704688,-0.111
1748284996294391043,-0.153
1748284996302077398,-0.18
1748284996309763753,-0.194
1748284996317450108,-0.199
1748284996325136463,-0.199
1748284996332822818,-0.194
1748284996340509173,-0.189
1748284996348195528,-0.184
1748284996355881883,-0.177
1748284996363568238,-0.17
1748284996371254593,-0.165
1748284996378940948,-0.158
1748284996386627303,-0.153
1748284996394313658,-0.148
1748284996402000013,-0.145
1748284996409686368,-0.14100000000000001
1748284996417372723,-0.138
1748284996425059078,-0.138
1748284996432745433,-0.138
1748284996440431788,-0.138
1748284996448118143,-0.136
1748284996455804498,-0.136
1748284996463490853,-0.138
1748284996471177208,-0.138
1748284996478863563,-0.136
1748284996486549918,-0.136
1748284996494236273,-0.136
1748284996501922628,-0.136
1748284996509608983,-0.136
1748284996517295338,-0.133
1748284996524981693,-0.128
1748284996532668048,-0.131
1748284996540354403,-0.128
1748284996548040758,-0.124
1748284996555727113,-0.121
1748284996563413468,-0.11900000000000001
1748284996571099823,-0.116
1748284996578786178,-0.114
1748284996586472533,-0.111
1748284996594158888,-0.109
1748284996601845243,-0.107
1748284996609531598,-0.107
1748284996617217953,-0.10400000000000001
1748284996624904308,-0.099
1748284996632590663,-0.097
1748284996640277018,-0.099
1748284996647963373,-0.094
1748284996655649728,-0.092
1748284996663336083,-0.092
1748284996671022438,-0.092
1748284996678708793,-0.09
1748284996686395148,-0.08700000000000001
1748284996694081503,-0.08700000000000001
1748284996701767858,-0.082
1748284996709454213,-0.082
1748284996717140568,-0.082
1748284996724826923,-0.082
1748284996732513278,-0.08
1748284996740199662,-0.077
1748284996747886365,-0.075
1748284996755573068,-0.07200000000000001
1748284996763259771,-0.077
1748284996770946474,-0.077
1748284996778633177,-0.075
1748284996786319880,-0.07200000000000001
1748284996794006583,-0.07200000000000001
1748284996801693286,-0.07200000000000001
1748284996809379989,-0.07200000000000001
1748284996817066692,-0.07200000000000001
1748284996824753395,-0.07200000000000001
1748284996832440098,-0.07
1748284996840126801,-0.068
1748284996847813504,-0.068
1748284996855500207,-0.068
1748284996863186910,-0.063
1748284996870873613,-0.065
1748284996878560316,-0.065
1748284996886247019,-0.065
1748284996893933722,-0.068
1748284996901620425,-0.07
1748284996909307128,-0.07200000000000001
1748284996916993831,-0.07
1748284996924680534,-0.055
1748284996932367237,-0.041
1748284996940053940,-0.029
1748284996947740643,-0.021
1748284996955427346,-0.031
1748284996963114049,-0.046
1748284996970800752,-0.046
1748284996978487455,-0.043000000000000003
1748284996986174158,-0.051000000000000004
1748284996993860861,-0.06
1748284997001547564,-0.075
1748284997009234267,-0.08
1748284997016920970,-0.07200000000000001
1748284997024607673,-0.07
1748284997032294376,-0.075
1748284997039981079,-0.094
1748284997047667782,-0.145
1748284997055354485,-0.077
1748284997063041188,0.41100000000000003
1748284997070727891,1.143
1748284997078414594,1.338
1748284997086101297,0.588
1748284997093788000,-0.403
1748284997101474703,-0.622
1748284997109161406,-0.299
1748284997116848109,-0.231
1748284997124534812,-0.257
1748284997132221515,-0.14300000000000002
1748284997139908218,-0.116
1748284997147594921,-0.15
1748284997155281624,-0.121
1748284997162968327,-0.094
1748284997170655030,-0.099
1748284997178341733,-0.09
1748284997186028436,-0.07200000000000001
1748284997193715139,-0.07
1748284997201401842,-0.063
1748284997209088545,-0.051000000000000004
1748284997216775248,-0.043000000000000003
1748284997224461951,-0.034
1748284997232148654,-0.026000000000000002
1748284997239835357,-0.017
1748284997247522060,-0.007
1748284997255208763,0.004
1748284997262895466,0.017
