time,ecg,hr,rr,marker
1748285320540838146,-0.114
1748285320548524989,-0.111
1748285320556211832,-0.107
1748285320563898675,-0.109
1748285320571585518,-0.116
1748285320579272361,-0.114
1748285320586959204,-0.097
1748285320594646047,-0.10200000000000001
1748285320602332890,-0.11900000000000001
1748285320610019733,-0.116
1748285320617706576,-0.094
1748285320625393419,-0.08700000000000001
1748285320633080262,-0.107
1748285320640767105,-0.107
1748285320648453948,-0.082
1748285320656140791,-0.08
1748285320663827634,-0.094
1748285320671514477,-0.092
1748285320679201320,-0.082
1748285320686888163,-0.085
1748285320694575006,-0.075
1748285320702261849,-0.068
1748285320709948692,-0.08700000000000001
1748285320717635535,-0.08
1748285320725322378,-0.06
1748285320733009221,-0.08700000000000001
1748285320740696064,-0.10400000000000001
1748285320748382907,-0.08700000000000001
1748285320756069750,-0.06
1748285320763756593,-0.036000000000000004
1748285320771443436,-0.043000000000000003
1748285320779130279,-0.051000000000000004
1748285320786817122,-0.019
1748285320794503965,-0.014
1748285320802190808,-0.051000000000000004
1748285320809877651,-0.065
1748285320817564494,-0.051000000000000004
1748285320825251337,-0.058
1748285320832938180,-0.068
1748285320840625023,-0.06
1748285320848311866,-0.046
1748285320855998709,-0.038
1748285320863685552,-0.08700000000000001
1748285320871372395,-0.128
1748285320879059238,0.14300000000000002
1748285320886746081,0.88
1748285320894432924,1.445
1748285320902119767,0.905
1748285320909806610,-0.384
1748285320917493453,-0.883
1748285320925180296,-0.406
1748285320932867139,-0.17
1748285320940553982,-0.24
1748285320948240825,-0.094
1748285320955927668,0.009000000000000001
1748285320963614511,-0.055
1748285320971301354,-0.055
1748285320978988197,0.002
1748285320986675040,0.007
1748285320994361883,-0.004
1748285321002048726,0.014
1748285321009735569,0.036000000000000004
1748285321017422412,0.031
1748285321025109255,0.036000000000000004
1748285321032796098,0.053
1748285321040482941,0.055
1748285321048169784,0.051000000000000004
1748285321055856627,0.063
1748285321063543470,0.08
1748285321071230313,0.085
1748285321078917156,0.107
1748285321086603999,0.124
1748285321094290842,0.116
1748285321101977699,0.128,71,754
1748285321109664681,0.153,,779
1748285321117351663,0.155
1748285321125038645,0.155
1748285321132725627,0.18
1748285321140412609,0.201
1748285321148099591,0.187
1748285321155786573,0.177
1748285321163473555,0.218
1748285321171160537,0.228
1748285321178847519,0.182
1748285321186534501,0.158
1748285321194221483,0.133
1748285321201908465,0.077
1748285321209595447,0.026000000000000002
1748285321217282429,-0.034
1748285321224969411,-0.09
1748285321232656393,-0.10400000000000001
1748285321240343375,-0.099
1748285321248030357,-0.121
1748285321255717339,-0.153
1748285321263404321,-0.145
1748285321271091303,-0.114
1748285321278778285,-0.109
1748285321286465267,-0.121
1748285321294152249,-0.114
1748285321301839231,-0.10200000000000001
1748285321309526213,-0.10200000000000001
1748285321317213195,-0.107
1748285321324900177,-0.109
1748285321332587159,-0.114
1748285321340274141,-0.109
1748285321347961123,-0.094
1748285321355648105,-0.099
1748285321363335087,-0.11900000000000001
1748285321371022069,-0.124
1748285321378709051,-0.109
1748285321386396033,-0.10400000000000001
1748285321394083015,-0.114
1748285321401769997,-0.116
1748285321409456979,-0.097
1748285321417143961,-0.082
1748285321424830943,-0.099
1748285321432517925,-0.107
1748285321440204907,-0.08700000000000001
1748285321447891889,-0.099
1748285321455578871,-0.121
1748285321463265853,-0.09
1748285321470952835,-0.058
1748285321478639817,-0.08
1748285321486326799,-0.097
1748285321494013781,-0.075
1748285321501700763,-0.063
1748285321509387745,-0.068
1748285321517074727,-0.075
1748285321524761709,-0.085
1748285321532448691,-0.08
1748285321540135673,-0.07
1748285321547822655,-0.065
1748285321555509637,-0.055
1748285321563196619,-0.038
1748285321570883601,-0.019
1748285321578570583,-0.007
1748285321586257565,-0.034
1748285321593944547,-0.063
1748285321601631529,-0.043000000000000003
1748285321609318511,-0.036000000000000004
1748285321617005493,-0.063
1748285321624692475,-0.063
1748285321632379457,-0.051000000000000004
1748285321640066439,-0.046
1748285321647753421,-0.048
1748285321655440403,-0.065
1748285321663127422,0.046
1748285321670814125,0.559
1748285321678500828,1.202
1748285321686187531,1.043
1748285321693874234,-0.09
1748285321701560937,-0.885
1748285321709247640,-0.62
1748285321716934343,-0.28400000000000003
1748285321724621046,-0.301
1748285321732307749,-0.17
1748285321739994452,-0.004
1748285321747681155,-0.007
1748285321755367858,-0.012
1748285321763054561,0.019
1748285321770741264,0.026000000000000002
1748285321778427967,0.026000000000000002
1748285321786114670,0.026000000000000002
1748285321793801373,0.046
1748285321801488076,0.077
1748285321809174779,0.068
1748285321816861482,0.055
1748285321824548185,0.082
1748285321832234888,0.099
1748285321839921591,0.099
1748285321847608294,0.097
1748285321855294997,0.10400000000000001
1748285321862981700,0.136
1748285321870668403,0.15
1748285321878355106,0.138
1748285321886041809,0.153
1748285321893728512,0.17200000000000001
1748285321901415215,0.18
1748285321909101918,0.192
1748285321916788621,0.211
1748285321924475324,0.231
1748285321932162027,0.233
1748285321939848730,0.221
1748285321947535433,0.23800000000000002
1748285321955222136,0.255
1748285321962908839,0.226
1748285321970595542,0.192
1748285321978282245,0.153
1748285321985968948,0.094
1748285321993655651,0.031
1748285322001342354,-0.034
1748285322009029057,-0.094
1748285322016715760,-0.116
1748285322024402463,-0.133
1748285322032089166,-0.158
1748285322039775869,-0.16
1748285322047462572,-0.145
1748285322055149275,-0.133
1748285322062835978,-0.133
1748285322070522681,-0.136
1748285322078209384,-0.124
1748285322085896087,-0.121
1748285322093582790,-0.121
1748285322101269493,-0.10400000000000001
1748285322108956196,-0.097
1748285322116642899,-0.107
1748285322124329602,-0.111
1748285322132016305,-0.109
1748285322139703008,-0.10200000000000001
1748285322147389711,-0.107
1748285322155076414,-0.121
1748285322162763117,-0.121
1748285322170449820,-0.116
1748285322178136523,-0.121
1748285322185823226,-0.124
1748285322193509929,-0.107
1748285322201196632,-0.092
1748285322208883335,-0.10400000000000001
1748285322216570038,-0.109
1748285322224256801,-0.099,72,794
1748285322231943853,-0.10400000000000001
1748285322239630905,-0.099
1748285322247317957,-0.09
1748285322255005009,-0.099
1748285322262692061,-0.10200000000000001
1748285322270379113,-0.08
1748285322278066165,-0.077
1748285322285753217,-0.107
1748285322293440269,-0.09
1748285322301127321,-0.051000000000000004
1748285322308814373,-0.068
1748285322316501425,-0.094
1748285322324188477,-0.082
1748285322331875529,-0.09
1748285322339562581,-0.10200000000000001
1748285322347249633,-0.065
1748285322354936685,-0.043000000000000003
1748285322362623737,-0.053
1748285322370310789,-0.029
1748285322377997841,-0.004
1748285322385684893,-0.036000000000000004
1748285322393371945,-0.07
1748285322401058997,-0.07
1748285322408746049,-0.058
1748285322416433101,-0.051000000000000004
1748285322424120153,-0.053
1748285322431807205,-0.055
1748285322439494257,-0.051000000000000004
1748285322447181309,-0.068
1748285322454868361,-0.11900000000000001
1748285322462555413,-0.038
1748285322470242465,0.47200000000000003
1748285322477929517,1.214
1748285322485616569,1.289
1748285322493303621,0.245
1748285322500990673,-0.785
1748285322508677725,-0.678
1748285322516364777,-0.231
1748285322524051829,-0.223
1748285322531738881,-0.187
1748285322539425933,-0.031
1748285322547112985,-0.029
1748285322554800037,-0.046
1748285322562487089,-0.007
1748285322570174141,-0.007
1748285322577861193,-0.017
1748285322585548245,0.007
1748285322593235297,0.017
1748285322600922349,0.012
1748285322608609401,0.026000000000000002
1748285322616296453,0.036000000000000004
1748285322623983505,0.043000000000000003
1748285322631670557,0.063
1748285322639357609,0.06
1748285322647044661,0.058
1748285322654731713,0.077
1748285322662418765,0.09
1748285322670105817,0.08
1748285322677792869,0.092
1748285322685479921,0.124
1748285322693166973,0.14100000000000001
1748285322700854025,0.133
1748285322708541077,0.138
1748285322716228129,0.17
1748285322723915181,0.189
1748285322731602233,0.182
1748285322739289285,0.187
1748285322746976337,0.192
1748285322754663389,0.187
1748285322762350441,0.189
1748285322770037493,0.197
1748285322777724545,0.17
1748285322785411615,0.099,73,800
1748285322793098388,0.038
1748285322800785161,-0.012
1748285322808471934,-0.07200000000000001
1748285322816158707,-0.094
1748285322823845480,-0.097
1748285322831532253,-0.126
1748285322839219026,-0.136
1748285322846905799,-0.124
1748285322854592572,-0.128
1748285322862279345,-0.131
1748285322869966118,-0.11900000000000001
1748285322877652891,-0.126
1748285322885339664,-0.121
1748285322893026437,-0.099
1748285322900713210,-0.10400000000000001
1748285322908399983,-0.109
1748285322916086756,-0.10400000000000001
1748285322923773529,-0.11900000000000001
1748285322931460302,-0.128
1748285322939147075,-0.10200000000000001
1748285322946833848,-0.085
1748285322954520621,-0.109
1748285322962207394,-0.121
1748285322969894167,-0.107
1748285322977580940,-0.10400000000000001
1748285322985267713,-0.114
1748285322992954486,-0.116
1748285323000641259,-0.10400000000000001
1748285323008328032,-0.092
1748285323016014805,-0.094
1748285323023701578,-0.092
1748285323031388351,-0.08700000000000001
1748285323039075124,-0.092
1748285323046761897,-0.097
1748285323054448670,-0.09
1748285323062135443,-0.097
1748285323069822216,-0.107
1748285323077508989,-0.075
1748285323085195762,-0.053
1748285323092882535,-0.077
1748285323100569308,-0.08
1748285323108256081,-0.063
1748285323115942854,-0.07
1748285323123629627,-0.085
1748285323131316400,-0.092
1748285323139003173,-0.09
1748285323146689946,-0.075
1748285323154376719,-0.058
1748285323162063492,-0.041
1748285323169750265,-0.038
1748285323177437038,-0.034
1748285323185123811,-0.014
1748285323192810584,-0.024
1748285323200497357,-0.055
1748285323208184130,-0.06
1748285323215870903,-0.053
1748285323223557676,-0.055
1748285323231244449,-0.058
1748285323238931222,-0.051000000000000004
1748285323246617995,-0.051000000000000004
1748285323254304768,-0.07200000000000001
1748285323261991541,-0.111
1748285323269678314,0.012
1748285323277365087,0.591
1748285323285051860,1.304
1748285323292738633,1.204
1748285323300425406,0.065
1748285323308112179,-0.807
1748285323315798952,-0.559
1748285323323485725,-0.184
1748285323331172498,-0.218
1748285323338859271,-0.145
1748285323346546077,-0.017
1748285323354233198,-0.055
1748285323361920319,-0.075
1748285323369607440,-0.004
1748285323377294561,0.007
1748285323384981682,-0.021
1748285323392668803,0.002
1748285323400355924,0.026000000000000002
1748285323408043045,0.014
1748285323415730166,0.014
1748285323423417287,0.031
1748285323431104408,0.046
1748285323438791529,0.055
1748285323446478650,0.063
1748285323454165771,0.07
1748285323461852892,0.07200000000000001
1748285323469540013,0.08
1748285323477227134,0.094
1748285323484914255,0.10400000000000001
1748285323492601376,0.114
1748285323500288497,0.121
1748285323507975618,0.128
1748285323515662739,0.155
1748285323523349860,0.184
1748285323531036981,0.182
1748285323538724102,0.18
1748285323546411223,0.201
1748285323554098344,0.20400000000000001
1748285323561785465,0.184
1748285323569472586,0.177
1748285323577159707,0.158
1748285323584846828,0.124
1748285323592533949,0.097
1748285323600221070,0.043000000000000003
1748285323607908191,-0.024
1748285323615595312,-0.075
1748285323623282433,-0.10400000000000001
1748285323630969554,-0.116
1748285323638656675,-0.136
1748285323646343796,-0.158
1748285323654030917,-0.15
1748285323661718038,-0.114
1748285323669405159,-0.114
1748285323677092280,-0.136
1748285323684779401,-0.121
1748285323692466522,-0.107
1748285323700153643,-0.116
1748285323707840764,-0.121
1748285323715527885,-0.116
1748285323723215006,-0.10200000000000001
1748285323730902127,-0.10200000000000001
1748285323738589248,-0.116
1748285323746276369,-0.107
1748285323753963490,-0.10200000000000001
1748285323761650611,-0.11900000000000001
1748285323769337732,-0.114
1748285323777024853,-0.099
1748285323784711974,-0.116
1748285323792399095,-0.11900000000000001
1748285323800086216,-0.09
1748285323807773337,-0.09
1748285323815460458,-0.107
1748285323823147579,-0.094
1748285323830834700,-0.094
1748285323838521821,-0.109
1748285323846208942,-0.094
1748285323853896063,-0.08
1748285323861583184,-0.099
1748285323869270305,-0.097
1748285323876957426,-0.06
1748285323884644547,-0.068
1748285323892331668,-0.09
1748285323900018789,-0.08
1748285323907705978,-0.07200000000000001,73,786
1748285323915392821,-0.075
1748285323923079664,-0.065
1748285323930766507,-0.065
1748285323938453350,-0.077
1748285323946140193,-0.077
1748285323953827036,-0.07
1748285323961513879,-0.065
1748285323969200722,-0.058
1748285323976887565,-0.053
1748285323984574408,-0.046
1748285323992261251,-0.031
1748285323999948094,-0.021
1748285324007634937,-0.019
1748285324015321780,-0.031
1748285324023008623,-0.048
1748285324030695466,-0.051000000000000004
1748285324038382309,-0.055
1748285324046069152,-0.053
1748285324053755995,-0.046
1748285324061442838,-0.051000000000000004
1748285324069129681,-0.063
1748285324076816524,-0.094
1748285324084503367,-0.09
1748285324092190210,0.25
1748285324099877053,0.99
1748285324107563896,1.413
1748285324115250739,0.708
1748285324122937582,-0.525
1748285324130624425,-0.8170000000000001
1748285324138311268,-0.335
1748285324145998111,-0.184
1748285324153684954,-0.214
1748285324161371797,-0.063
1748285324169058640,-0.004
1748285324176745483,-0.055
1748285324184432326,-0.041
1748285324192119169,-0.009000000000000001
1748285324199806012,-0.004
1748285324207492855,0.004
1748285324215179698,0.014
1748285324222866541,0.019
1748285324230553384,0.026000000000000002
1748285324238240227,0.038
1748285324245927070,0.053
1748285324253613913,0.051000000000000004
1748285324261300756,0.046
1748285324268987599,0.063
1748285324276674442,0.085
1748285324284361285,0.08700000000000001
1748285324292048128,0.09
1748285324299734971,0.111
1748285324307421814,0.11900000000000001
1748285324315108657,0.11900000000000001
1748285324322795500,0.138
1748285324330482343,0.158
1748285324338169186,0.16
1748285324345856029,0.17500000000000002
1748285324353542872,0.194
1748285324361229715,0.197
1748285324368916558,0.197
1748285324376603401,0.20600000000000002
1748285324384290244,0.20600000000000002
1748285324391977087,0.187
1748285324399663930,0.155
1748285324407350773,0.116
1748285324415037616,0.06
1748285324422724459,-0.014
1748285324430411302,-0.065
1748285324438098145,-0.077
1748285324445784988,-0.10200000000000001
1748285324453471831,-0.131
1748285324461158674,-0.136
1748285324468845531,-0.138
1748285324476532513,-0.14300000000000002
1748285324484219495,-0.128
1748285324491906477,-0.121
1748285324499593459,-0.131
1748285324507280441,-0.121
1748285324514967423,-0.109
1748285324522654405,-0.114
1748285324530341387,-0.109
1748285324538028369,-0.10200000000000001
1748285324545715351,-0.107
1748285324553402333,-0.114
1748285324561089315,-0.114
1748285324568776297,-0.109
1748285324576463279,-0.10400000000000001
1748285324584150261,-0.107
1748285324591837243,-0.111
1748285324599524225,-0.111
1748285324607211207,-0.114
1748285324614898189,-0.114
1748285324622585171,-0.107
1748285324630272153,-0.10200000000000001
1748285324637959135,-0.107
1748285324645646117,-0.109
1748285324653333099,-0.099
1748285324661020081,-0.09
1748285324668707063,-0.10400000000000001
1748285324676394045,-0.10400000000000001
1748285324684081027,-0.08
1748285324691768009,-0.077
1748285324699454991,-0.094
1748285324707141973,-0.094
1748285324714828955,-0.085
1748285324722515937,-0.075
1748285324730202919,-0.082
1748285324737889901,-0.08
1748285324745576883,-0.058
1748285324753263865,-0.07
1748285324760950847,-0.08700000000000001
1748285324768637829,-0.07
1748285324776324811,-0.06
1748285324784011793,-0.06
1748285324791698775,-0.058
1748285324799385757,-0.07200000000000001
1748285324807072739,-0.07200000000000001
1748285324814759721,-0.07
1748285324822446703,-0.065
1748285324830133685,-0.043000000000000003
1748285324837820667,-0.031
1748285324845507649,-0.017
1748285324853194631,-0.002
1748285324860881613,-0.036000000000000004
1748285324868568595,-0.063
1748285324876255577,-0.041
1748285324883942559,-0.038
1748285324891629541,-0.058
1748285324899316523,-0.053
1748285324907003505,-0.048
1748285324914690487,-0.058
1748285324922377469,-0.077
1748285324930064451,-0.07
1748285324937751433,0.214
1748285324945438415,0.927
1748285324953125397,1.3860000000000001
1748285324960812379,0.71
1748285324968499361,-0.535
1748285324976186343,-0.861
1748285324983873325,-0.389
1748285324991560307,-0.226
1748285324999247289,-0.243
1748285325006934271,-0.075
1748285325014621253,-0.002
1748285325022308235,-0.051000000000000004
1748285325029995254,-0.029,73,801
1748285325037682236,0.007,,806
1748285325045369218,-0.007
1748285325053056200,0.0
1748285325060743182,0.041
1748285325068430164,0.053
1748285325076117146,0.036000000000000004
1748285325083804128,0.036000000000000004
1748285325091491110,0.051000000000000004
1748285325099178092,0.055
1748285325106865074,0.06
1748285325114552056,0.075
1748285325122239038,0.09
1748285325129926020,0.097
1748285325137613002,0.107
1748285325145299984,0.111
1748285325152986966,0.128
1748285325160673948,0.16
1748285325168360930,0.163
1748285325176047912,0.153
1748285325183734894,0.17
1748285325191421876,0.197
1748285325199108858,0.20400000000000001
1748285325206795840,0.197
1748285325214482822,0.211
1748285325222169804,0.228
1748285325229856786,0.209
1748285325237543768,0.189
1748285325245230750,0.17
1748285325252917732,0.111
1748285325260604714,0.038
1748285325268291696,-0.009000000000000001
1748285325275978678,-0.063
1748285325283665660,-0.10400000000000001
1748285325291352642,-0.124
1748285325299039624,-0.145
1748285325306726606,-0.163
1748285325314413588,-0.155
1748285325322100570,-0.136
1748285325329787552,-0.136
1748285325337474534,-0.15
1748285325345161516,-0.131
1748285325352848498,-0.10400000000000001
1748285325360535480,-0.124
1748285325368222462,-0.124
1748285325375909444,-0.094
1748285325383596426,-0.10200000000000001
1748285325391283408,-0.128
1748285325398970390,-0.116
1748285325406657372,-0.10400000000000001
1748285325414344354,-0.126
1748285325422031336,-0.133
1748285325429718318,-0.124
1748285325437405300,-0.136
1748285325445092282,-0.136
1748285325452779264,-0.116
1748285325460466246,-0.114
1748285325468153228,-0.11900000000000001
1748285325475840210,-0.121
1748285325483527192,-0.124
1748285325491214174,-0.11900000000000001
1748285325498901156,-0.114
1748285325506588138,-0.121
1748285325514275120,-0.116
1748285325521962102,-0.097
1748285325529649084,-0.099
1748285325537336066,-0.114
1748285325545023048,-0.109
1748285325552710030,-0.099
1748285325560397012,-0.09
1748285325568083994,-0.092
1748285325575770976,-0.09
1748285325583457958,-0.082
1748285325591144981,-0.094
1748285325598832520,-0.10400000000000001
1748285325606520059,-0.094
1748285325614207598,-0.09
1748285325621895137,-0.08
1748285325629582676,-0.053
1748285325637270215,-0.046
1748285325644957754,-0.046
1748285325652645293,-0.029
1748285325660332832,-0.043000000000000003
1748285325668020371,-0.077
1748285325675707910,-0.077
1748285325683395449,-0.065
1748285325691082988,-0.08
1748285325698770527,-0.068
1748285325706458066,-0.051000000000000004
1748285325714145605,-0.07200000000000001
1748285325721833144,-0.09
1748285325729520683,-0.099
1748285325737208222,0.009000000000000001
1748285325744895761,0.5640000000000001
1748285325752583300,1.25
1748285325760270839,1.056
1748285325767958378,-0.126
1748285325775645917,-0.902
1748285325783333456,-0.598
1748285325791020995,-0.257
1748285325798708534,-0.299
1748285325806396073,-0.17500000000000002
1748285325814083612,-0.004
1748285325821771151,-0.031
1748285325829458690,-0.048
1748285325837146229,-0.004
1748285325844833768,0.004
1748285325852521307,0.0
1748285325860208846,0.017
1748285325867896385,0.034
1748285325875583924,0.029
1748285325883271463,0.021
1748285325890959002,0.038
1748285325898646541,0.055
1748285325906334080,0.058
1748285325914021619,0.063
1748285325921709158,0.08
1748285325929396697,0.097
1748285325937084236,0.099
1748285325944771775,0.107
1748285325952459314,0.116
1748285325960146853,0.126
1748285325967834392,0.14100000000000001
1748285325975521931,0.163
1748285325983209470,0.177
1748285325990897009,0.192
1748285325998584548,0.214
1748285326006272087,0.218
1748285326013959626,0.214
1748285326021647165,0.218
1748285326029334704,0.226
1748285326037022243,0.214
1748285326044709782,0.184
1748285326052397321,0.131
1748285326060084860,0.068
1748285326067772399,0.007
1748285326075459938,-0.053
1748285326083147477,-0.10400000000000001
1748285326090835016,-0.14100000000000001
1748285326098522555,-0.165
1748285326106210094,-0.18
1748285326113897633,-0.165
1748285326121585172,-0.158
1748285326129272711,-0.17
1748285326136960250,-0.145
1748285326144647789,-0.116
1748285326152335395,-0.133,73,818
1748285326160021820,-0.138
1748285326167708245,-0.111
1748285326175394670,-0.109
1748285326183081095,-0.128
1748285326190767520,-0.124
1748285326198453945,-0.111
1748285326206140370,-0.121
1748285326213826795,-0.128
1748285326221513220,-0.114
1748285326229199645,-0.116
1748285326236886070,-0.121
1748285326244572495,-0.109
1748285326252258920,-0.121
1748285326259945345,-0.131
1748285326267631770,-0.116
1748285326275318195,-0.11900000000000001
1748285326283004620,-0.124
1748285326290691045,-0.111
1748285326298377470,-0.109
1748285326306063895,-0.111
1748285326313750320,-0.10400000000000001
1748285326321436745,-0.099
1748285326329123170,-0.099
1748285326336809595,-0.109
1748285326344496020,-0.099
1748285326352182445,-0.08
1748285326359868870,-0.092
1748285326367555295,-0.099
1748285326375241720,-0.08700000000000001
1748285326382928145,-0.085
1748285326390614570,-0.082
1748285326398300995,-0.077
1748285326405987420,-0.077
1748285326413673845,-0.077
1748285326421360270,-0.077
1748285326429046695,-0.08
1748285326436733120,-0.08
1748285326444419545,-0.075
1748285326452105970,-0.077
1748285326459792395,-0.08
1748285326467478820,-0.065
1748285326475165245,-0.038
1748285326482851670,-0.038
1748285326490538095,-0.041
1748285326498224520,-0.024
1748285326505910945,-0.029
1748285326513597370,-0.065
1748285326521283795,-0.08
1748285326528970220,-0.058
1748285326536656645,-0.041
1748285326544343070,-0.055
1748285326552029495,-0.07
1748285326559715920,-0.075
1748285326567402345,-0.10400000000000001
1748285326575088770,-0.048
1748285326582775195,0.403
1748285326590461620,1.16
1748285326598148045,1.33
1748285326605834470,0.362
1748285326613520895,-0.6980000000000001
1748285326621207320,-0.659
1748285326628893745,-0.233
1748285326636580170,-0.228
1748285326644266595,-0.184
1748285326651953020,-0.026000000000000002
1748285326659639445,-0.046
1748285326667325870,-0.08
1748285326675012295,-0.026000000000000002
1748285326682698720,-0.009000000000000001
1748285326690385145,-0.024
1748285326698071570,-0.019
1748285326705757995,-0.002
1748285326713444431,0.009000000000000001
1748285326721131134,0.009000000000000001
1748285326728817837,0.017
1748285326736504540,0.038
1748285326744191243,0.051000000000000004
1748285326751877946,0.048
1748285326759564649,0.048
1748285326767251352,0.053
1748285326774938055,0.06
1748285326782624758,0.077
1748285326790311461,0.085
1748285326797998164,0.094
1748285326805684867,0.133
1748285326813371570,0.145
1748285326821058273,0.138
1748285326828744976,0.155
1748285326836431679,0.17
1748285326844118382,0.167
1748285326851805085,0.177
1748285326859491788,0.201
1748285326867178491,0.201
1748285326874865194,0.194
1748285326882551897,0.18
1748285326890238600,0.138
1748285326897925303,0.092
1748285326905612006,0.034
1748285326913298709,-0.034
1748285326920985412,-0.08700000000000001
1748285326928672115,-0.109
1748285326936358818,-0.124
1748285326944045521,-0.14100000000000001
1748285326951732224,-0.148
1748285326959418927,-0.14300000000000002
1748285326967105630,-0.14100000000000001
1748285326974792333,-0.136
1748285326982479036,-0.136
1748285326990165739,-0.14100000000000001
1748285326997852442,-0.14100000000000001
1748285327005539145,-0.116
1748285327013225848,-0.111
1748285327020912551,-0.128
1748285327028599254,-0.116
1748285327036285957,-0.10200000000000001
1748285327043972660,-0.11900000000000001
1748285327051659363,-0.126
1748285327059346066,-0.11900000000000001
1748285327067032769,-0.11900000000000001
1748285327074719472,-0.11900000000000001
1748285327082406175,-0.11900000000000001
1748285327090092878,-0.111
1748285327097779581,-0.109
1748285327105466284,-0.116
1748285327113152987,-0.111
1748285327120839690,-0.109
1748285327128526393,-0.109
1748285327136213096,-0.099
1748285327143899799,-0.10400000000000001
1748285327151586502,-0.107
1748285327159273205,-0.094
1748285327166959908,-0.092
1748285327174646611,-0.097
1748285327182333314,-0.09
1748285327190020017,-0.09
1748285327197706720,-0.08700000000000001
1748285327205393423,-0.077
1748285327213080126,-0.08
1748285327220766829,-0.09
1748285327228453532,-0.077
1748285327236140235,-0.065
1748285327243826938,-0.08
1748285327251513641,-0.08
1748285327259200344,-0.07
1748285327266887047,-0.07200000000000001
1748285327274573810,-0.055,74,846
1748285327282260931,-0.048
1748285327289948052,-0.07200000000000001
1748285327297635173,-0.07
1748285327305322294,-0.063
1748285327313009415,-0.08
1748285327320696536,-0.075
1748285327328383657,-0.046
1748285327336070778,-0.036000000000000004
1748285327343757899,-0.036000000000000004
1748285327351445020,-0.024
1748285327359132141,-0.012
1748285327366819262,-0.017
1748285327374506383,-0.051000000000000004
1748285327382193504,-0.065
1748285327389880625,-0.051000000000000004
1748285327397567746,-0.053
1748285327405254867,-0.068
1748285327412941988,-0.058
1748285327420629109,-0.038
1748285327428316230,-0.077
1748285327436003351,-0.11900000000000001
1748285327443690472,0.16
1748285327451377593,0.878
1748285327459064714,1.3840000000000001
1748285327466751835,0.846
1748285327474438956,-0.352
1748285327482126077,-0.8170000000000001
1748285327489813198,-0.403
1748285327497500319,-0.17500000000000002
1748285327505187440,-0.211
1748285327512874561,-0.099
1748285327520561682,-0.012
1748285327528248803,-0.058
1748285327535935924,-0.063
1748285327543623045,-0.007
1748285327551310166,0.004
1748285327558997287,-0.017
1748285327566684408,-0.002
1748285327574371529,0.024
1748285327582058650,0.026000000000000002
1748285327589745771,0.029
1748285327597432892,0.038
1748285327605120013,0.038
1748285327612807134,0.048
1748285327620494255,0.075
1748285327628181376,0.07200000000000001
1748285327635868497,0.058
1748285327643555618,0.08700000000000001
1748285327651242739,0.109
1748285327658929860,0.109
1748285327666616981,0.128
1748285327674304102,0.14300000000000002
1748285327681991223,0.138
1748285327689678344,0.16
1748285327697365465,0.194
1748285327705052586,0.189
1748285327712739707,0.184
1748285327720426828,0.216
1748285327728113949,0.223
1748285327735801070,0.197
1748285327743488191,0.187
1748285327751175312,0.17200000000000001
1748285327758862433,0.121
1748285327766549554,0.06
1748285327774236675,0.002
1748285327781923796,-0.07
1748285327789610917,-0.109
1748285327797298038,-0.111
1748285327804985159,-0.133
1748285327812672280,-0.16
1748285327820359401,-0.158
1748285327828046522,-0.145
1748285327835733707,-0.15,73,803
1748285327843420619,-0.158
1748285327851107531,-0.145
1748285327858794443,-0.126
1748285327866481355,-0.114
1748285327874168267,-0.111
1748285327881855179,-0.116
1748285327889542091,-0.11900000000000001
1748285327897229003,-0.121
1748285327904915915,-0.126
1748285327912602827,-0.11900000000000001
1748285327920289739,-0.109
1748285327927976651,-0.11900000000000001
1748285327935663563,-0.121
1748285327943350475,-0.121
1748285327951037387,-0.11900000000000001
1748285327958724299,-0.111
1748285327966411211,-0.114
1748285327974098123,-0.116
1748285327981785035,-0.10400000000000001
1748285327989471947,-0.099
1748285327997158859,-0.114
1748285328004845771,-0.114
1748285328012532683,-0.094
1748285328020219595,-0.09
1748285328027906507,-0.10200000000000001
1748285328035593419,-0.107
1748285328043280331,-0.094
1748285328050967243,-0.08700000000000001
1748285328058654155,-0.092
1748285328066341067,-0.08700000000000001
1748285328074027979,-0.08700000000000001
1748285328081714891,-0.092
1748285328089401803,-0.07
1748285328097088715,-0.07
1748285328104775627,-0.092
1748285328112462539,-0.08
1748285328120149451,-0.065
1748285328127836363,-0.082
1748285328135523275,-0.075
1748285328143210187,-0.051000000000000004
1748285328150897099,-0.06
1748285328158584011,-0.08
1748285328166270923,-0.065
1748285328173957835,-0.051000000000000004
1748285328181644747,-0.063
1748285328189331659,-0.075
1748285328197018571,-0.063
1748285328204705483,-0.043000000000000003
1748285328212392395,-0.046
1748285328220079307,-0.058
1748285328227766219,-0.063
1748285328235453131,-0.07
1748285328243140043,-0.07200000000000001
1748285328250826955,-0.055
1748285328258513867,-0.041
1748285328266200779,-0.043000000000000003
1748285328273887691,-0.021
1748285328281574603,0.004
1748285328289261515,-0.007
1748285328296948427,-0.041
1748285328304635339,-0.053
1748285328312322251,-0.041
1748285328320009163,-0.041
1748285328327696075,-0.051000000000000004
1748285328335382987,-0.041
1748285328343069899,-0.038
1748285328350756811,-0.055
1748285328358443723,-0.082
1748285328366130635,-0.099
1748285328373817547,0.153
1748285328381504459,0.846
1748285328389191371,1.372
1748285328396878347,0.851
1748285328404565259,-0.352
1748285328412252171,-0.8220000000000001
1748285328419939083,-0.403
1748285328427625995,-0.184
1748285328435312907,-0.223
1748285328442999819,-0.099
1748285328450686731,-0.024
1748285328458373643,-0.077
1748285328466060555,-0.058
1748285328473747467,0.0
1748285328481434379,-0.002
1748285328489121291,-0.019
1748285328496808203,-0.007
1748285328504495115,0.009000000000000001
1748285328512182027,0.019
1748285328519868939,0.019
1748285328527555851,0.026000000000000002
1748285328535242763,0.043000000000000003
1748285328542929675,0.048
1748285328550616587,0.043000000000000003
1748285328558303499,0.063
1748285328565990411,0.082
1748285328573677323,0.08
1748285328581364235,0.085
1748285328589051147,0.10400000000000001
1748285328596738059,0.114
1748285328604424971,0.11900000000000001
1748285328612111883,0.14300000000000002
1748285328619798795,0.16
1748285328627485707,0.155
1748285328635172619,0.17
1748285328642859531,0.197
1748285328650546443,0.197
1748285328658233355,0.197
1748285328665920267,0.187
1748285328673607179,0.187
1748285328681294091,0.187
1748285328688981003,0.136
1748285328696667915,0.06
1748285328704354827,0.004
1748285328712041739,-0.058
1748285328719728651,-0.107
1748285328727415563,-0.121
1748285328735102475,-0.136
1748285328742789387,-0.16
1748285328750476299,-0.163
1748285328758163211,-0.14100000000000001
1748285328765850123,-0.145
1748285328773537035,-0.155
1748285328781223947,-0.138
1748285328788910859,-0.131
1748285328796597771,-0.138
1748285328804284683,-0.121
1748285328811971595,-0.107
1748285328819658507,-0.128
1748285328827345419,-0.128
1748285328835032331,-0.10400000000000001
1748285328842719243,-0.107
1748285328850406155,-0.121
1748285328858093067,-0.124
1748285328865779979,-0.121
1748285328873466891,-0.121
1748285328881153803,-0.133
1748285328888840715,-0.128
1748285328896527627,-0.10200000000000001
1748285328904214539,-0.111
1748285328911901451,-0.133
1748285328919588363,-0.11900000000000001
1748285328927275275,-0.109
1748285328934962187,-0.11900000000000001
1748285328942649099,-0.109
1748285328950336011,-0.099
1748285328958022983,-0.107,73,840
1748285328965710035,-0.114
1748285328973397087,-0.097
1748285328981084139,-0.077
1748285328988771191,-0.09
1748285328996458243,-0.107
1748285329004145295,-0.099
1748285329011832347,-0.092
1748285329019519399,-0.092
1748285329027206451,-0.085
1748285329034893503,-0.08
1748285329042580555,-0.082
1748285329050267607,-0.08
1748285329057954659,-0.077
1748285329065641711,-0.07
1748285329073328763,-0.058
1748285329081015815,-0.068
1748285329088702867,-0.08
1748285329096389919,-0.065
1748285329104076971,-0.058
1748285329111764023,-0.068
1748285329119451075,-0.07200000000000001
1748285329127138127,-0.07
1748285329134825179,-0.063
1748285329142512231,-0.055
1748285329150199283,-0.055
1748285329157886335,-0.058
1748285329165573387,-0.053
1748285329173260439,-0.053
1748285329180947491,-0.053
1748285329188634543,-0.051000000000000004
1748285329196321595,-0.048
1748285329204008647,-0.053
1748285329211695699,-0.065
1748285329219382751,-0.068
1748285329227069803,-0.063
1748285329234756855,-0.048
1748285329242443907,-0.038
1748285329250130959,-0.038
1748285329257818011,-0.021
1748285329265505063,0.007
1748285329273192115,-0.007
1748285329280879167,-0.051000000000000004
1748285329288566219,-0.055
1748285329296253271,-0.046
1748285329303940323,-0.051000000000000004
1748285329311627375,-0.048
1748285329319314427,-0.046
1748285329327001479,-0.048
1748285329334688531,-0.068
1748285329342375583,-0.099
1748285329350062635,0.077
1748285329357749687,0.7030000000000001
1748285329365436739,1.313
1748285329373123791,0.983
1748285329380810843,-0.197
1748285329388497895,-0.868
1748285329396184947,-0.545
1748285329403871999,-0.25
1748285329411559051,-0.279
1748285329419246103,-0.15
1748285329426933155,-0.004
1748285329434620207,-0.034
1748285329442307259,-0.051000000000000004
1748285329449994311,-0.007
1748285329457681363,0.004
1748285329465368415,-0.002
1748285329473055467,0.007
1748285329480742519,0.019
1748285329488429571,0.024
1748285329496116623,0.034
1748285329503803675,0.051000000000000004
1748285329511490727,0.058
1748285329519177797,0.065
1748285329526864570,0.08
1748285329534551343,0.075
1748285329542238116,0.077
1748285329549924889,0.099
1748285329557611662,0.109
1748285329565298435,0.116
1748285329572985208,0.131
1748285329580671981,0.14300000000000002
1748285329588358754,0.163
1748285329596045527,0.192
1748285329603732300,0.199
1748285329611419073,0.194
1748285329619105846,0.201
1748285329626792619,0.218
1748285329634479392,0.223
1748285329642166165,0.214
1748285329649852938,0.20400000000000001
1748285329657539711,0.182
1748285329665226484,0.14300000000000002
1748285329672913257,0.097
1748285329680600030,0.036000000000000004
1748285329688286803,-0.031
1748285329695973576,-0.092
1748285329703660349,-0.126
1748285329711347122,-0.145
1748285329719033895,-0.17
1748285329726720668,-0.18
1748285329734407441,-0.163
1748285329742094214,-0.158
1748285329749780987,-0.165
1748285329757467760,-0.14300000000000002
1748285329765154533,-0.124
1748285329772841306,-0.131
1748285329780528079,-0.124
1748285329788214852,-0.109
1748285329795901625,-0.116
1748285329803588398,-0.11900000000000001
1748285329811275171,-0.109
1748285329818961944,-0.107
1748285329826648717,-0.114
1748285329834335490,-0.109
1748285329842022263,-0.10200000000000001
1748285329849709036,-0.111
1748285329857395809,-0.121
1748285329865082582,-0.128
1748285329872769355,-0.126
1748285329880456128,-0.109
1748285329888142901,-0.114
1748285329895829674,-0.126
1748285329903516447,-0.114
1748285329911203220,-0.10200000000000001
1748285329918889993,-0.10400000000000001
1748285329926576766,-0.111
1748285329934263539,-0.109
1748285329941950312,-0.10200000000000001
1748285329949637085,-0.111
1748285329957323858,-0.107
1748285329965010631,-0.094
1748285329972697404,-0.099
1748285329980384177,-0.094
1748285329988070950,-0.082
1748285329995757723,-0.082
1748285330003444496,-0.09
1748285330011131269,-0.08700000000000001
1748285330018818042,-0.075
1748285330026504815,-0.08
1748285330034191588,-0.092
1748285330041878361,-0.082
1748285330049565134,-0.06
1748285330057251907,-0.07
1748285330064938680,-0.094
1748285330072625453,-0.075
1748285330080312259,-0.036000000000000004,73,864
1748285330087999380,-0.048
1748285330095686501,-0.075
1748285330103373622,-0.07200000000000001
1748285330111060743,-0.063
1748285330118747864,-0.06
1748285330126434985,-0.07
1748285330134122106,-0.07
1748285330141809227,-0.048
1748285330149496348,-0.041
1748285330157183469,-0.051000000000000004
1748285330164870590,-0.06
1748285330172557711,-0.068
1748285330180244832,-0.07
1748285330187931953,-0.065
1748285330195619074,-0.051000000000000004
1748285330203306195,-0.036000000000000004
1748285330210993316,-0.034
1748285330218680437,-0.024
1748285330226367558,-0.002
1748285330234054679,-0.017
1748285330241741800,-0.058
1748285330249428921,-0.055
1748285330257116042,-0.036000000000000004
1748285330264803163,-0.051000000000000004
1748285330272490284,-0.058
1748285330280177405,-0.046
1748285330287864526,-0.053
1748285330295551647,-0.08700000000000001
1748285330303238768,-0.09
1748285330310925889,0.163
1748285330318613010,0.846
1748285330326300131,1.372
1748285330333987252,0.854
1748285330341674373,-0.35000000000000003
1748285330349361494,-0.8200000000000001
1748285330357048615,-0.399
1748285330364735736,-0.184
1748285330372422857,-0.24
1748285330380109978,-0.109
1748285330387797099,-0.019
1748285330395484220,-0.068
1748285330403171341,-0.06
1748285330410858462,-0.024
1748285330418545583,-0.019
1748285330426232704,-0.012
1748285330433919825,-0.002
1748285330441606946,0.004
1748285330449294067,0.007
1748285330456981188,0.021
1748285330464668309,0.034
1748285330472355430,0.021
1748285330480042551,0.021
1748285330487729672,0.063
1748285330495416793,0.085
1748285330503103914,0.065
1748285330510791035,0.063
1748285330518478156,0.082
1748285330526165277,0.094
1748285330533852398,0.109
1748285330541539519,0.128
1748285330549226640,0.15
1748285330556913761,0.165
1748285330564600882,0.18
1748285330572288003,0.201
1748285330579975124,0.20600000000000002
1748285330587662245,0.194
1748285330595349366,0.201
1748285330603036487,0.209
1748285330610723608,0.197
1748285330618410729,0.177
1748285330626097850,0.128
1748285330633784971,0.068
1748285330641472160,0.026000000000000002
1748285330649158863,-0.031
1748285330656845566,-0.10400000000000001
1748285330664532269,-0.14100000000000001
1748285330672218972,-0.16
1748285330679905675,-0.167
1748285330687592378,-0.167
1748285330695279081,-0.17500000000000002
1748285330702965784,-0.17
1748285330710652487,-0.14300000000000002
1748285330718339190,-0.138
1748285330726025893,-0.15
1748285330733712596,-0.14300000000000002
1748285330741399299,-0.133
1748285330749086002,-0.131
1748285330756772705,-0.121
1748285330764459408,-0.126
1748285330772146111,-0.136
1748285330779832814,-0.11900000000000001
1748285330787519517,-0.11900000000000001
1748285330795206220,-0.14300000000000002
1748285330802892923,-0.126
1748285330810579626,-0.09
1748285330818266329,-0.111
1748285330825953032,-0.136
1748285330833639735,-0.116
1748285330841326438,-0.116
1748285330849013141,-0.136
1748285330856699844,-0.128
1748285330864386547,-0.099
1748285330872073250,-0.111
1748285330879759953,-0.133
1748285330887446656,-0.107
1748285330895133359,-0.085
1748285330902820062,-0.10200000000000001
1748285330910506765,-0.107
1748285330918193468,-0.10200000000000001
1748285330925880171,-0.10200000000000001
1748285330933566874,-0.099
1748285330941253577,-0.092
1748285330948940280,-0.097
1748285330956626983,-0.10200000000000001
1748285330964313686,-0.08
1748285330972000389,-0.063
1748285330979687092,-0.075
1748285330987373795,-0.085
1748285330995060498,-0.08
1748285331002747201,-0.075
1748285331010433904,-0.07
1748285331018120607,-0.07
1748285331025807310,-0.08
1748285331033494013,-0.075
1748285331041180716,-0.051000000000000004
1748285331048867419,-0.051000000000000004
1748285331056554122,-0.075
1748285331064240825,-0.065
1748285331071927528,-0.043000000000000003
1748285331079614231,-0.06
1748285331087300934,-0.07200000000000001
1748285331094987637,-0.055
1748285331102674340,-0.051000000000000004
1748285331110361043,-0.065
1748285331118047746,-0.07
1748285331125734449,-0.065
1748285331133421152,-0.058
1748285331141107855,-0.055
1748285331148794558,-0.051000000000000004
1748285331156481261,-0.036000000000000004
1748285331164167964,-0.029
1748285331171854667,-0.024
1748285331179541370,-0.021
1748285331187228073,-0.046
1748285331194914776,-0.06
1748285331202601539,-0.048,73,931
1748285331210288660,-0.046
1748285331217975781,-0.06
1748285331225662902,-0.053
1748285331233350023,-0.046
1748285331241037144,-0.065
1748285331248724265,-0.11900000000000001
1748285331256411386,-0.097
1748285331264098507,0.301
1748285331271785628,1.056
1748285331279472749,1.3940000000000001
1748285331287159870,0.61
1748285331294846991,-0.5660000000000001
1748285331302534112,-0.771
1748285331310221233,-0.321
1748285331317908354,-0.218
1748285331325595475,-0.223
1748285331333282596,-0.065
1748285331340969717,-0.043000000000000003
1748285331348656838,-0.08700000000000001
1748285331356343959,-0.034
1748285331364031080,-0.014
1748285331371718201,-0.038
1748285331379405322,-0.017
1748285331387092443,0.007
1748285331394779564,0.007
1748285331402466685,0.009000000000000001
1748285331410153806,0.012
1748285331417840927,0.021
1748285331425528048,0.036000000000000004
1748285331433215169,0.036000000000000004
1748285331440902290,0.043000000000000003
1748285331448589411,0.07
1748285331456276532,0.082
1748285331463963653,0.08
1748285331471650774,0.09
1748285331479337895,0.10200000000000001
1748285331487025016,0.11900000000000001
1748285331494712137,0.145
1748285331502399258,0.158
1748285331510086379,0.167
1748285331517773500,0.187
1748285331525460621,0.197
1748285331533147742,0.20400000000000001
1748285331540834863,0.216
1748285331548521984,0.221
1748285331556209105,0.216
1748285331563896226,0.201
1748285331571583347,0.18
1748285331579270468,0.133
1748285331586957589,0.06
1748285331594644710,0.0
1748285331602331831,-0.051000000000000004
1748285331610018952,-0.111
1748285331617706073,-0.153
1748285331625393194,-0.155
1748285331633080315,-0.165
1748285331640767436,-0.187
1748285331648454557,-0.163
1748285331656141678,-0.153
1748285331663828799,-0.17
1748285331671515920,-0.16
1748285331679203041,-0.145
1748285331686890162,-0.14100000000000001
1748285331694577283,-0.128
1748285331702264404,-0.121
1748285331709951525,-0.128
1748285331717638646,-0.133
1748285331725325767,-0.109
1748285331733012888,-0.10200000000000001
1748285331740700009,-0.126
1748285331748387130,-0.126
1748285331756074251,-0.107
1748285331763761436,-0.111
1748285331771448139,-0.128
1748285331779134842,-0.128
1748285331786821545,-0.121
1748285331794508248,-0.124
1748285331802194951,-0.116
1748285331809881654,-0.107
1748285331817568357,-0.107
1748285331825255060,-0.107
1748285331832941763,-0.116
1748285331840628466,-0.114
1748285331848315169,-0.10400000000000001
1748285331856001872,-0.111
1748285331863688575,-0.10400000000000001
1748285331871375278,-0.077
1748285331879061981,-0.08700000000000001
1748285331886748684,-0.111
1748285331894435387,-0.10200000000000001
1748285331902122090,-0.07200000000000001
1748285331909808793,-0.077
1748285331917495496,-0.10200000000000001
1748285331925182199,-0.097
1748285331932868902,-0.07
1748285331940555605,-0.07200000000000001
1748285331948242308,-0.08700000000000001
1748285331955929011,-0.082
1748285331963615714,-0.068
1748285331971302417,-0.065
1748285331978989120,-0.068
1748285331986675823,-0.065
1748285331994362526,-0.068
1748285332002049229,-0.07
1748285332009735932,-0.068
1748285332017422635,-0.077
1748285332025109338,-0.08700000000000001
1748285332032796041,-0.065
1748285332040482744,-0.055
1748285332048169447,-0.06
1748285332055856150,-0.041
1748285332063542853,-0.021
1748285332071229556,-0.021
1748285332078916259,-0.024
1748285332086602962,-0.038
1748285332094289665,-0.063
1748285332101976368,-0.068
1748285332109663071,-0.055
1748285332117349774,-0.051000000000000004
1748285332125036477,-0.058
1748285332132723180,-0.06
1748285332140409883,-0.07
1748285332148096586,-0.111
1748285332155783289,-0.051000000000000004
1748285332163469992,0.455
1748285332171156695,1.238
1748285332178843398,1.355
1748285332186530101,0.328
1748285332194216804,-0.734
1748285332201903507,-0.6930000000000001
1748285332209590210,-0.262
1748285332217276913,-0.24
1748285332224963616,-0.201
1748285332232650319,-0.051000000000000004
1748285332240337022,-0.053
1748285332248023725,-0.077
1748285332255710428,-0.036000000000000004
1748285332263397131,-0.019
1748285332271083834,-0.024
1748285332278770537,-0.019
1748285332286457240,-0.002
1748285332294143943,0.014
1748285332301830646,0.014
1748285332309517349,0.004
1748285332317204052,0.031
1748285332324890815,0.063,72,978
1748285332332577936,0.051000000000000004
1748285332340265057,0.041
1748285332347952178,0.07
1748285332355639299,0.10200000000000001
1748285332363326420,0.097
1748285332371013541,0.097
1748285332378700662,0.126
1748285332386387783,0.145
1748285332394074904,0.15
1748285332401762025,0.17
1748285332409449146,0.20400000000000001
1748285332417136267,0.218
1748285332424823388,0.226
1748285332432510509,0.25
1748285332440197630,0.255
1748285332447884751,0.24
1748285332455571872,0.23600000000000002
1748285332463258993,0.214
1748285332470946114,0.158
1748285332478633235,0.094
1748285332486320356,0.046
1748285332494007477,-0.014
1748285332501694598,-0.097
1748285332509381719,-0.14300000000000002
1748285332517068840,-0.163
1748285332524755961,-0.184
1748285332532443082,-0.184
1748285332540130203,-0.187
1748285332547817324,-0.197
1748285332555504445,-0.17500000000000002
1748285332563191566,-0.145
1748285332570878687,-0.153
1748285332578565808,-0.14300000000000002
1748285332586252929,-0.121
1748285332593940050,-0.131
1748285332601627171,-0.14100000000000001
1748285332609314292,-0.136
1748285332617001413,-0.124
1748285332624688534,-0.11900000000000001
1748285332632375655,-0.133
1748285332640062776,-0.128
1748285332647749897,-0.107
1748285332655437018,-0.111
1748285332663124139,-0.121
1748285332670811260,-0.126
1748285332678498381,-0.131
1748285332686185502,-0.128
1748285332693872623,-0.124
1748285332701559744,-0.116
1748285332709246865,-0.114
1748285332716933986,-0.111
1748285332724621107,-0.10400000000000001
1748285332732308228,-0.114
1748285332739995349,-0.121
1748285332747682470,-0.109
1748285332755369591,-0.109
1748285332763056712,-0.10400000000000001
1748285332770743833,-0.085
1748285332778430954,-0.08700000000000001
1748285332786118075,-0.10200000000000001
1748285332793805196,-0.09
1748285332801492317,-0.077
1748285332809179438,-0.09
1748285332816866559,-0.094
1748285332824553680,-0.092
1748285332832240801,-0.09
1748285332839927922,-0.075
1748285332847615043,-0.07
1748285332855302164,-0.077
1748285332862989285,-0.063
1748285332870676406,-0.063
1748285332878363527,-0.08
1748285332886050712,-0.07200000000000001,71,960
1748285332893737415,-0.063
1748285332901424118,-0.07200000000000001
1748285332909110821,-0.063
1748285332916797524,-0.048
1748285332924484227,-0.07
1748285332932170930,-0.08700000000000001
1748285332939857633,-0.068
1748285332947544336,-0.053
1748285332955231039,-0.046
1748285332962917742,-0.034
1748285332970604445,-0.021
1748285332978291148,-0.014
1748285332985977851,-0.031
1748285332993664554,-0.06
1748285333001351257,-0.068
1748285333009037960,-0.058
1748285333016724663,-0.053
1748285333024411366,-0.051000000000000004
1748285333032098069,-0.041
1748285333039784772,-0.046
1748285333047471475,-0.08
1748285333055158178,-0.10400000000000001
1748285333062844881,0.094
1748285333070531584,0.737
1748285333078218287,1.369
1748285333085904990,1.026
1748285333093591693,-0.216
1748285333101278396,-0.895
1748285333108965099,-0.518
1748285333116651802,-0.223
1748285333124338505,-0.274
1748285333132025208,-0.148
1748285333139711911,-0.024
1748285333147398614,-0.075
1748285333155085317,-0.068
1748285333162772020,-0.002
1748285333170458723,-0.012
1748285333178145426,-0.019
1748285333185832129,0.024
1748285333193518832,0.026000000000000002
1748285333201205535,0.007
1748285333208892238,0.019
1748285333216578941,0.036000000000000004
1748285333224265644,0.029
1748285333231952347,0.038
1748285333239639050,0.07
1748285333247325753,0.085
1748285333255012456,0.075
1748285333262699159,0.082
1748285333270385862,0.111
1748285333278072565,0.133
1748285333285759268,0.136
1748285333293445971,0.145
1748285333301132674,0.17200000000000001
1748285333308819377,0.194
1748285333316506080,0.221
1748285333324192783,0.24
1748285333331879486,0.23600000000000002
1748285333339566189,0.231
1748285333347252892,0.245
1748285333354939595,0.255
1748285333362626298,0.23800000000000002
1748285333370313001,0.194
1748285333377999704,0.136
1748285333385686407,0.075
1748285333393373110,0.012
1748285333401059813,-0.058
1748285333408746516,-0.121
1748285333416433219,-0.165
1748285333424119922,-0.192
1748285333431806625,-0.197
1748285333439493328,-0.184
1748285333447180091,-0.184
1748285333454867212,-0.187
1748285333462554333,-0.167
1748285333470241454,-0.153
1748285333477928575,-0.15
1748285333485615696,-0.15
1748285333493302817,-0.14300000000000002
1748285333500989938,-0.128
1748285333508677059,-0.116
1748285333516364180,-0.114
1748285333524051301,-0.121
1748285333531738422,-0.126
1748285333539425543,-0.11900000000000001
1748285333547112664,-0.111
1748285333554799785,-0.126
1748285333562486906,-0.133
1748285333570174027,-0.128
1748285333577861148,-0.126
1748285333585548269,-0.11900000000000001
1748285333593235390,-0.124
1748285333600922511,-0.126
1748285333608609632,-0.116
1748285333616296753,-0.124
1748285333623983874,-0.133
1748285333631670995,-0.11900000000000001
1748285333639358116,-0.111
1748285333647045237,-0.121
1748285333654732358,-0.124
1748285333662419479,-0.111
1748285333670106600,-0.10200000000000001
1748285333677793721,-0.097
1748285333685480842,-0.099
1748285333693167963,-0.10400000000000001
1748285333700855084,-0.10400000000000001
1748285333708542205,-0.099
1748285333716229326,-0.08700000000000001
1748285333723916447,-0.099
1748285333731603568,-0.107
1748285333739290689,-0.077
1748285333746977810,-0.063
1748285333754664931,-0.08700000000000001
1748285333762352052,-0.09
1748285333770039173,-0.07200000000000001
1748285333777726294,-0.075
1748285333785413415,-0.085
1748285333793100536,-0.08700000000000001
1748285333800787657,-0.092
1748285333808474778,-0.092
1748285333816161899,-0.06
1748285333823849020,-0.041
1748285333831536141,-0.053
1748285333839223262,-0.043000000000000003
1748285333846910383,-0.019
1748285333854597504,-0.043000000000000003
1748285333862284625,-0.08
1748285333869971746,-0.07
1748285333877658867,-0.058
1748285333885345988,-0.07
1748285333893033109,-0.07
1748285333900720230,-0.06
1748285333908407351,-0.065
1748285333916094472,-0.094
1748285333923781593,-0.09
1748285333931468714,0.209
1748285333939155835,0.905
1748285333946842956,1.323
1748285333954530077,0.661
1748285333962217198,-0.528
1748285333969904319,-0.868
1748285333977591440,-0.437
1748285333985278561,-0.262
1748285333992965682,-0.27
1748285334000652803,-0.094
1748285334008339992,0.0,70,951
1748285334016026695,-0.053,,897
1748285334023713398,-0.053
1748285334031400101,-0.017
1748285334039086804,-0.007
1748285334046773507,-0.002
1748285334054460210,0.002
1748285334062146913,-0.002
1748285334069833616,0.007
1748285334077520319,0.041
1748285334085207022,0.046
1748285334092893725,0.038
1748285334100580428,0.06
1748285334108267131,0.07200000000000001
1748285334115953834,0.068
1748285334123640537,0.075
1748285334131327240,0.082
1748285334139013943,0.094
1748285334146700646,0.126
1748285334154387349,0.15
1748285334162074052,0.155
1748285334169760755,0.18
1748285334177447458,0.209
1748285334185134161,0.221
1748285334192820864,0.226
1748285334200507567,0.233
1748285334208194270,0.25
1748285334215880973,0.265
1748285334223567676,0.25
1748285334231254379,0.233
1748285334238941082,0.20400000000000001
1748285334246627785,0.128
1748285334254314488,0.046
1748285334262001191,-0.019
1748285334269687894,-0.082
1748285334277374597,-0.131
1748285334285061300,-0.165
1748285334292748003,-0.199
1748285334300434706,-0.209
1748285334308121409,-0.201
1748285334315808112,-0.192
1748285334323494815,-0.182
1748285334331181518,-0.177
1748285334338868221,-0.167
1748285334346554924,-0.153
1748285334354241627,-0.15
1748285334361928330,-0.14300000000000002
1748285334369615033,-0.121
1748285334377301736,-0.114
1748285334384988439,-0.128
1748285334392675142,-0.124
1748285334400361845,-0.111
1748285334408048548,-0.126
1748285334415735251,-0.133
1748285334423421954,-0.11900000000000001
1748285334431108657,-0.121
1748285334438795360,-0.136
1748285334446482063,-0.133
1748285334454168766,-0.124
1748285334461855469,-0.124
1748285334469542172,-0.126
1748285334477228875,-0.124
1748285334484915578,-0.128
1748285334492602281,-0.14100000000000001
1748285334500288984,-0.11900000000000001
1748285334507975687,-0.094
1748285334515662390,-0.111
1748285334523349093,-0.11900000000000001
1748285334531035796,-0.10200000000000001
1748285334538722499,-0.107
1748285334546409202,-0.111
1748285334554095905,-0.099
1748285334561782608,-0.097
1748285334569469371,-0.10400000000000001
1748285334577156492,-0.114
1748285334584843613,-0.114
1748285334592530734,-0.082
1748285334600217855,-0.06
1748285334607904976,-0.082
1748285334615592097,-0.097
1748285334623279218,-0.085
1748285334630966339,-0.077
1748285334638653460,-0.077
1748285334646340581,-0.082
1748285334654027702,-0.082
1748285334661714823,-0.08
1748285334669401944,-0.077
1748285334677089065,-0.082
1748285334684776186,-0.085
1748285334692463307,-0.077
1748285334700150428,-0.07200000000000001
1748285334707837549,-0.07
1748285334715524670,-0.055
1748285334723211791,-0.043000000000000003
1748285334730898912,-0.038
1748285334738586033,-0.026000000000000002
1748285334746273154,-0.031
1748285334753960275,-0.063
1748285334761647396,-0.068
1748285334769334517,-0.058
1748285334777021638,-0.06
1748285334784708759,-0.07200000000000001
1748285334792395880,-0.07200000000000001
1748285334800083001,-0.055
1748285334807770122,-0.085
1748285334815457243,-0.136
1748285334823144364,0.075
1748285334830831485,0.754
1748285334838518606,1.377
1748285334846205727,1.053
1748285334853892848,-0.128
1748285334861579969,-0.81
1748285334869267090,-0.486
1748285334876954211,-0.189
1748285334884641332,-0.23800000000000002
1748285334892328453,-0.155
1748285334900015574,-0.046
1748285334907702695,-0.065
1748285334915389816,-0.07200000000000001
1748285334923076937,-0.038
1748285334930764058,-0.031
1748285334938451179,-0.034
1748285334946138300,-0.021
1748285334953825421,-0.009000000000000001
1748285334961512542,-0.007
1748285334969199663,-0.004
1748285334976886784,0.014
1748285334984573905,0.036000000000000004
1748285334992261026,0.036000000000000004
1748285334999948147,0.029
1748285335007635268,0.041
1748285335015322389,0.048
1748285335023009510,0.053
1748285335030696631,0.082
1748285335038383752,0.107
1748285335046070873,0.097
1748285335053757994,0.111
1748285335061445115,0.15
1748285335069132236,0.17200000000000001
1748285335076819357,0.187
1748285335084506478,0.20600000000000002
1748285335092193599,0.214
1748285335099880720,0.216
1748285335107567841,0.221
1748285335115254962,0.228
1748285335122942083,0.23800000000000002
1748285335130629268,0.20600000000000002,69,904
1748285335138315971,0.14100000000000001
1748285335146002674,0.082
1748285335153689377,0.017
1748285335161376080,-0.055
1748285335169062783,-0.111
1748285335176749486,-0.15
1748285335184436189,-0.17200000000000001
1748285335192122892,-0.17200000000000001
1748285335199809595,-0.187
1748285335207496298,-0.192
1748285335215183001,-0.167
1748285335222869704,-0.155
1748285335230556407,-0.165
1748285335238243110,-0.16
1748285335245929813,-0.148
1748285335253616516,-0.14100000000000001
1748285335261303219,-0.14300000000000002
1748285335268989922,-0.148
1748285335276676625,-0.133
1748285335284363328,-0.116
1748285335292050031,-0.128
1748285335299736734,-0.138
1748285335307423437,-0.128
1748285335315110140,-0.124
1748285335322796843,-0.126
1748285335330483546,-0.128
1748285335338170249,-0.133
1748285335345856952,-0.138
1748285335353543655,-0.138
1748285335361230358,-0.114
1748285335368917061,-0.10400000000000001
1748285335376603764,-0.128
1748285335384290467,-0.126
1748285335391977170,-0.109
1748285335399663873,-0.124
1748285335407350576,-0.131
1748285335415037279,-0.116
1748285335422723982,-0.10400000000000001
1748285335430410685,-0.099
1748285335438097388,-0.10400000000000001
1748285335445784091,-0.107
1748285335453470794,-0.097
1748285335461157497,-0.08700000000000001
1748285335468844200,-0.092
1748285335476530903,-0.097
1748285335484217606,-0.094
1748285335491904309,-0.10200000000000001
1748285335499591012,-0.097
1748285335507277715,-0.077
1748285335514964418,-0.077
1748285335522651121,-0.08
1748285335530337824,-0.07
1748285335538024527,-0.075
1748285335545711230,-0.075
1748285335553397933,-0.068
1748285335561084636,-0.07
1748285335568771339,-0.07200000000000001
1748285335576458042,-0.068
1748285335584144745,-0.07200000000000001
1748285335591831448,-0.08
1748285335599518151,-0.065
1748285335607204854,-0.058
1748285335614891557,-0.082
1748285335622578260,-0.094
1748285335630264963,-0.07200000000000001
1748285335637951666,-0.041
1748285335645638369,-0.043000000000000003
1748285335653325072,-0.041
1748285335661011775,-0.014
1748285335668698478,-0.021
1748285335676385181,-0.051000000000000004
1748285335684071884,-0.058
1748285335691758647,-0.058
1748285335699445699,-0.063
1748285335707132751,-0.063
1748285335714819803,-0.06
1748285335722506855,-0.07
1748285335730193907,-0.08
1748285335737880959,-0.111
1748285335745568011,-0.058
1748285335753255063,0.41100000000000003
1748285335760942115,1.177
1748285335768629167,1.35
1748285335776316219,0.396
1748285335784003271,-0.678
1748285335791690323,-0.6910000000000001
1748285335799377375,-0.27
1748285335807064427,-0.23600000000000002
1748285335814751479,-0.192
1748285335822438531,-0.046
1748285335830125583,-0.07
1748285335837812635,-0.099
1748285335845499687,-0.034
1748285335853186739,-0.017
1748285335860873791,-0.038
1748285335868560843,-0.024
1748285335876247895,-0.014
1748285335883934947,-0.019
1748285335891621999,0.007
1748285335899309051,0.029
1748285335906996103,0.017
1748285335914683155,0.012
1748285335922370207,0.026000000000000002
1748285335930057259,0.053
1748285335937744311,0.063
1748285335945431363,0.055
1748285335953118415,0.063
1748285335960805467,0.085
1748285335968492519,0.097
1748285335976179571,0.114
1748285335983866623,0.14100000000000001
1748285335991553675,0.158
1748285335999240727,0.177
1748285336006927779,0.201
1748285336014614831,0.211
1748285336022301883,0.211
1748285336029988935,0.226
1748285336037675987,0.248
1748285336045363039,0.23800000000000002
1748285336053050091,0.201
1748285336060737143,0.17
1748285336068424195,0.126
1748285336076111247,0.053
1748285336083798299,-0.019
1748285336091485351,-0.082
1748285336099172403,-0.131
1748285336106859455,-0.148
1748285336114546507,-0.16
1748285336122233559,-0.187
1748285336129920611,-0.194
1748285336137607663,-0.177
1748285336145294715,-0.158
1748285336152981767,-0.163
1748285336160668819,-0.165
1748285336168355871,-0.155
1748285336176042923,-0.145
1748285336183729975,-0.14300000000000002
1748285336191417027,-0.14100000000000001
1748285336199104079,-0.136
1748285336206791131,-0.136
1748285336214478183,-0.133
1748285336222165235,-0.124
1748285336229852287,-0.126
1748285336237539339,-0.133
1748285336245226391,-0.128
1748285336252913461,-0.133,69,866
1748285336260600234,-0.138
1748285336268287007,-0.124
1748285336275973780,-0.116
1748285336283660553,-0.126
1748285336291347326,-0.128
1748285336299034099,-0.124
1748285336306720872,-0.124
1748285336314407645,-0.121
1748285336322094418,-0.11900000000000001
1748285336329781191,-0.116
1748285336337467964,-0.116
1748285336345154737,-0.114
1748285336352841510,-0.111
1748285336360528283,-0.111
1748285336368215056,-0.107
1748285336375901829,-0.099
1748285336383588602,-0.107
1748285336391275375,-0.107
1748285336398962148,-0.08700000000000001
1748285336406648921,-0.08700000000000001
1748285336414335694,-0.10200000000000001
1748285336422022467,-0.097
1748285336429709240,-0.075
1748285336437396013,-0.06
1748285336445082786,-0.08
1748285336452769559,-0.09
1748285336460456332,-0.077
1748285336468143105,-0.07200000000000001
1748285336475829878,-0.063
1748285336483516651,-0.055
1748285336491203424,-0.075
1748285336498890197,-0.075
1748285336506576970,-0.07
1748285336514263743,-0.082
1748285336521950516,-0.07200000000000001
1748285336529637289,-0.055
1748285336537324062,-0.053
1748285336545010835,-0.051000000000000004
1748285336552697608,-0.063
1748285336560384381,-0.07
1748285336568071154,-0.06
1748285336575757927,-0.068
1748285336583444700,-0.082
1748285336591131473,-0.08
1748285336598818246,-0.058
1748285336606505019,-0.034
1748285336614191792,-0.029
1748285336621878565,-0.021
1748285336629565338,-0.004
1748285336637252111,-0.029
1748285336644938884,-0.063
1748285336652625657,-0.058
1748285336660312430,-0.053
1748285336667999203,-0.065
1748285336675685976,-0.06
1748285336683372749,-0.058
1748285336691059522,-0.075
1748285336698746295,-0.092
1748285336706433068,-0.097
1748285336714119841,0.131
1748285336721806614,0.8240000000000001
1748285336729493387,1.418
1748285336737180160,0.9510000000000001
1748285336744866933,-0.291
1748285336752553706,-0.837
1748285336760240479,-0.442
1748285336767927252,-0.218
1748285336775614025,-0.253
1748285336783300798,-0.111
1748285336790987571,-0.026000000000000002
1748285336798674344,-0.077
1748285336806361117,-0.07
1748285336814047923,-0.029,69,894
1748285336821734696,-0.038
1748285336829421469,-0.036000000000000004
1748285336837108242,-0.002
1748285336844795015,0.009000000000000001
1748285336852481788,0.004
1748285336860168561,0.014
1748285336867855334,0.024
1748285336875542107,0.026000000000000002
1748285336883228880,0.036000000000000004
1748285336890915653,0.048
1748285336898602426,0.053
1748285336906289199,0.06
1748285336913975972,0.063
1748285336921662745,0.068
1748285336929349518,0.099
1748285336937036291,0.14100000000000001
1748285336944723064,0.155
1748285336952409837,0.153
1748285336960096610,0.167
1748285336967783383,0.194
1748285336975470156,0.216
1748285336983156929,0.223
1748285336990843702,0.221
1748285336998530475,0.221
1748285337006217248,0.233
1748285337013904021,0.231
1748285337021590794,0.192
1748285337029277567,0.14300000000000002
1748285337036964340,0.097
1748285337044651113,0.031
1748285337052337886,-0.048
1748285337060024659,-0.10400000000000001
1748285337067711432,-0.14100000000000001
1748285337075398205,-0.182
1748285337083084978,-0.189
1748285337090771751,-0.167
1748285337098458524,-0.17500000000000002
1748285337106145297,-0.182
1748285337113832070,-0.17
1748285337121518843,-0.163
1748285337129205616,-0.15
1748285337136892389,-0.14100000000000001
1748285337144579162,-0.145
1748285337152265935,-0.14100000000000001
1748285337159952708,-0.126
1748285337167639481,-0.124
1748285337175326254,-0.128
1748285337183013027,-0.11900000000000001
1748285337190699800,-0.114
1748285337198386573,-0.128
1748285337206073346,-0.138
1748285337213760119,-0.126
1748285337221446892,-0.126
1748285337229133665,-0.133
1748285337236820438,-0.124
1748285337244507211,-0.121
1748285337252193984,-0.133
1748285337259880757,-0.124
1748285337267567530,-0.109
1748285337275254303,-0.124
1748285337282941076,-0.136
1748285337290627849,-0.11900000000000001
1748285337298314622,-0.109
1748285337306001395,-0.116
1748285337313688168,-0.111
1748285337321374941,-0.10200000000000001
1748285337329061714,-0.10400000000000001
1748285337336748487,-0.10400000000000001
1748285337344435260,-0.10200000000000001
1748285337352122033,-0.10200000000000001
1748285337359808806,-0.099
1748285337367495579,-0.097
1748285337375182393,-0.09
1748285337382869445,-0.08
1748285337390556497,-0.085
1748285337398243549,-0.08700000000000001
1748285337405930601,-0.077
1748285337413617653,-0.077
1748285337421304705,-0.082
1748285337428991757,-0.08
1748285337436678809,-0.075
1748285337444365861,-0.065
1748285337452052913,-0.065
1748285337459739965,-0.077
1748285337467427017,-0.077
1748285337475114069,-0.063
1748285337482801121,-0.063
1748285337490488173,-0.077
1748285337498175225,-0.077
1748285337505862277,-0.068
1748285337513549329,-0.068
1748285337521236381,-0.055
1748285337528923433,-0.036000000000000004
1748285337536610485,-0.031
1748285337544297537,-0.034
1748285337551984589,-0.029
1748285337559671641,-0.038
1748285337567358693,-0.06
1748285337575045745,-0.068
1748285337582732797,-0.055
1748285337590419849,-0.055
1748285337598106901,-0.065
1748285337605793953,-0.063
1748285337613481005,-0.07
1748285337621168057,-0.099
1748285337628855109,0.043000000000000003
1748285337636542161,0.627
1748285337644229213,1.294
1748285337651916265,1.099
1748285337659603317,-0.075
1748285337667290369,-0.875
1748285337674977421,-0.581
1748285337682664473,-0.245
1748285337690351525,-0.28400000000000003
1748285337698038577,-0.163
1748285337705725629,-0.012
1748285337713412681,-0.06
1748285337721099733,-0.082
1748285337728786785,-0.034
1748285337736473837,-0.017
1748285337744160889,-0.004
1748285337751847941,0.0
1748285337759534993,-0.009000000000000001
1748285337767222045,0.009000000000000001
1748285337774909097,0.036000000000000004
1748285337782596149,0.029
1748285337790283201,0.019
1748285337797970253,0.034
1748285337805657305,0.048
1748285337813344357,0.058
1748285337821031409,0.068
1748285337828718461,0.075
1748285337836405513,0.085
1748285337844092565,0.10400000000000001
1748285337851779617,0.11900000000000001
1748285337859466669,0.126
1748285337867153721,0.148
1748285337874840773,0.18
1748285337882527825,0.199
1748285337890214877,0.20400000000000001
1748285337897901929,0.211
1748285337905588981,0.233
1748285337913276033,0.253
1748285337920963085,0.245
1748285337928650137,0.226
1748285337936337203,0.216,69,926
1748285337944024115,0.177
1748285337951711027,0.099
1748285337959397939,0.029
1748285337967084851,-0.029
1748285337974771763,-0.09
1748285337982458675,-0.14300000000000002
1748285337990145587,-0.17200000000000001
1748285337997832499,-0.189
1748285338005519411,-0.192
1748285338013206323,-0.189
1748285338020893235,-0.189
1748285338028580147,-0.177
1748285338036267059,-0.155
1748285338043953971,-0.153
1748285338051640883,-0.153
1748285338059327795,-0.14100000000000001
1748285338067014707,-0.133
1748285338074701619,-0.131
1748285338082388531,-0.126
1748285338090075443,-0.131
1748285338097762355,-0.128
1748285338105449267,-0.111
1748285338113136179,-0.109
1748285338120823091,-0.124
1748285338128510003,-0.131
1748285338136196915,-0.126
1748285338143883827,-0.116
1748285338151570739,-0.121
1748285338159257651,-0.131
1748285338166944563,-0.124
1748285338174631475,-0.114
1748285338182318387,-0.121
1748285338190005299,-0.124
1748285338197692211,-0.11900000000000001
1748285338205379123,-0.107
1748285338213066035,-0.10400000000000001
1748285338220752947,-0.111
1748285338228439859,-0.107
1748285338236126771,-0.099
1748285338243813683,-0.10200000000000001
1748285338251500595,-0.10200000000000001
1748285338259187507,-0.097
1748285338266874419,-0.094
1748285338274561331,-0.094
1748285338282248243,-0.092
1748285338289935155,-0.099
1748285338297622067,-0.10400000000000001
1748285338305308979,-0.085
1748285338312995891,-0.063
1748285338320682803,-0.065
1748285338328369715,-0.077
1748285338336056627,-0.075
1748285338343743539,-0.07
1748285338351430451,-0.075
1748285338359117363,-0.077
1748285338366804275,-0.08
1748285338374491187,-0.077
1748285338382178099,-0.063
1748285338389865011,-0.053
1748285338397551923,-0.058
1748285338405238835,-0.055
1748285338412925747,-0.063
1748285338420612659,-0.077
1748285338428299571,-0.063
1748285338435986483,-0.034
1748285338443673395,-0.048
1748285338451360307,-0.063
1748285338459047219,-0.053
1748285338466734131,-0.065
1748285338474421043,-0.075
1748285338482107955,-0.065
1748285338489794867,-0.048
1748285338497481843,-0.038
1748285338505168755,-0.024
1748285338512855667,0.0
1748285338520542579,-0.012
1748285338528229491,-0.055
1748285338535916403,-0.06
1748285338543603315,-0.038
1748285338551290227,-0.053
1748285338558977139,-0.07
1748285338566664051,-0.048
1748285338574350963,-0.041
1748285338582037875,-0.077
1748285338589724787,-0.121
1748285338597411699,-0.031
1748285338605098611,0.47600000000000003
1748285338612785523,1.221
1748285338620472435,1.333
1748285338628159347,0.36
1748285338635846259,-0.671
1748285338643533171,-0.635
1748285338651220083,-0.226
1748285338658906995,-0.221
1748285338666593907,-0.201
1748285338674280819,-0.065
1748285338681967731,-0.058
1748285338689654643,-0.082
1748285338697341555,-0.053
1748285338705028467,-0.031
1748285338712715379,-0.029
1748285338720402291,-0.017
1748285338728089203,-0.002
1748285338735776115,-0.007
1748285338743463027,-0.007
1748285338751149939,0.019
1748285338758836851,0.026000000000000002
1748285338766523763,0.012
1748285338774210675,0.024
1748285338781897587,0.053
1748285338789584499,0.053
1748285338797271411,0.046
1748285338804958323,0.07200000000000001
1748285338812645235,0.097
1748285338820332147,0.09
1748285338828019059,0.107
1748285338835705971,0.131
1748285338843392883,0.14100000000000001
1748285338851079795,0.165
1748285338858766707,0.199
1748285338866453619,0.20600000000000002
1748285338874140531,0.199
1748285338881827443,0.209
1748285338889514355,0.228
1748285338897201267,0.226
1748285338904888179,0.197
1748285338912575091,0.17
1748285338920262003,0.14100000000000001
1748285338927948915,0.07200000000000001
1748285338935635827,-0.002
1748285338943322739,-0.051000000000000004
1748285338951009651,-0.099
1748285338958696563,-0.14300000000000002
1748285338966383475,-0.163
1748285338974070387,-0.167
1748285338981757299,-0.17200000000000001
1748285338989444211,-0.182
1748285338997131123,-0.184
1748285339004818035,-0.155
1748285339012504947,-0.124
1748285339020191859,-0.136
1748285339027878771,-0.15
1748285339035565683,-0.136
1748285339043252595,-0.126
1748285339050939507,-0.128
1748285339058626479,-0.124,69,965
1748285339066313531,-0.124
1748285339074000583,-0.128
1748285339081687635,-0.116
1748285339089374687,-0.109
1748285339097061739,-0.131
1748285339104748791,-0.136
1748285339112435843,-0.114
1748285339120122895,-0.111
1748285339127809947,-0.126
1748285339135496999,-0.11900000000000001
1748285339143184051,-0.111
1748285339150871103,-0.124
1748285339158558155,-0.121
1748285339166245207,-0.107
1748285339173932259,-0.107
1748285339181619311,-0.124
1748285339189306363,-0.121
1748285339196993415,-0.099
1748285339204680467,-0.097
1748285339212367519,-0.10400000000000001
1748285339220054571,-0.08700000000000001
1748285339227741623,-0.08
1748285339235428675,-0.097
1748285339243115727,-0.099
1748285339250802779,-0.09
1748285339258489831,-0.082
1748285339266176883,-0.085
1748285339273863935,-0.085
1748285339281550987,-0.082
1748285339289238039,-0.082
1748285339296925091,-0.075
1748285339304612143,-0.063
1748285339312299195,-0.065
1748285339319986247,-0.075
1748285339327673299,-0.082
1748285339335360351,-0.077
1748285339343047403,-0.06
1748285339350734455,-0.058
1748285339358421507,-0.077
1748285339366108559,-0.07
1748285339373795611,-0.046
1748285339381482663,-0.055
1748285339389169715,-0.07200000000000001
1748285339396856767,-0.058
1748285339404543819,-0.043000000000000003
1748285339412230871,-0.053
1748285339419917923,-0.07
1748285339427604975,-0.07
1748285339435292027,-0.068
1748285339442979079,-0.063
1748285339450666131,-0.048
1748285339458353183,-0.036000000000000004
1748285339466040235,-0.026000000000000002
1748285339473727287,-0.014
1748285339481414339,-0.017
1748285339489101391,-0.043000000000000003
1748285339496788443,-0.068
1748285339504475495,-0.063
1748285339512162547,-0.038
1748285339519849599,-0.043000000000000003
1748285339527536651,-0.058
1748285339535223703,-0.053
1748285339542910755,-0.058
1748285339550597807,-0.107
1748285339558284859,-0.07
1748285339565971911,0.377
1748285339573658963,1.1500000000000001
1748285339581346015,1.3820000000000001
1748285339589033067,0.47200000000000003
1748285339596720119,-0.637
1748285339604407171,-0.6980000000000001
1748285339612094223,-0.265
1748285339619781293,-0.226
1748285339627468066,-0.216
1748285339635154839,-0.058
1748285339642841612,-0.041
1748285339650528385,-0.094
1748285339658215158,-0.06
1748285339665901931,-0.019
1748285339673588704,-0.021
1748285339681275477,-0.026000000000000002
1748285339688962250,-0.014
1748285339696649023,-0.007
1748285339704335796,0.002
1748285339712022569,0.009000000000000001
1748285339719709342,0.012
1748285339727396115,0.019
1748285339735082888,0.041
1748285339742769661,0.046
1748285339750456434,0.043000000000000003
1748285339758143207,0.065
1748285339765829980,0.082
1748285339773516753,0.08
1748285339781203526,0.09
1748285339788890299,0.114
1748285339796577072,0.133
1748285339804263845,0.148
1748285339811950618,0.167
1748285339819637391,0.194
1748285339827324164,0.20600000000000002
1748285339835010937,0.209
1748285339842697710,0.214
1748285339850384483,0.223
1748285339858071256,0.228
1748285339865758029,0.216
1748285339873444802,0.177
1748285339881131575,0.126
1748285339888818348,0.07
1748285339896505121,-0.002
1748285339904191894,-0.058
1748285339911878667,-0.10400000000000001
1748285339919565440,-0.148
1748285339927252213,-0.17
1748285339934938986,-0.177
1748285339942625759,-0.182
1748285339950312532,-0.177
1748285339957999305,-0.177
1748285339965686078,-0.17200000000000001
1748285339973372851,-0.158
1748285339981059624,-0.148
1748285339988746397,-0.14100000000000001
1748285339996433170,-0.131
1748285340004119943,-0.133
1748285340011806716,-0.138
1748285340019493489,-0.131
1748285340027180262,-0.128
1748285340034867035,-0.131
1748285340042553808,-0.116
1748285340050240581,-0.116
1748285340057927354,-0.131
1748285340065614127,-0.124
1748285340073300900,-0.116
1748285340080987673,-0.126
1748285340088674446,-0.124
1748285340096361219,-0.109
1748285340104047992,-0.11900000000000001
1748285340111734765,-0.131
1748285340119421538,-0.128
1748285340127108311,-0.11900000000000001
1748285340134795084,-0.111
1748285340142481857,-0.116
1748285340150168630,-0.116
1748285340157855403,-0.10200000000000001
1748285340165542176,-0.092
1748285340173228949,-0.099
1748285340180915755,-0.097,68,916
1748285340188602876,-0.092
1748285340196289997,-0.099
1748285340203977118,-0.099
1748285340211664239,-0.09
1748285340219351360,-0.09
1748285340227038481,-0.092
1748285340234725602,-0.08700000000000001
1748285340242412723,-0.07200000000000001
1748285340250099844,-0.07
1748285340257786965,-0.077
1748285340265474086,-0.077
1748285340273161207,-0.07
1748285340280848328,-0.068
1748285340288535449,-0.07200000000000001
1748285340296222570,-0.07200000000000001
1748285340303909691,-0.065
1748285340311596812,-0.07200000000000001
1748285340319283933,-0.07200000000000001
1748285340326971054,-0.051000000000000004
1748285340334658175,-0.053
1748285340342345296,-0.07
1748285340350032417,-0.065
1748285340357719538,-0.058
1748285340365406659,-0.053
1748285340373093780,-0.055
1748285340380780901,-0.065
1748285340388468022,-0.065
1748285340396155143,-0.063
1748285340403842264,-0.07200000000000001
1748285340411529385,-0.065
1748285340419216506,-0.041
1748285340426903627,-0.038
1748285340434590748,-0.041
1748285340442277869,-0.009000000000000001
1748285340449964990,0.004
1748285340457652111,-0.036000000000000004
1748285340465339232,-0.063
1748285340473026353,-0.051000000000000004
1748285340480713474,-0.048
1748285340488400595,-0.055
1748285340496087716,-0.051000000000000004
1748285340503774837,-0.046
1748285340511461958,-0.048
1748285340519149079,-0.085
1748285340526836200,-0.085
1748285340534523321,0.216
1748285340542210442,0.922
1748285340549897563,1.389
1748285340557584684,0.788
1748285340565271805,-0.428
1748285340572958926,-0.841
1748285340580646047,-0.41300000000000003
1748285340588333168,-0.223
1748285340596020289,-0.253
1748285340603707410,-0.109
1748285340611394531,-0.026000000000000002
1748285340619081652,-0.065
1748285340626768773,-0.048
1748285340634455894,-0.017
1748285340642143015,-0.021
1748285340649830136,-0.012
1748285340657517257,0.004
1748285340665204378,0.009000000000000001
1748285340672891499,0.017
1748285340680578620,0.029
1748285340688265741,0.036000000000000004
1748285340695952862,0.041
1748285340703639983,0.051000000000000004
1748285340711327104,0.055
1748285340719014225,0.063
1748285340726701346,0.07200000000000001
1748285340734388467,0.085
1748285340742075656,0.092
1748285340749762359,0.114
1748285340757449062,0.14100000000000001
1748285340765135765,0.148
1748285340772822468,0.167
1748285340780509171,0.199
1748285340788195874,0.211
1748285340795882577,0.221
1748285340803569280,0.23600000000000002
1748285340811255983,0.23800000000000002
1748285340818942686,0.23600000000000002
1748285340826629389,0.23800000000000002
1748285340834316092,0.228
1748285340842002795,0.197
1748285340849689498,0.153
1748285340857376201,0.094
1748285340865062904,0.026000000000000002
1748285340872749607,-0.038
1748285340880436310,-0.097
1748285340888123013,-0.148
1748285340895809716,-0.17200000000000001
1748285340903496419,-0.18
1748285340911183122,-0.182
1748285340918869825,-0.18
1748285340926556528,-0.18
1748285340934243231,-0.17
1748285340941929934,-0.153
1748285340949616637,-0.153
1748285340957303340,-0.15
1748285340964990043,-0.133
1748285340972676746,-0.126
1748285340980363449,-0.121
1748285340988050152,-0.109
1748285340995736855,-0.114
1748285341003423558,-0.124
1748285341011110261,-0.116
1748285341018796964,-0.116
1748285341026483667,-0.124
1748285341034170370,-0.11900000000000001
1748285341041857073,-0.116
1748285341049543776,-0.124
1748285341057230479,-0.124
1748285341064917182,-0.116
1748285341072603885,-0.114
1748285341080290588,-0.11900000000000001
1748285341087977291,-0.131
1748285341095663994,-0.126
1748285341103350697,-0.10400000000000001
1748285341111037400,-0.10400000000000001
1748285341118724103,-0.116
1748285341126410806,-0.114
1748285341134097509,-0.107
1748285341141784212,-0.10200000000000001
1748285341149470915,-0.099
1748285341157157618,-0.10400000000000001
1748285341164844321,-0.107
1748285341172531024,-0.094
1748285341180217727,-0.085
1748285341187904430,-0.085
1748285341195591133,-0.08700000000000001
1748285341203277836,-0.08700000000000001
1748285341210964539,-0.08700000000000001
1748285341218651242,-0.08700000000000001
1748285341226337945,-0.075
1748285341234024648,-0.07200000000000001
1748285341241711351,-0.082
1748285341249398054,-0.082
1748285341257084757,-0.08
1748285341264771460,-0.075
1748285341272458163,-0.055
1748285341280144866,-0.053
1748285341287831569,-0.065
1748285341295518272,-0.06
1748285341303205035,-0.055,68,971
1748285341310891738,-0.068
1748285341318578441,-0.07
1748285341326265144,-0.055
1748285341333951847,-0.048
1748285341341638550,-0.06
1748285341349325253,-0.07
1748285341357011956,-0.068
1748285341364698659,-0.07
1748285341372385362,-0.068
1748285341380072065,-0.046
1748285341387758768,-0.031
1748285341395445471,-0.026000000000000002
1748285341403132174,-0.014
1748285341410818877,-0.007
1748285341418505580,-0.026000000000000002
1748285341426192283,-0.048
1748285341433878986,-0.06
1748285341441565689,-0.07
1748285341449252392,-0.046
1748285341456939095,-0.019
1748285341464625798,-0.043000000000000003
1748285341472312501,-0.065
1748285341479999204,-0.082
1748285341487685907,-0.092
1748285341495372610,0.182
1748285341503059313,0.897
1748285341510746016,1.401
1748285341518432719,0.849
1748285341526119422,-0.34500000000000003
1748285341533806125,-0.805
1748285341541492828,-0.41300000000000003
1748285341549179531,-0.194
1748285341556866234,-0.20600000000000002
1748285341564552937,-0.097
1748285341572239640,-0.041
1748285341579926343,-0.08
1748285341587613046,-0.055
1748285341595299749,-0.019
1748285341602986452,-0.026000000000000002
1748285341610673155,-0.024
1748285341618359858,-0.004
1748285341626046561,-0.002
1748285341633733264,-0.004
1748285341641419967,0.004
1748285341649106670,0.021
1748285341656793373,0.029
1748285341664480076,0.029
1748285341672166779,0.051000000000000004
1748285341679853482,0.065
1748285341687540185,0.06
1748285341695226888,0.07
1748285341702913591,0.08700000000000001
1748285341710600294,0.094
1748285341718286997,0.107
1748285341725973700,0.126
1748285341733660403,0.14300000000000002
1748285341741347106,0.167
1748285341749033809,0.187
1748285341756720512,0.199
1748285341764407215,0.209
1748285341772093918,0.218
1748285341779780621,0.226
1748285341787467324,0.226
1748285341795154027,0.218
1748285341802840730,0.199
1748285341810527433,0.165
1748285341818214136,0.10200000000000001
1748285341825900839,0.026000000000000002
1748285341833587542,-0.034
1748285341841274245,-0.082
1748285341848960948,-0.128
1748285341856647651,-0.158
1748285341864334414,-0.167,67,962
1748285341872021117,-0.18
1748285341879707820,-0.182
1748285341887394523,-0.153
1748285341895081226,-0.138
1748285341902767929,-0.155
1748285341910454632,-0.148
1748285341918141335,-0.128
1748285341925828038,-0.128
1748285341933514741,-0.133
1748285341941201444,-0.124
1748285341948888147,-0.109
1748285341956574850,-0.109
1748285341964261553,-0.11900000000000001
1748285341971948256,-0.116
1748285341979634959,-0.114
1748285341987321662,-0.114
1748285341995008365,-0.114
1748285342002695068,-0.11900000000000001
1748285342010381771,-0.128
1748285342018068474,-0.121
1748285342025755177,-0.097
1748285342033441880,-0.097
1748285342041128583,-0.11900000000000001
1748285342048815286,-0.11900000000000001
1748285342056501989,-0.107
1748285342064188692,-0.109
1748285342071875395,-0.111
1748285342079562098,-0.10200000000000001
1748285342087248801,-0.092
1748285342094935504,-0.08700000000000001
1748285342102622207,-0.092
1748285342110308910,-0.099
1748285342117995613,-0.099
1748285342125682316,-0.092
1748285342133369019,-0.08700000000000001
1748285342141055722,-0.082
1748285342148742425,-0.075
1748285342156429128,-0.077
1748285342164115831,-0.08700000000000001
1748285342171802534,-0.085
1748285342179489237,-0.07200000000000001
1748285342187175940,-0.065
1748285342194862643,-0.07
1748285342202549346,-0.07
1748285342210236049,-0.06
1748285342217922752,-0.06
1748285342225609455,-0.068
1748285342233296158,-0.063
1748285342240982861,-0.058
1748285342248669564,-0.065
1748285342256356267,-0.065
1748285342264042970,-0.046
1748285342271729673,-0.038
1748285342279416376,-0.058
1748285342287103079,-0.06
1748285342294789782,-0.048
1748285342302476485,-0.053
1748285342310163188,-0.053
1748285342317849891,-0.053
1748285342325536594,-0.046
1748285342333223297,-0.034
1748285342340910000,-0.055
1748285342348596703,-0.07200000000000001
1748285342356283406,-0.051000000000000004
1748285342363970109,-0.043000000000000003
1748285342371656812,-0.053
1748285342379343515,-0.041
1748285342387030218,-0.021
1748285342394716921,-0.004
1748285342402403624,0.004
1748285342410090327,-0.029
1748285342417777030,-0.06
1748285342425463793,-0.038
1748285342433150845,-0.026000000000000002
1748285342440837897,-0.053
1748285342448524949,-0.055
1748285342456212001,-0.026000000000000002
1748285342463899053,-0.034
1748285342471586105,-0.094
1748285342479273157,-0.109
1748285342486960209,0.182
1748285342494647261,0.895
1748285342502334313,1.421
1748285342510021365,0.91
1748285342517708417,-0.272
1748285342525395469,-0.742
1748285342533082521,-0.364
1748285342540769573,-0.184
1748285342548456625,-0.24
1748285342556143677,-0.11900000000000001
1748285342563830729,-0.038
1748285342571517781,-0.08700000000000001
1748285342579204833,-0.055
1748285342586891885,-0.007
1748285342594578937,-0.041
1748285342602265989,-0.046
1748285342609953041,-0.014
1748285342617640093,-0.012
1748285342625327145,-0.002
1748285342633014197,0.012
1748285342640701249,0.007
1748285342648388301,0.024
1748285342656075353,0.053
1748285342663762405,0.043000000000000003
1748285342671449457,0.031
1748285342679136509,0.051000000000000004
1748285342686823561,0.068
1748285342694510613,0.068
1748285342702197665,0.068
1748285342709884717,0.08700000000000001
1748285342717571769,0.128
1748285342725258821,0.145
1748285342732945873,0.14100000000000001
1748285342740632925,0.158
1748285342748319977,0.197
1748285342756007029,0.209
1748285342763694081,0.192
1748285342771381133,0.214
1748285342779068185,0.248
1748285342786755237,0.226
1748285342794442289,0.184
1748285342802129341,0.153
1748285342809816393,0.099
1748285342817503445,0.034
1748285342825190497,-0.009000000000000001
1748285342832877549,-0.058
1748285342840564601,-0.107
1748285342848251653,-0.14100000000000001
1748285342855938705,-0.17200000000000001
1748285342863625757,-0.177
1748285342871312809,-0.16
1748285342878999861,-0.15
1748285342886686913,-0.155
1748285342894373965,-0.163
1748285342902061017,-0.145
1748285342909748069,-0.11900000000000001
1748285342917435121,-0.11900000000000001
1748285342925122173,-0.131
1748285342932809225,-0.128
1748285342940496277,-0.126
1748285342948183329,-0.114
1748285342955870381,-0.097
1748285342963557433,-0.114
1748285342971244485,-0.131
1748285342978931537,-0.109
1748285342986618607,-0.094,67,971
1748285342994305380,-0.10200000000000001
1748285343001992153,-0.121
1748285343009678926,-0.136
1748285343017365699,-0.128
1748285343025052472,-0.11900000000000001
1748285343032739245,-0.109
1748285343040426018,-0.10200000000000001
1748285343048112791,-0.109
1748285343055799564,-0.10400000000000001
1748285343063486337,-0.092
1748285343071173110,-0.111
1748285343078859883,-0.111
1748285343086546656,-0.08700000000000001
1748285343094233429,-0.10200000000000001
1748285343101920202,-0.107
1748285343109606975,-0.085
1748285343117293748,-0.097
1748285343124980521,-0.107
1748285343132667294,-0.08
1748285343140354067,-0.07200000000000001
1748285343148040840,-0.09
1748285343155727613,-0.08700000000000001
1748285343163414386,-0.077
1748285343171101159,-0.07200000000000001
1748285343178787932,-0.07
1748285343186474705,-0.075
1748285343194161478,-0.08
1748285343201848251,-0.082
1748285343209535024,-0.075
1748285343217221797,-0.053
1748285343224908570,-0.043000000000000003
1748285343232595343,-0.068
1748285343240282116,-0.085
1748285343247968889,-0.07
1748285343255655662,-0.07200000000000001
1748285343263342435,-0.08700000000000001
1748285343271029208,-0.08
1748285343278715981,-0.058
1748285343286402754,-0.038
1748285343294089527,-0.029
1748285343301776300,-0.014
1748285343309463073,-0.019
1748285343317149846,-0.051000000000000004
1748285343324836619,-0.051000000000000004
1748285343332523392,-0.058
1748285343340210165,-0.085
1748285343347896938,-0.065
1748285343355583711,-0.043000000000000003
1748285343363270484,-0.065
1748285343370957257,-0.075
1748285343378644030,-0.08
1748285343386330803,-0.004
1748285343394017576,0.46900000000000003
1748285343401704349,1.206
1748285343409391122,1.311
1748285343417077895,0.299
1748285343424764668,-0.742
1748285343432451441,-0.681
1748285343440138214,-0.245
1748285343447824987,-0.228
1748285343455511760,-0.211
1748285343463198533,-0.06
1748285343470885306,-0.038
1748285343478572079,-0.09
1748285343486258852,-0.058
1748285343493945625,0.007
1748285343501632398,0.009000000000000001
1748285343509319171,-0.031
1748285343517005944,-0.038
1748285343524692717,0.004
1748285343532379490,0.036000000000000004
1748285343540066263,0.034
1748285343547753069,0.021
1748285343555439842,0.031
1748285343563126615,0.051000000000000004
1748285343570813388,0.046
1748285343578500161,0.055
1748285343586186934,0.08
1748285343593873707,0.082
1748285343601560480,0.09
1748285343609247253,0.116
1748285343616934026,0.145
1748285343624620799,0.16
1748285343632307572,0.155
1748285343639994345,0.182
1748285343647681118,0.216
1748285343655367891,0.211
1748285343663054664,0.214
1748285343670741437,0.267
1748285343678428210,0.26
1748285343686114983,0.201
1748285343693801756,0.216
1748285343701488529,0.223
1748285343709175302,0.133
1748285343716862075,0.012
1748285343724548848,-0.058
1748285343732235621,-0.075
1748285343739922394,-0.10400000000000001
1748285343747609167,-0.167
1748285343755295940,-0.199
1748285343762982713,-0.189
1748285343770669486,-0.177
1748285343778356259,-0.17500000000000002
1748285343786043032,-0.18
1748285343793729805,-0.165
1748285343801416578,-0.138
1748285343809103351,-0.14300000000000002
1748285343816790124,-0.153
1748285343824476897,-0.133
1748285343832163670,-0.114
1748285343839850443,-0.109
1748285343847537216,-0.138
1748285343855223989,-0.155
1748285343862910762,-0.094
1748285343870597535,-0.075
1748285343878284308,-0.153
1748285343885971081,-0.17
1748285343893657854,-0.109
1748285343901344627,-0.099
1748285343909031400,-0.131
1748285343916718173,-0.126
1748285343924404946,-0.107
1748285343932091719,-0.099
1748285343939778492,-0.116
1748285343947465265,-0.145
1748285343955152038,-0.138
1748285343962838811,-0.114
1748285343970525584,-0.097
1748285343978212357,-0.10400000000000001
1748285343985899130,-0.116
1748285343993585903,-0.099
1748285344001272676,-0.08700000000000001
1748285344008959449,-0.094
1748285344016646222,-0.099
1748285344024332995,-0.099
1748285344032019768,-0.092
1748285344039706541,-0.077
1748285344047393314,-0.077
1748285344055080087,-0.099
1748285344062766860,-0.114
1748285344070453633,-0.09
1748285344078140406,-0.055
1748285344085827179,-0.063
1748285344093513952,-0.085
1748285344101200725,-0.07200000000000001
1748285344108887539,-0.07,66,961
1748285344116574591,-0.09
1748285344124261643,-0.068
1748285344131948695,-0.038
1748285344139635747,-0.075
1748285344147322799,-0.111
1748285344155009851,-0.077
1748285344162696903,-0.055
1748285344170383955,-0.068
1748285344178071007,-0.07
1748285344185758059,-0.051000000000000004
1748285344193445111,-0.009000000000000001
1748285344201132163,-0.009000000000000001
1748285344208819215,-0.043000000000000003
1748285344216506267,-0.058
1748285344224193319,-0.075
1748285344231880371,-0.08
1748285344239567423,-0.063
1748285344247254475,-0.075
1748285344254941527,-0.077
1748285344262628579,-0.058
1748285344270315631,-0.08700000000000001
1748285344278002683,0.065
1748285344285689735,0.727
1748285344293376787,1.418
1748285344301063839,1.068
1748285344308750891,-0.218
1748285344316437943,-0.905
1748285344324124995,-0.552
1748285344331812047,-0.257
1748285344339499099,-0.265
1748285344347186151,-0.131
1748285344354873203,-0.031
1748285344362560255,-0.07200000000000001
1748285344370247307,-0.06
1748285344377934359,0.004
1748285344385621411,-0.014
1748285344393308463,-0.055
1748285344400995515,-0.004
1748285344408682567,0.038
1748285344416369619,0.0
1748285344424056671,-0.017
1748285344431743723,0.038
1748285344439430775,0.07
1748285344447117827,0.046
1748285344454804879,0.055
1748285344462491931,0.075
1748285344470178983,0.053
1748285344477866035,0.063
1748285344485553087,0.10200000000000001
1748285344493240139,0.116
1748285344500927191,0.128
1748285344508614243,0.165
1748285344516301295,0.194
1748285344523988347,0.184
1748285344531675399,0.197
1748285344539362451,0.23600000000000002
1748285344547049503,0.248
1748285344554736555,0.23600000000000002
1748285344562423607,0.245
1748285344570110659,0.257
1748285344577797711,0.23600000000000002
1748285344585484763,0.20400000000000001
1748285344593171815,0.184
1748285344600858867,0.128
1748285344608545919,0.026000000000000002
1748285344616232971,-0.055
1748285344623920023,-0.097
1748285344631607075,-0.14100000000000001
1748285344639294127,-0.182
1748285344646981179,-0.192
1748285344654668231,-0.199
1748285344662355283,-0.189
1748285344670042349,-0.158
1748285344677729052,-0.155
1748285344685415755,-0.17500000000000002
1748285344693102458,-0.16
1748285344700789161,-0.138
1748285344708475864,-0.153
1748285344716162567,-0.155
1748285344723849270,-0.136
1748285344731535973,-0.107
1748285344739222676,-0.085
1748285344746909379,-0.126
1748285344754596082,-0.15
1748285344762282785,-0.116
1748285344769969488,-0.11900000000000001
1748285344777656191,-0.136
1748285344785342894,-0.136
1748285344793029597,-0.14100000000000001
1748285344800716300,-0.128
1748285344808403003,-0.10200000000000001
1748285344816089706,-0.107
1748285344823776409,-0.131
1748285344831463112,-0.133
1748285344839149815,-0.121
1748285344846836518,-0.136
1748285344854523221,-0.136
1748285344862209924,-0.094
1748285344869896627,-0.09
1748285344877583330,-0.131
1748285344885270033,-0.131
1748285344892956736,-0.099
1748285344900643439,-0.099
1748285344908330142,-0.111
1748285344916016845,-0.094
1748285344923703548,-0.07
1748285344931390251,-0.094
1748285344939076954,-0.128
1748285344946763657,-0.099
1748285344954450360,-0.077
1748285344962137063,-0.10400000000000001
1748285344969823766,-0.10400000000000001
1748285344977510469,-0.063
1748285344985197172,-0.051000000000000004
1748285344992883875,-0.092
1748285345000570578,-0.10400000000000001
1748285345008257281,-0.08
1748285345015943984,-0.082
1748285345023630687,-0.099
1748285345031317390,-0.065
1748285345039004093,-0.002
1748285345046690796,-0.019
1748285345054377499,-0.077
1748285345062064202,-0.055
1748285345069750905,-0.029
1748285345077437608,-0.055
1748285345085124311,-0.085
1748285345092811014,-0.099
1748285345100497717,-0.075
1748285345108184420,-0.036000000000000004
1748285345115871123,-0.058
1748285345123557826,-0.08
1748285345131244529,-0.082
1748285345138931232,-0.034
1748285345146617935,0.326
1748285345154304638,1.0190000000000001
1748285345161991341,1.296
1748285345169678044,0.467
1748285345177364747,-0.6880000000000001
1748285345185051450,-0.871
1748285345192738153,-0.437
1748285345200424856,-0.321
1748285345208111559,-0.28400000000000003
1748285345215798262,-0.07
1748285345223484965,0.004
1748285345231171728,-0.063,66,991
1748285345238858431,-0.06
1748285345246545134,-0.007
1748285345254231837,-0.007
1748285345261918540,-0.007
1748285345269605243,0.012
1748285345277291946,0.007
1748285345284978649,0.014
1748285345292665352,0.046
1748285345300352055,0.068
1748285345308038758,0.063
1748285345315725461,0.065
1748285345323412164,0.077
1748285345331098867,0.09
1748285345338785570,0.097
1748285345346472273,0.092
1748285345354158976,0.116
1748285345361845679,0.145
1748285345369532382,0.158
1748285345377219085,0.211
1748285345384905788,0.243
1748285345392592491,0.218
1748285345400279194,0.223
1748285345407965897,0.257
1748285345415652600,0.279
1748285345423339303,0.279
1748285345431026006,0.28400000000000003
1748285345438712709,0.294
1748285345446399412,0.262
1748285345454086115,0.214
1748285345461772818,0.167
1748285345469459521,0.075
1748285345477146224,-0.024
1748285345484832927,-0.07
1748285345492519630,-0.126
1748285345500206333,-0.197
1748285345507893036,-0.211
1748285345515579739,-0.194
1748285345523266442,-0.199
1748285345530953145,-0.211
1748285345538639848,-0.194
1748285345546326551,-0.177
1748285345554013254,-0.167
1748285345561699957,-0.153
1748285345569386660,-0.158
1748285345577073363,-0.14100000000000001
1748285345584760066,-0.107
1748285345592446769,-0.131
1748285345600133472,-0.148
1748285345607820175,-0.107
1748285345615506878,-0.109
1748285345623193581,-0.158
1748285345630880284,-0.138
1748285345638566987,-0.09
1748285345646253690,-0.114
1748285345653940393,-0.145
1748285345661627096,-0.133
1748285345669313799,-0.11900000000000001
1748285345677000502,-0.11900000000000001
1748285345684687205,-0.121
1748285345692373908,-0.14300000000000002
1748285345700060611,-0.163
1748285345707747314,-0.128
1748285345715434017,-0.085
1748285345723120720,-0.094
1748285345730807423,-0.128
1748285345738494126,-0.131
1748285345746180829,-0.099
1748285345753867532,-0.097
1748285345761554235,-0.124
1748285345769240938,-0.121
1748285345776927641,-0.11900000000000001
1748285345784614344,-0.11900000000000001
1748285345792301107,-0.077,65,903
1748285345799988159,-0.06,,889
1748285345807675211,-0.097
1748285345815362263,-0.10200000000000001
1748285345823049315,-0.06
1748285345830736367,-0.055
1748285345838423419,-0.116
1748285345846110471,-0.148
1748285345853797523,-0.09
1748285345861484575,-0.082
1748285345869171627,-0.116
1748285345876858679,-0.075
1748285345884545731,-0.029
1748285345892232783,-0.038
1748285345899919835,-0.038
1748285345907606887,-0.031
1748285345915293939,-0.07
1748285345922980991,-0.109
1748285345930668043,-0.07
1748285345938355095,-0.029
1748285345946042147,-0.051000000000000004
1748285345953729199,-0.077
1748285345961416251,-0.07200000000000001
1748285345969103303,-0.06
1748285345976790355,-0.07200000000000001
1748285345984477407,-0.14300000000000002
1748285345992164459,-0.029
1748285345999851511,0.608
1748285346007538563,1.352
1748285346015225615,1.204
1748285346022912667,0.026000000000000002
1748285346030599719,-0.839
1748285346038286771,-0.586
1748285346045973823,-0.20400000000000001
1748285346053660875,-0.257
1748285346061347927,-0.216
1748285346069034979,-0.06
1748285346076722031,-0.065
1748285346084409083,-0.107
1748285346092096135,-0.063
1748285346099783187,-0.014
1748285346107470239,-0.017
1748285346115157291,-0.019
1748285346122844343,0.0
1748285346130531395,0.007
1748285346138218447,0.0
1748285346145905499,0.004
1748285346153592551,0.012
1748285346161279603,0.017
1748285346168966655,0.031
1748285346176653707,0.046
1748285346184340759,0.055
1748285346192027811,0.07200000000000001
1748285346199714863,0.099
1748285346207401915,0.10200000000000001
1748285346215088967,0.099
1748285346222776019,0.131
1748285346230463071,0.16
1748285346238150123,0.177
1748285346245837175,0.20400000000000001
1748285346253524227,0.20600000000000002
1748285346261211279,0.221
1748285346268898331,0.243
1748285346276585383,0.248
1748285346284272435,0.28400000000000003
1748285346291959487,0.274
1748285346299646539,0.216
1748285346307333591,0.184
1748285346315020643,0.138
1748285346322707695,0.029
1748285346330394747,-0.082
1748285346338081799,-0.124
1748285346345768851,-0.14300000000000002
1748285346353455921,-0.17500000000000002
1748285346361142694,-0.184
1748285346368829467,-0.194
1748285346376516240,-0.187
1748285346384203013,-0.16
1748285346391889786,-0.158
1748285346399576559,-0.17200000000000001
1748285346407263332,-0.177
1748285346414950105,-0.16
1748285346422636878,-0.148
1748285346430323651,-0.15
1748285346438010424,-0.14300000000000002
1748285346445697197,-0.126
1748285346453383970,-0.128
1748285346461070743,-0.124
1748285346468757516,-0.136
1748285346476444289,-0.16
1748285346484131062,-0.138
1748285346491817835,-0.107
1748285346499504608,-0.124
1748285346507191381,-0.145
1748285346514878154,-0.136
1748285346522564927,-0.116
1748285346530251700,-0.128
1748285346537938473,-0.163
1748285346545625246,-0.153
1748285346553312019,-0.11900000000000001
1748285346560998792,-0.111
1748285346568685565,-0.111
1748285346576372338,-0.10200000000000001
1748285346584059111,-0.11900000000000001
1748285346591745884,-0.128
1748285346599432657,-0.107
1748285346607119430,-0.10200000000000001
1748285346614806203,-0.111
1748285346622492976,-0.109
1748285346630179749,-0.10200000000000001
1748285346637866522,-0.099
1748285346645553295,-0.10200000000000001
1748285346653240068,-0.094
1748285346660926841,-0.085
1748285346668613614,-0.092
1748285346676300387,-0.099
1748285346683987160,-0.10200000000000001
1748285346691673933,-0.094
1748285346699360706,-0.065
1748285346707047479,-0.053
1748285346714734252,-0.08
1748285346722421025,-0.092
1748285346730107798,-0.08700000000000001
1748285346737794571,-0.085
1748285346745481344,-0.082
1748285346753168117,-0.075
1748285346760854890,-0.063
1748285346768541663,-0.051000000000000004
1748285346776228436,-0.036000000000000004
1748285346783915209,-0.026000000000000002
1748285346791601982,-0.043000000000000003
1748285346799288755,-0.068
1748285346806975528,-0.07200000000000001
1748285346814662301,-0.07
1748285346822349074,-0.075
1748285346830035847,-0.068
1748285346837722620,-0.063
1748285346845409393,-0.068
1748285346853096166,-0.092
1748285346860782939,-0.136
1748285346868469712,-0.002
1748285346876156485,0.601
1748285346883843258,1.323
1748285346891530031,1.214
1748285346899216804,0.10400000000000001
1748285346906903577,-0.768
1748285346914590383,-0.593,65,865
1748285346922277156,-0.25
1748285346929963929,-0.27
1748285346937650702,-0.194
1748285346945337475,-0.058
1748285346953024248,-0.085
1748285346960711021,-0.10200000000000001
1748285346968397794,-0.053
1748285346976084567,-0.043000000000000003
1748285346983771340,-0.053
1748285346991458113,-0.031
1748285346999144886,-0.017
1748285347006831659,-0.019
1748285347014518432,-0.012
1748285347022205205,0.0
1748285347029891978,0.007
1748285347037578751,0.014
1748285347045265524,0.026000000000000002
1748285347052952297,0.034
1748285347060639070,0.043000000000000003
1748285347068325843,0.058
1748285347076012616,0.07200000000000001
1748285347083699389,0.085
1748285347091386162,0.10200000000000001
1748285347099072935,0.116
1748285347106759708,0.131
1748285347114446481,0.167
1748285347122133254,0.20400000000000001
1748285347129820027,0.221
1748285347137506800,0.231
1748285347145193573,0.245
1748285347152880346,0.25
1748285347160567119,0.248
1748285347168253892,0.25
1748285347175940665,0.23600000000000002
1748285347183627438,0.182
1748285347191314211,0.114
1748285347199000984,0.046
1748285347206687757,-0.026000000000000002
1748285347214374530,-0.09
1748285347222061303,-0.136
1748285347229748076,-0.167
1748285347237434849,-0.187
1748285347245121622,-0.194
1748285347252808395,-0.192
1748285347260495168,-0.192
1748285347268181941,-0.184
1748285347275868714,-0.17500000000000002
1748285347283555487,-0.167
1748285347291242260,-0.163
1748285347298929033,-0.155
1748285347306615806,-0.155
1748285347314302579,-0.153
1748285347321989352,-0.136
1748285347329676125,-0.121
1748285347337362898,-0.131
1748285347345049671,-0.133
1748285347352736444,-0.128
1748285347360423217,-0.133
1748285347368109990,-0.136
1748285347375796763,-0.133
1748285347383483536,-0.133
1748285347391170309,-0.138
1748285347398857082,-0.138
1748285347406543855,-0.136
1748285347414230628,-0.136
1748285347421917401,-0.126
1748285347429604174,-0.114
1748285347437290947,-0.11900000000000001
1748285347444977720,-0.124
1748285347452664493,-0.116
1748285347460351266,-0.111
1748285347468038039,-0.114
1748285347475724853,-0.109
1748285347483411905,-0.109
1748285347491098957,-0.109
1748285347498786009,-0.10400000000000001
1748285347506473061,-0.10200000000000001
1748285347514160113,-0.10200000000000001
1748285347521847165,-0.10200000000000001
1748285347529534217,-0.097
1748285347537221269,-0.09
1748285347544908321,-0.085
1748285347552595373,-0.085
1748285347560282425,-0.082
1748285347567969477,-0.085
1748285347575656529,-0.085
1748285347583343581,-0.08
1748285347591030633,-0.08
1748285347598717685,-0.075
1748285347606404737,-0.068
1748285347614091789,-0.068
1748285347621778841,-0.07200000000000001
1748285347629465893,-0.068
1748285347637152945,-0.065
1748285347644839997,-0.068
1748285347652527049,-0.07
1748285347660214101,-0.063
1748285347667901153,-0.06
1748285347675588205,-0.07
1748285347683275257,-0.077
1748285347690962309,-0.07200000000000001
1748285347698649361,-0.065
1748285347706336413,-0.058
1748285347714023465,-0.046
1748285347721710517,-0.038
1748285347729397569,-0.031
1748285347737084621,-0.014
1748285347744771673,-0.021
1748285347752458725,-0.051000000000000004
1748285347760145777,-0.063
1748285347767832829,-0.055
1748285347775519881,-0.058
1748285347783206933,-0.058
1748285347790893985,-0.055
1748285347798581037,-0.063
1748285347806268089,-0.099
1748285347813955141,-0.138
1748285347821642193,0.094
1748285347829329245,0.81
1748285347837016297,1.447
1748285347844703349,1.073
1748285347852390401,-0.136
1748285347860077453,-0.781
1748285347867764505,-0.462
1748285347875451557,-0.221
1748285347883138609,-0.265
1748285347890825661,-0.15
1748285347898512713,-0.053
1748285347906199765,-0.094
1748285347913886817,-0.082
1748285347921573869,-0.036000000000000004
1748285347929260921,-0.043000000000000003
1748285347936947973,-0.043000000000000003
1748285347944635025,-0.021
1748285347952322077,-0.019
1748285347960009129,-0.024
1748285347967696181,-0.009000000000000001
1748285347975383233,0.012
1748285347983070285,0.017
1748285347990757337,0.019
1748285347998444389,0.026000000000000002
1748285348006131441,0.036000000000000004
1748285348013818493,0.043000000000000003
1748285348021505545,0.06
1748285348029192597,0.07
1748285348036879663,0.08,66,851
1748285348044566366,0.097
1748285348052253069,0.121
1748285348059939772,0.145
1748285348067626475,0.167
1748285348075313178,0.189
1748285348082999881,0.20600000000000002
1748285348090686584,0.218
1748285348098373287,0.24
1748285348106059990,0.25
1748285348113746693,0.23600000000000002
1748285348121433396,0.24
1748285348129120099,0.243
1748285348136806802,0.194
1748285348144493505,0.126
1748285348152180208,0.058
1748285348159866911,-0.009000000000000001
1748285348167553614,-0.075
1748285348175240317,-0.124
1748285348182927020,-0.16
1748285348190613723,-0.182
1748285348198300426,-0.182
1748285348205987129,-0.18
1748285348213673832,-0.177
1748285348221360535,-0.17500000000000002
1748285348229047238,-0.17200000000000001
1748285348236733941,-0.158
1748285348244420644,-0.14300000000000002
1748285348252107347,-0.145
1748285348259794050,-0.148
1748285348267480753,-0.136
1748285348275167456,-0.128
1748285348282854159,-0.124
1748285348290540862,-0.11900000000000001
1748285348298227565,-0.124
1748285348305914268,-0.126
1748285348313600971,-0.128
1748285348321287674,-0.128
1748285348328974377,-0.126
1748285348336661080,-0.124
1748285348344347783,-0.131
1748285348352034486,-0.126
1748285348359721189,-0.114
1748285348367407892,-0.116
1748285348375094595,-0.121
1748285348382781298,-0.116
1748285348390468001,-0.111
1748285348398154704,-0.116
1748285348405841407,-0.116
1748285348413528110,-0.116
1748285348421214813,-0.124
1748285348428901516,-0.114
1748285348436588219,-0.092
1748285348444274922,-0.097
1748285348451961625,-0.10400000000000001
1748285348459648328,-0.092
1748285348467335031,-0.092
1748285348475021734,-0.094
1748285348482708437,-0.08700000000000001
1748285348490395140,-0.08700000000000001
1748285348498081843,-0.092
1748285348505768546,-0.082
1748285348513455249,-0.077
1748285348521141952,-0.082
1748285348528828655,-0.077
1748285348536515358,-0.07
1748285348544202061,-0.077
1748285348551888764,-0.075
1748285348559575467,-0.07
1748285348567262170,-0.07200000000000001
1748285348574948873,-0.068
1748285348582635576,-0.068
1748285348590322279,-0.07
1748285348598009042,-0.058
1748285348605695745,-0.055
1748285348613382448,-0.065
1748285348621069151,-0.063
1748285348628755854,-0.058
1748285348636442557,-0.055
1748285348644129260,-0.053
1748285348651815963,-0.063
1748285348659502666,-0.08
1748285348667189369,-0.07200000000000001
1748285348674876072,-0.051000000000000004
1748285348682562775,-0.058
1748285348690249478,-0.06
1748285348697936181,-0.031
1748285348705622884,-0.017
1748285348713309587,-0.014
1748285348720996290,-0.024
1748285348728682993,-0.055
1748285348736369696,-0.058
1748285348744056399,-0.046
1748285348751743102,-0.055
1748285348759429805,-0.055
1748285348767116508,-0.043000000000000003
1748285348774803211,-0.048
1748285348782489914,-0.075
1748285348790176617,-0.109
1748285348797863320,-0.009000000000000001
1748285348805550023,0.518
1748285348813236726,1.262
1748285348820923429,1.2790000000000001
1748285348828610132,0.214
1748285348836296835,-0.751
1748285348843983538,-0.649
1748285348851670241,-0.28400000000000003
1748285348859356944,-0.28400000000000003
1748285348867043647,-0.214
1748285348874730350,-0.055
1748285348882417053,-0.063
1748285348890103756,-0.085
1748285348897790459,-0.041
1748285348905477162,-0.029
1748285348913163865,-0.036000000000000004
1748285348920850568,-0.017
1748285348928537271,0.002
1748285348936223974,0.0
1748285348943910677,0.004
1748285348951597380,0.019
1748285348959284083,0.031
1748285348966970786,0.031
1748285348974657489,0.036000000000000004
1748285348982344192,0.048
1748285348990030895,0.06
1748285348997717598,0.068
1748285349005404301,0.092
1748285349013091004,0.116
1748285349020777707,0.11900000000000001
1748285349028464410,0.131
1748285349036151113,0.16
1748285349043837816,0.182
1748285349051524519,0.197
1748285349059211222,0.218
1748285349066897925,0.24
1748285349074584628,0.253
1748285349082271331,0.255
1748285349089958034,0.255
1748285349097644737,0.257
1748285349105331440,0.253
1748285349113018143,0.218
1748285349120704846,0.155
1748285349128391549,0.08700000000000001
1748285349136078252,0.021
1748285349143764955,-0.048
1748285349151451658,-0.111
1748285349159138421,-0.155,66,877
1748285349166825124,-0.182
1748285349174511827,-0.197
1748285349182198530,-0.199
1748285349189885233,-0.201
1748285349197571936,-0.199
1748285349205258639,-0.184
1748285349212945342,-0.177
1748285349220632045,-0.167
1748285349228318748,-0.15
1748285349236005451,-0.14100000000000001
1748285349243692154,-0.138
1748285349251378857,-0.128
1748285349259065560,-0.121
1748285349266752263,-0.124
1748285349274438966,-0.124
1748285349282125669,-0.121
1748285349289812372,-0.116
1748285349297499075,-0.109
1748285349305185778,-0.114
1748285349312872481,-0.126
1748285349320559184,-0.126
1748285349328245887,-0.116
1748285349335932590,-0.11900000000000001
1748285349343619293,-0.124
1748285349351305996,-0.126
1748285349358992699,-0.126
1748285349366679402,-0.116
1748285349374366105,-0.107
1748285349382052808,-0.114
1748285349389739511,-0.114
1748285349397426214,-0.109
1748285349405112917,-0.109
1748285349412799620,-0.107
1748285349420486323,-0.10200000000000001
1748285349428173026,-0.099
1748285349435859729,-0.097
1748285349443546432,-0.099
1748285349451233135,-0.099
1748285349458919838,-0.092
1748285349466606541,-0.08700000000000001
1748285349474293244,-0.085
1748285349481979947,-0.082
1748285349489666650,-0.082
1748285349497353353,-0.08
1748285349505040056,-0.075
1748285349512726759,-0.07200000000000001
1748285349520413462,-0.075
1748285349528100165,-0.07200000000000001
1748285349535786868,-0.077
1748285349543473571,-0.077
1748285349551160274,-0.063
1748285349558846977,-0.055
1748285349566533680,-0.063
1748285349574220383,-0.068
1748285349581907086,-0.06
1748285349589593789,-0.06
1748285349597280492,-0.06
1748285349604967195,-0.058
1748285349612653898,-0.063
1748285349620340601,-0.065
1748285349628027304,-0.06
1748285349635714007,-0.063
1748285349643400710,-0.07200000000000001
1748285349651087413,-0.068
1748285349658774116,-0.055
1748285349666460819,-0.046
1748285349674147522,-0.034
1748285349681834225,-0.019
1748285349689520928,-0.017
1748285349697207631,-0.038
1748285349704894334,-0.058
1748285349712581037,-0.053
1748285349720267800,-0.048
1748285349727954921,-0.06
1748285349735642042,-0.055
1748285349743329163,-0.043000000000000003
1748285349751016284,-0.051000000000000004
1748285349758703405,-0.09
1748285349766390526,-0.145
1748285349774077647,-0.007
1748285349781764768,0.618
1748285349789451889,1.357
1748285349797139010,1.2670000000000001
1748285349804826131,0.17200000000000001
1748285349812513252,-0.712
1748285349820200373,-0.559
1748285349827887494,-0.209
1748285349835574615,-0.226
1748285349843261736,-0.187
1748285349850948857,-0.07
1748285349858635978,-0.08700000000000001
1748285349866323099,-0.107
1748285349874010220,-0.065
1748285349881697341,-0.046
1748285349889384462,-0.046
1748285349897071583,-0.036000000000000004
1748285349904758704,-0.029
1748285349912445825,-0.031
1748285349920132946,-0.024
1748285349927820067,-0.004
1748285349935507188,0.012
1748285349943194309,0.009000000000000001
1748285349950881430,0.009000000000000001
1748285349958568551,0.019
1748285349966255672,0.031
1748285349973942793,0.046
1748285349981629914,0.063
1748285349989317035,0.068
1748285349997004156,0.075
1748285350004691277,0.09
1748285350012378398,0.107
1748285350020065519,0.14100000000000001
1748285350027752640,0.177
1748285350035439761,0.192
1748285350043126882,0.201
1748285350050814003,0.218
1748285350058501124,0.226
1748285350066188245,0.231
1748285350073875366,0.243
1748285350081562487,0.233
1748285350089249608,0.194
1748285350096936729,0.14300000000000002
1748285350104623850,0.075
1748285350112310971,0.009000000000000001
1748285350119998092,-0.036000000000000004
1748285350127685213,-0.09
1748285350135372334,-0.145
1748285350143059455,-0.17
1748285350150746576,-0.17200000000000001
1748285350158433697,-0.177
1748285350166120818,-0.184
1748285350173807939,-0.18
1748285350181495060,-0.17200000000000001
1748285350189182181,-0.163
1748285350196869302,-0.15
1748285350204556423,-0.148
1748285350212243544,-0.153
1748285350219930665,-0.14300000000000002
1748285350227617786,-0.136
1748285350235304907,-0.138
1748285350242992028,-0.138
1748285350250679149,-0.131
1748285350258366270,-0.128
1748285350266053391,-0.131
1748285350273740512,-0.126
1748285350281427701,-0.121,66,951
1748285350289114404,-0.126
1748285350296801107,-0.128
1748285350304487810,-0.126
1748285350312174513,-0.128
1748285350319861216,-0.128
1748285350327547919,-0.124
1748285350335234622,-0.124
1748285350342921325,-0.126
1748285350350608028,-0.11900000000000001
1748285350358294731,-0.109
1748285350365981434,-0.10400000000000001
1748285350373668137,-0.109
1748285350381354840,-0.111
1748285350389041543,-0.10400000000000001
1748285350396728246,-0.10200000000000001
1748285350404414949,-0.107
1748285350412101652,-0.107
1748285350419788355,-0.099
1748285350427475058,-0.092
1748285350435161761,-0.094
1748285350442848464,-0.09
1748285350450535167,-0.085
1748285350458221870,-0.08700000000000001
1748285350465908573,-0.082
1748285350473595276,-0.08
1748285350481281979,-0.082
1748285350488968682,-0.08
1748285350496655385,-0.077
1748285350504342088,-0.08
1748285350512028791,-0.077
1748285350519715494,-0.07
1748285350527402197,-0.07
1748285350535088900,-0.07200000000000001
1748285350542775603,-0.068
1748285350550462306,-0.065
1748285350558149009,-0.068
1748285350565835712,-0.065
1748285350573522415,-0.065
1748285350581209118,-0.068
1748285350588895821,-0.063
1748285350596582524,-0.053
1748285350604269227,-0.053
1748285350611955930,-0.06
1748285350619642633,-0.06
1748285350627329336,-0.058
1748285350635016039,-0.06
1748285350642702742,-0.058
1748285350650389445,-0.053
1748285350658076148,-0.051000000000000004
1748285350665762851,-0.055
1748285350673449554,-0.06
1748285350681136257,-0.06
1748285350688822960,-0.046
1748285350696509663,-0.041
1748285350704196366,-0.051000000000000004
1748285350711883069,-0.051000000000000004
1748285350719569772,-0.041
1748285350727256475,-0.046
1748285350734943178,-0.058
1748285350742629881,-0.063
1748285350750316584,-0.058
1748285350758003287,-0.055
1748285350765689990,-0.046
1748285350773376693,-0.036000000000000004
1748285350781063396,-0.026000000000000002
1748285350788750099,-0.009000000000000001
1748285350796436802,-0.002
1748285350804123505,-0.029
1748285350811810208,-0.053
1748285350819496911,-0.046
1748285350827183614,-0.043000000000000003
1748285350834870317,-0.048
1748285350842557080,-0.046,66,979
1748285350850243783,-0.043000000000000003
1748285350857930486,-0.055
1748285350865617189,-0.107
1748285350873303892,-0.133
1748285350880990595,0.17200000000000001
1748285350888677298,0.927
1748285350896364001,1.462
1748285350904050704,0.963
1748285350911737407,-0.214
1748285350919424110,-0.708
1748285350927110813,-0.36
1748285350934797516,-0.194
1748285350942484219,-0.243
1748285350950170922,-0.124
1748285350957857625,-0.053
1748285350965544328,-0.099
1748285350973231031,-0.085
1748285350980917734,-0.048
1748285350988604437,-0.051000000000000004
1748285350996291140,-0.046
1748285351003977843,-0.026000000000000002
1748285351011664546,-0.021
1748285351019351249,-0.019
1748285351027037952,-0.014
1748285351034724655,-0.009000000000000001
1748285351042411358,-0.004
1748285351050098061,0.007
1748285351057784764,0.021
1748285351065471467,0.034
1748285351073158170,0.038
1748285351080844873,0.046
1748285351088531576,0.055
1748285351096218279,0.063
1748285351103904982,0.075
1748285351111591685,0.09
1748285351119278388,0.10400000000000001
1748285351126965091,0.121
1748285351134651794,0.15
1748285351142338497,0.17500000000000002
1748285351150025200,0.177
1748285351157711903,0.201
1748285351165398606,0.272
1748285351173085309,0.291
1748285351180772012,0.221
1748285351188458715,0.17200000000000001
1748285351196145418,0.194
1748285351203832121,0.17
1748285351211518824,0.055
1748285351219205527,-0.017
1748285351226892230,-0.017
1748285351234578933,-0.063
1748285351242265636,-0.092
1748285351249952339,-0.038
1748285351257639042,-0.121
1748285351265325745,-0.28400000000000003
1748285351273012448,-0.226
1748285351280699151,-0.121
1748285351288385854,-0.163
1748285351296072557,-0.17500000000000002
1748285351303759260,-0.131
1748285351311445963,-0.131
1748285351319132666,-0.136
1748285351326819369,-0.128
1748285351334506072,-0.131
1748285351342192775,-0.109
1748285351349879478,-0.099
1748285351357566181,-0.14100000000000001
1748285351365252884,-0.155
1748285351372939587,-0.131
1748285351380626290,-0.126
1748285351388312993,-0.099
1748285351395999696,-0.092
1748285351403686459,-0.16
1748285351411373371,-0.17500000000000002
1748285351419060283,-0.10400000000000001
1748285351426747195,-0.107
1748285351434434107,-0.182
1748285351442121019,-0.16
1748285351449807931,-0.058
1748285351457494843,-0.048
1748285351465181755,-0.10200000000000001
1748285351472868667,-0.107
1748285351480555579,-0.094
1748285351488242491,-0.107
1748285351495929403,-0.136
1748285351503616315,-0.145
1748285351511303227,-0.11900000000000001
1748285351518990139,-0.092
1748285351526677051,-0.097
1748285351534363963,-0.10400000000000001
1748285351542050875,-0.085
1748285351549737787,-0.051000000000000004
1748285351557424699,-0.068
1748285351565111611,-0.114
1748285351572798523,-0.085
1748285351580485435,-0.068
1748285351588172347,-0.128
1748285351595859259,-0.114
1748285351603546171,-0.014
1748285351611233083,-0.024
1748285351618919995,-0.11900000000000001
1748285351626606907,-0.097
1748285351634293819,-0.053
1748285351641980731,-0.109
1748285351649667643,-0.126
1748285351657354555,-0.051000000000000004
1748285351665041467,-0.009000000000000001
1748285351672728379,-0.06
1748285351680415291,-0.10400000000000001
1748285351688102203,-0.038
1748285351695789115,0.009000000000000001
1748285351703476027,-0.094
1748285351711162939,-0.15
1748285351718849851,-0.051000000000000004
1748285351726536763,-0.002
1748285351734223675,-0.075
1748285351741910587,-0.10200000000000001
1748285351749597499,-0.038
1748285351757284411,-0.019
1748285351764971323,-0.07200000000000001
1748285351772658235,-0.08700000000000001
1748285351780345147,-0.053
1748285351788032059,-0.048
1748285351795718971,-0.068
1748285351803405883,-0.058
1748285351811092795,-0.051000000000000004
1748285351818779707,-0.06
1748285351826466619,-0.048
1748285351834153531,-0.007
1748285351841840443,0.002
1748285351849527355,-0.053
1748285351857214267,-0.063
1748285351864901179,-0.012
1748285351872588091,-0.058
1748285351880275003,-0.126
1748285351887961915,-0.058
1748285351895648827,0.002
1748285351903335739,-0.058
1748285351911022651,-0.116
1748285351918709563,-0.114
1748285351926396475,0.10400000000000001
1748285351934083387,0.783
1748285351941770299,1.418
1748285351949457211,1.08
1748285351957144123,-0.107
1748285351964831099,-0.778,66,976
1748285351972518011,-0.457
1748285351980204923,-0.192
1748285351987891835,-0.265
1748285351995578747,-0.167
1748285352003265659,-0.048
1748285352010952571,-0.092
1748285352018639483,-0.085
1748285352026326395,-0.043000000000000003
1748285352034013307,-0.065
1748285352041700219,-0.034
1748285352049387131,0.029
1748285352057074043,-0.009000000000000001
1748285352064760955,-0.055
1748285352072447867,-0.017
1748285352080134779,0.019
1748285352087821691,0.004
1748285352095508603,0.0
1748285352103195515,0.014
1748285352110882427,0.036000000000000004
1748285352118569339,0.038
1748285352126256251,0.029
1748285352133943163,0.06
1748285352141630075,0.08700000000000001
1748285352149316987,0.085
1748285352157003899,0.08700000000000001
1748285352164690811,0.099
1748285352172377723,0.126
1748285352180064635,0.153
