time,ecg,hr,rr,marker
1747684262289262086,-0.079
1747684262296949347,-0.089
1747684262304636608,-0.108
1747684262312323869,-0.064
1747684262320011130,0.202
1747684262327698391,0.588
1747684262335385652,0.583
1747684262343072913,0.032
1747684262350760174,-0.44
1747684262358447435,-0.41300000000000003
1747684262366134696,-0.244
1747684262373821957,-0.22
1747684262381509218,-0.165
1747684262389196479,-0.076
1747684262396883740,-0.074
1747684262404571001,-0.089
1747684262412258262,-0.066
1747684262419945523,-0.051000000000000004
1747684262427632784,-0.054
1747684262435320045,-0.047
1747684262443007306,-0.034
1747684262450694567,-0.032
1747684262458381828,-0.032
1747684262466069089,-0.024
1747684262473756350,-0.014
1747684262481443611,-0.012
1747684262489130872,-0.012
1747684262496818133,-0.002
1747684262504505394,0.002
1747684262512192655,0.0
1747684262519879916,0.017
1747684262527567177,0.034
1747684262535254438,0.032
1747684262542941699,0.042
1747684262550628960,0.054
1747684262558316221,0.049
1747684262566003482,0.047
1747684262573690743,0.049
1747684262581378004,0.044
1747684262589065265,0.042
1747684262596752526,0.049
1747684262604439787,0.044
1747684262612127048,0.027
1747684262619814309,0.004
1747684262627501570,-0.017
1747684262635188831,-0.047
1747684262642876092,-0.076
1747684262650563353,-0.094
1747684262658250614,-0.101
1747684262665937875,-0.111
1747684262673625136,-0.11800000000000001
1747684262681312397,-0.116
1747684262688999658,-0.11800000000000001
1747684262696686919,-0.11800000000000001
1747684262704374180,-0.113
1747684262712061441,-0.108
1747684262719748702,-0.106
1747684262727435963,-0.10300000000000001
1747684262735123224,-0.10300000000000001
1747684262742810485,-0.101
1747684262750497746,-0.101
1747684262758185007,-0.108
1747684262765872268,-0.116
1747684262773559529,-0.113
1747684262781246790,-0.106
1747684262788934051,-0.106
1747684262796621312,-0.116
1747684262804308573,-0.121
1747684262811995834,-0.121
1747684262819683095,-0.116
1747684262827370356,-0.106
1747684262835057617,-0.106
1747684262842744878,-0.108
1747684262850432157,-0.113,89,682
1747684262858119557,-0.121
1747684262865806957,-0.123
1747684262873494357,-0.121
1747684262881181757,-0.116
1747684262888869157,-0.101
1747684262896556557,-0.084
1747684262904243957,-0.074
1747684262911931357,-0.066
1747684262919618757,-0.066
1747684262927306157,-0.076
1747684262934993557,-0.089
1747684262942680957,-0.091
1747684262950368357,-0.094
1747684262958055757,-0.089
1747684262965743157,-0.091
1747684262973430557,-0.091
1747684262981117957,-0.08600000000000001
1747684262988805357,-0.094
1747684262996492757,-0.091
1747684263004180157,0.084
1747684263011867557,0.487
1747684263019554957,0.682
1747684263027242357,0.264
1747684263034929757,-0.338
1747684263042617157,-0.484
1747684263050304557,-0.299
1747684263057991957,-0.222
1747684263065679357,-0.19
1747684263073366757,-0.091
1747684263081054157,-0.059000000000000004
1747684263088741557,-0.084
1747684263096428957,-0.069
1747684263104116357,-0.044
1747684263111803757,-0.044
1747684263119491157,-0.039
1747684263127178557,-0.027
1747684263134865957,-0.029
1747684263142553357,-0.029
1747684263150240757,-0.017
1747684263157928157,-0.012
1747684263165615557,-0.009000000000000001
1747684263173302957,-0.002
1747684263180990357,0.004
1747684263188677757,0.009000000000000001
1747684263196365157,0.027
1747684263204052557,0.044
1747684263211739957,0.044
1747684263219427357,0.042
1747684263227114757,0.047
1747684263234802157,0.059000000000000004
1747684263242489557,0.066
1747684263250176957,0.064
1747684263257864357,0.064
1747684263265551757,0.064
1747684263273239157,0.066
1747684263280926557,0.069
1747684263288613957,0.064
1747684263296301357,0.044
1747684263303988757,0.017
1747684263311676157,-0.007
1747684263319363557,-0.032
1747684263327050957,-0.059000000000000004
1747684263334738357,-0.084
1747684263342425757,-0.101
1747684263350113157,-0.108
1747684263357800557,-0.113
1747684263365487957,-0.113
1747684263373175357,-0.116
1747684263380862757,-0.113
1747684263388550157,-0.108
1747684263396237557,-0.10300000000000001
1747684263403924957,-0.096
1747684263411612398,-0.094
1747684263419299519,-0.098
1747684263426986640,-0.098
1747684263434673761,-0.094
1747684263442360882,-0.091
1747684263450048003,-0.101
1747684263457735124,-0.106
1747684263465422245,-0.10300000000000001
1747684263473109366,-0.106
1747684263480796487,-0.111
1747684263488483608,-0.106
1747684263496170729,-0.094
1747684263503857850,-0.096
1747684263511544971,-0.113
1747684263519232092,-0.11800000000000001
1747684263526919213,-0.106
1747684263534606334,-0.108
1747684263542293455,-0.108
1747684263549980576,-0.089
1747684263557667697,-0.074
1747684263565354818,-0.079
1747684263573041939,-0.061
1747684263580729060,-0.047
1747684263588416181,-0.074
1747684263596103302,-0.094
1747684263603790423,-0.076
1747684263611477544,-0.07100000000000001
1747684263619164665,-0.081
1747684263626851786,-0.08600000000000001
1747684263634538907,-0.076
1747684263642226028,-0.07100000000000001
1747684263649913149,-0.081
1747684263657600270,-0.047
1747684263665287391,0.19
1747684263672974512,0.611
1747684263680661633,0.675
1747684263688348754,0.081
1747684263696035875,-0.484
1747684263703722996,-0.47000000000000003
1747684263711410117,-0.279
1747684263719097238,-0.257
1747684263726784359,-0.192
1747684263734471480,-0.069
1747684263742158601,-0.049
1747684263749845722,-0.061
1747684263757532843,-0.032
1747684263765219964,-0.019
1747684263772907085,-0.022
1747684263780594206,-0.017
1747684263788281327,-0.009000000000000001
1747684263795968448,-0.007
1747684263803655569,0.007
1747684263811342690,0.019
1747684263819029811,0.012
1747684263826716932,0.017
1747684263834404053,0.037
1747684263842091174,0.042
1747684263849778295,0.039
1747684263857465416,0.047
1747684263865152537,0.064
1747684263872839658,0.074
1747684263880526779,0.076
1747684263888213900,0.08600000000000001
1747684263895901021,0.096
1747684263903588142,0.106
1747684263911275263,0.116
1747684263918962384,0.111
1747684263926649505,0.10300000000000001
1747684263934336626,0.10300000000000001
1747684263942023747,0.10300000000000001
1747684263949710868,0.091
1747684263957397989,0.064
1747684263965085110,0.037
1747684263972772295,0.007,89,687
1747684263980459765,-0.034,,685
1747684263988147235,-0.066
1747684263995834705,-0.079
1747684264003522175,-0.101
1747684264011209645,-0.121
1747684264018897115,-0.121
1747684264026584585,-0.113
1747684264034272055,-0.111
1747684264041959525,-0.116
1747684264049646995,-0.111
1747684264057334465,-0.098
1747684264065021935,-0.091
1747684264072709405,-0.089
1747684264080396875,-0.089
1747684264088084345,-0.08600000000000001
1747684264095771815,-0.089
1747684264103459285,-0.091
1747684264111146755,-0.091
1747684264118834225,-0.096
1747684264126521695,-0.096
1747684264134209165,-0.094
1747684264141896635,-0.098
1747684264149584105,-0.098
1747684264157271575,-0.091
1747684264164959045,-0.094
1747684264172646515,-0.098
1747684264180333985,-0.106
1747684264188021455,-0.113
1747684264195708925,-0.111
1747684264203396395,-0.096
1747684264211083865,-0.084
1747684264218771335,-0.084
1747684264226458805,-0.07100000000000001
1747684264234146275,-0.047
1747684264241833745,-0.051000000000000004
1747684264249521215,-0.079
1747684264257208685,-0.081
1747684264264896155,-0.074
1747684264272583625,-0.076
1747684264280271095,-0.076
1747684264287958565,-0.076
1747684264295646035,-0.074
1747684264303333505,-0.069
1747684264311020975,-0.081
1747684264318708445,-0.034
1747684264326395915,0.247
1747684264334083385,0.655
1747684264341770855,0.663
1747684264349458325,0.096
1747684264357145795,-0.42
1747684264364833265,-0.418
1747684264372520735,-0.23500000000000001
1747684264380208205,-0.195
1747684264387895675,-0.153
1747684264395583145,-0.069
1747684264403270615,-0.061
1747684264410958085,-0.07100000000000001
1747684264418645555,-0.049
1747684264426333025,-0.039
1747684264434020495,-0.042
1747684264441707965,-0.029
1747684264449395435,-0.019
1747684264457082905,-0.017
1747684264464770375,-0.017
1747684264472457845,-0.014
1747684264480145315,-0.004
1747684264487832785,0.004
1747684264495520255,0.004
1747684264503207725,0.009000000000000001
1747684264510895195,0.024
1747684264518582665,0.032
1747684264526270135,0.029
1747684264533957627,0.042
1747684264541644818,0.064
1747684264549332009,0.07100000000000001
1747684264557019200,0.069
1747684264564706391,0.074
1747684264572393582,0.081
1747684264580080773,0.079
1747684264587767964,0.076
1747684264595455155,0.074
1747684264603142346,0.066
1747684264610829537,0.064
1747684264618516728,0.054
1747684264626203919,0.027
1747684264633891110,-0.004
1747684264641578301,-0.039
1747684264649265492,-0.066
1747684264656952683,-0.084
1747684264664639874,-0.094
1747684264672327065,-0.098
1747684264680014256,-0.10300000000000001
1747684264687701447,-0.108
1747684264695388638,-0.108
1747684264703075829,-0.101
1747684264710763020,-0.094
1747684264718450211,-0.094
1747684264726137402,-0.089
1747684264733824593,-0.079
1747684264741511784,-0.079
1747684264749198975,-0.08600000000000001
1747684264756886166,-0.08600000000000001
1747684264764573357,-0.084
1747684264772260548,-0.089
1747684264779947739,-0.094
1747684264787634930,-0.098
1747684264795322121,-0.094
1747684264803009312,-0.091
1747684264810696503,-0.094
1747684264818383694,-0.094
1747684264826070885,-0.096
1747684264833758076,-0.10300000000000001
1747684264841445267,-0.108
1747684264849132458,-0.10300000000000001
1747684264856819649,-0.094
1747684264864506840,-0.081
1747684264872194031,-0.074
1747684264879881222,-0.054
1747684264887568413,-0.047
1747684264895255604,-0.066
1747684264902942795,-0.081
1747684264910629986,-0.076
1747684264918317177,-0.079
1747684264926004368,-0.076
1747684264933691559,-0.066
1747684264941378750,-0.066
1747684264949065941,-0.07100000000000001
1747684264956753132,-0.079
1747684264964440323,-0.061
1747684264972127514,0.11800000000000001
1747684264979814705,0.534
1747684264987501896,0.744
1747684264995189087,0.338
1747684265002876278,-0.279
1747684265010563469,-0.45
1747684265018250660,-0.269
1747684265025937851,-0.188
1747684265033625042,-0.17300000000000001
1747684265041312233,-0.091
1747684265048999424,-0.056
1747684265056686615,-0.074
1747684265064373806,-0.054
1747684265072060997,-0.037
1747684265079748188,-0.047
1747684265087435379,-0.039
1747684265095122607,-0.022,88,687
1747684265102810146,-0.022
1747684265110497685,-0.014
1747684265118185224,-0.002
1747684265125872763,-0.009000000000000001
1747684265133560302,-0.009000000000000001
1747684265141247841,0.007
1747684265148935380,0.017
1747684265156622919,0.024
1747684265164310458,0.022
1747684265171997997,0.017
1747684265179685536,0.032
1747684265187373075,0.049
1747684265195060614,0.051000000000000004
1747684265202748153,0.051000000000000004
1747684265210435692,0.061
1747684265218123231,0.069
1747684265225810770,0.066
1747684265233498309,0.064
1747684265241185848,0.056
1747684265248873387,0.049
1747684265256560926,0.042
1747684265264248465,0.032
1747684265271936004,0.009000000000000001
1747684265279623543,-0.022
1747684265287311082,-0.056
1747684265294998621,-0.081
1747684265302686160,-0.101
1747684265310373699,-0.113
1747684265318061238,-0.121
1747684265325748777,-0.11800000000000001
1747684265333436316,-0.113
1747684265341123855,-0.116
1747684265348811394,-0.116
1747684265356498933,-0.111
1747684265364186472,-0.106
1747684265371874011,-0.098
1747684265379561550,-0.094
1747684265387249089,-0.094
1747684265394936628,-0.094
1747684265402624167,-0.089
1747684265410311706,-0.08600000000000001
1747684265417999245,-0.089
1747684265425686784,-0.08600000000000001
1747684265433374323,-0.08600000000000001
1747684265441061862,-0.091
1747684265448749401,-0.094
1747684265456436940,-0.094
1747684265464124479,-0.096
1747684265471812018,-0.10300000000000001
1747684265479499557,-0.108
1747684265487187096,-0.10300000000000001
1747684265494874635,-0.08600000000000001
1747684265502562174,-0.074
1747684265510249713,-0.069
1747684265517937252,-0.051000000000000004
1747684265525624791,-0.047
1747684265533312330,-0.066
1747684265540999869,-0.081
1747684265548687408,-0.079
1747684265556374947,-0.076
1747684265564062486,-0.079
1747684265571750025,-0.076
1747684265579437564,-0.07100000000000001
1747684265587125103,-0.07100000000000001
1747684265594812642,-0.084
1747684265602500181,-0.064
1747684265610187720,0.14100000000000001
1747684265617875259,0.551
1747684265625562798,0.719
1747684265633250337,0.279
1747684265640937876,-0.316
1747684265648625415,-0.447
1747684265656313026,-0.267,88,659
1747684265664000287,-0.202,,661
1747684265671687548,-0.18
1747684265679374809,-0.089
1747684265687062070,-0.051000000000000004
1747684265694749331,-0.059000000000000004
1747684265702436592,-0.042
1747684265710123853,-0.032
1747684265717811114,-0.037
1747684265725498375,-0.024
1747684265733185636,-0.014
1747684265740872897,-0.024
1747684265748560158,-0.017
1747684265756247419,0.0
1747684265763934680,0.0
1747684265771621941,-0.004
1747684265779309202,0.007
1747684265786996463,0.019
1747684265794683724,0.019
1747684265802370985,0.027
1747684265810058246,0.047
1747684265817745507,0.061
1747684265825432768,0.061
1747684265833120029,0.059000000000000004
1747684265840807290,0.07100000000000001
1747684265848494551,0.084
1747684265856181812,0.079
1747684265863869073,0.079
1747684265871556334,0.079
1747684265879243595,0.074
1747684265886930856,0.07100000000000001
1747684265894618117,0.07100000000000001
1747684265902305378,0.056
1747684265909992639,0.029
1747684265917679900,0.0
1747684265925367161,-0.039
1747684265933054422,-0.069
1747684265940741683,-0.081
1747684265948428944,-0.091
1747684265956116205,-0.101
1747684265963803466,-0.106
1747684265971490727,-0.106
1747684265979177988,-0.106
1747684265986865249,-0.098
1747684265994552510,-0.091
1747684266002239771,-0.089
1747684266009927032,-0.091
1747684266017614293,-0.08600000000000001
1747684266025301554,-0.076
1747684266032988815,-0.079
1747684266040676076,-0.08600000000000001
1747684266048363337,-0.091
1747684266056050598,-0.091
1747684266063737859,-0.089
1747684266071425120,-0.084
1747684266079112381,-0.091
1747684266086799642,-0.096
1747684266094486903,-0.094
1747684266102174164,-0.098
1747684266109861425,-0.106
1747684266117548686,-0.096
1747684266125235947,-0.084
1747684266132923208,-0.079
1747684266140610469,-0.069
1747684266148297730,-0.051000000000000004
1747684266155984991,-0.054
1747684266163672252,-0.076
1747684266171359513,-0.091
1747684266179046774,-0.084
1747684266186734035,-0.069
1747684266194421296,-0.064
1747684266202108557,-0.081
1747684266209795818,-0.094
1747684266217483097,-0.084
1747684266225170497,-0.089
1747684266232857897,-0.024
1747684266240545297,0.28600000000000003
1747684266248232697,0.68
1747684266255920097,0.596
1747684266263607497,0.002
1747684266271294897,-0.40800000000000003
1747684266278982297,-0.361
1747684266286669697,-0.227
1747684266294357097,-0.188
1747684266302044497,-0.121
1747684266309731897,-0.064
1747684266317419297,-0.074
1747684266325106697,-0.074
1747684266332794097,-0.042
1747684266340481497,-0.029
1747684266348168897,-0.034
1747684266355856297,-0.029
1747684266363543697,-0.029
1747684266371231097,-0.027
1747684266378918497,-0.017
1747684266386605897,-0.009000000000000001
1747684266394293297,-0.004
1747684266401980697,0.007
1747684266409668097,0.017
1747684266417355497,0.014
1747684266425042897,0.014
1747684266432730297,0.032
1747684266440417697,0.044
1747684266448105097,0.051000000000000004
1747684266455792497,0.061
1747684266463479897,0.061
1747684266471167297,0.059000000000000004
1747684266478854697,0.07100000000000001
1747684266486542097,0.079
1747684266494229497,0.069
1747684266501916897,0.061
1747684266509604297,0.064
1747684266517291697,0.069
1747684266524979097,0.061
1747684266532666497,0.039
1747684266540353897,0.009000000000000001
1747684266548041297,-0.029
1747684266555728697,-0.061
1747684266563416097,-0.076
1747684266571103497,-0.08600000000000001
1747684266578790897,-0.096
1747684266586478297,-0.098
1747684266594165697,-0.098
1747684266601853097,-0.101
1747684266609540497,-0.101
1747684266617227897,-0.096
1747684266624915297,-0.089
1747684266632602697,-0.079
1747684266640290097,-0.079
1747684266647977497,-0.08600000000000001
1747684266655664897,-0.08600000000000001
1747684266663352297,-0.081
1747684266671039697,-0.08600000000000001
1747684266678727097,-0.089
1747684266686414497,-0.084
1747684266694101897,-0.084
1747684266701789297,-0.08600000000000001
1747684266709476697,-0.08600000000000001
1747684266717164097,-0.094
1747684266724851497,-0.108
1747684266732538897,-0.108
1747684266740226297,-0.101
1747684266747913697,-0.089
1747684266755601097,-0.07100000000000001
1747684266763288497,-0.064
1747684266770975897,-0.051000000000000004
1747684266778663338,-0.042,89,648
1747684266786350459,-0.066,,638
1747684266794037580,-0.084
1747684266801724701,-0.074
1747684266809411822,-0.074
1747684266817098943,-0.079
1747684266824786064,-0.066
1747684266832473185,-0.061
1747684266840160306,-0.074
1747684266847847427,-0.079
1747684266855534548,-0.069
1747684266863221669,0.07100000000000001
1747684266870908790,0.457
1747684266878595911,0.712
1747684266886283032,0.368
1747684266893970153,-0.23
1747684266901657274,-0.437
1747684266909344395,-0.296
1747684266917031516,-0.212
1747684266924718637,-0.18
1747684266932405758,-0.08600000000000001
1747684266940092879,-0.049
1747684266947780000,-0.069
1747684266955467121,-0.054
1747684266963154242,-0.039
1747684266970841363,-0.044
1747684266978528484,-0.032
1747684266986215605,-0.019
1747684266993902726,-0.027
1747684267001589847,-0.022
1747684267009276968,0.0
1747684267016964089,0.009000000000000001
1747684267024651210,0.002
1747684267032338331,-0.002
1747684267040025452,0.012
1747684267047712573,0.024
1747684267055399694,0.027
1747684267063086815,0.034
1747684267070773936,0.047
1747684267078461057,0.056
1747684267086148178,0.066
1747684267093835299,0.066
1747684267101522420,0.069
1747684267109209541,0.079
1747684267116896662,0.079
1747684267124583783,0.069
1747684267132270904,0.074
1747684267139958025,0.079
1747684267147645146,0.064
1747684267155332267,0.051000000000000004
1747684267163019388,0.034
1747684267170706509,-0.002
1747684267178393630,-0.039
1747684267186080751,-0.061
1747684267193767872,-0.08600000000000001
1747684267201454993,-0.106
1747684267209142114,-0.11800000000000001
1747684267216829235,-0.126
1747684267224516356,-0.121
1747684267232203477,-0.108
1747684267239890598,-0.10300000000000001
1747684267247577719,-0.101
1747684267255264840,-0.106
1747684267262951961,-0.108
1747684267270639082,-0.098
1747684267278326203,-0.096
1747684267286013324,-0.098
1747684267293700445,-0.091
1747684267301387566,-0.096
1747684267309074687,-0.108
1747684267316761808,-0.10300000000000001
1747684267324448929,-0.094
1747684267332136050,-0.10300000000000001
1747684267339823235,-0.113
1747684267347510774,-0.106
1747684267355198313,-0.106
1747684267362885852,-0.111
1747684267370573391,-0.108
1747684267378260930,-0.108
1747684267385948469,-0.111
1747684267393636008,-0.111
1747684267401323547,-0.10300000000000001
1747684267409011086,-0.084
1747684267416698625,-0.061
1747684267424386164,-0.059000000000000004
1747684267432073703,-0.074
1747684267439761242,-0.089
1747684267447448781,-0.091
1747684267455136320,-0.089
1747684267462823859,-0.084
1747684267470511398,-0.084
1747684267478198937,-0.08600000000000001
1747684267485886476,-0.084
1747684267493574015,-0.08600000000000001
1747684267501261554,-0.07100000000000001
1747684267508949093,0.079
1747684267516636632,0.47500000000000003
1747684267524324171,0.722
1747684267532011710,0.326
1747684267539699249,-0.321
1747684267547386788,-0.499
1747684267555074327,-0.324
1747684267562761866,-0.254
1747684267570449405,-0.222
1747684267578136944,-0.101
1747684267585824483,-0.044
1747684267593512022,-0.064
1747684267601199561,-0.049
1747684267608887100,-0.027
1747684267616574639,-0.032
1747684267624262178,-0.029
1747684267631949717,-0.017
1747684267639637256,-0.017
1747684267647324795,-0.012
1747684267655012334,0.007
1747684267662699873,0.014
1747684267670387412,0.012
1747684267678074951,0.017
1747684267685762490,0.027
1747684267693450029,0.034
1747684267701137568,0.039
1747684267708825107,0.047
1747684267716512646,0.056
1747684267724200185,0.069
1747684267731887724,0.079
1747684267739575263,0.08600000000000001
1747684267747262802,0.096
1747684267754950341,0.10300000000000001
1747684267762637880,0.094
1747684267770325419,0.089
1747684267778012958,0.094
1747684267785700497,0.094
1747684267793388036,0.084
1747684267801075575,0.069
1747684267808763114,0.044
1747684267816450653,0.009000000000000001
1747684267824138192,-0.029
1747684267831825731,-0.064
1747684267839513270,-0.081
1747684267847200809,-0.098
1747684267854888348,-0.116
1747684267862575887,-0.11800000000000001
1747684267870263426,-0.111
1747684267877950965,-0.108
1747684267885638504,-0.10300000000000001
1747684267893326043,-0.098
1747684267901013650,-0.098,90,627
1747684267908700771,-0.08600000000000001
1747684267916387892,-0.079
1747684267924075013,-0.079
1747684267931762134,-0.079
1747684267939449255,-0.076
1747684267947136376,-0.076
1747684267954823497,-0.079
1747684267962510618,-0.084
1747684267970197739,-0.08600000000000001
1747684267977884860,-0.094
1747684267985571981,-0.096
1747684267993259102,-0.091
1747684268000946223,-0.096
1747684268008633344,-0.096
1747684268016320465,-0.091
1747684268024007586,-0.101
1747684268031694707,-0.10300000000000001
1747684268039381828,-0.089
1747684268047068949,-0.079
1747684268054756070,-0.081
1747684268062443191,-0.066
1747684268070130312,-0.047
1747684268077817433,-0.059000000000000004
1747684268085504554,-0.079
1747684268093191675,-0.076
1747684268100878796,-0.069
1747684268108565917,-0.069
1747684268116253038,-0.069
1747684268123940159,-0.069
1747684268131627280,-0.076
1747684268139314401,-0.084
1747684268147001522,-0.07100000000000001
1747684268154688643,0.079
1747684268162375764,0.47500000000000003
1747684268170062885,0.757
1747684268177750006,0.41300000000000003
1747684268185437127,-0.257
1747684268193124248,-0.499
1747684268200811369,-0.311
1747684268208498490,-0.21
1747684268216185611,-0.195
1747684268223872732,-0.094
1747684268231559853,-0.042
1747684268239246974,-0.064
1747684268246934095,-0.047
1747684268254621216,-0.022
1747684268262308337,-0.029
1747684268269995458,-0.029
1747684268277682579,-0.017
1747684268285369700,-0.012
1747684268293056821,-0.007
1747684268300743942,-0.002
1747684268308431063,0.004
1747684268316118184,0.012
1747684268323805305,0.014
1747684268331492426,0.019
1747684268339179547,0.029
1747684268346866668,0.037
1747684268354553789,0.044
1747684268362240910,0.056
1747684268369928031,0.064
1747684268377615152,0.076
1747684268385302273,0.089
1747684268392989394,0.091
1747684268400676515,0.08600000000000001
1747684268408363636,0.094
1747684268416050757,0.101
1747684268423737878,0.096
1747684268431424999,0.089
1747684268439112120,0.079
1747684268446799241,0.064
1747684268454486362,0.047
1747684268462173547,0.012
1747684268469861086,-0.022
1747684268477548625,-0.047
1747684268485236164,-0.076
1747684268492923703,-0.096
1747684268500611242,-0.101
1747684268508298781,-0.106
1747684268515986320,-0.108
1747684268523673859,-0.10300000000000001
1747684268531361398,-0.108
1747684268539048937,-0.111
1747684268546736476,-0.096
1747684268554424015,-0.08600000000000001
1747684268562111554,-0.08600000000000001
1747684268569799093,-0.084
1747684268577486632,-0.081
1747684268585174171,-0.084
1747684268592861710,-0.084
1747684268600549249,-0.084
1747684268608236788,-0.091
1747684268615924327,-0.096
1747684268623611866,-0.091
1747684268631299405,-0.08600000000000001
1747684268638986944,-0.089
1747684268646674483,-0.094
1747684268654362022,-0.096
1747684268662049561,-0.094
1747684268669737100,-0.091
1747684268677424639,-0.094
1747684268685112178,-0.098
1747684268692799717,-0.094
1747684268700487256,-0.089
1747684268708174795,-0.094
1747684268715862334,-0.098
1747684268723549873,-0.101
1747684268731237412,-0.096
1747684268738924951,-0.074
1747684268746612490,-0.059000000000000004
1747684268754300029,-0.061
1747684268761987568,-0.054
1747684268769675107,-0.047
1747684268777362646,-0.059000000000000004
1747684268785050185,-0.069
1747684268792737724,-0.074
1747684268800425263,-0.076
1747684268808112802,-0.07100000000000001
1747684268815800341,-0.064
1747684268823487880,-0.064
1747684268831175419,-0.07100000000000001
1747684268838862958,-0.091
1747684268846550497,-0.061
1747684268854238036,0.192
1747684268861925575,0.625
1747684268869613114,0.707
1747684268877300653,0.185
1747684268884988192,-0.361
1747684268892675731,-0.41300000000000003
1747684268900363270,-0.244
1747684268908050809,-0.192
1747684268915738348,-0.14300000000000002
1747684268923425887,-0.064
1747684268931113426,-0.066
1747684268938800965,-0.076
1747684268946488504,-0.047
1747684268954176043,-0.039
1747684268961863582,-0.044
1747684268969551121,-0.034
1747684268977238660,-0.027
1747684268984926199,-0.024
1747684268992613738,-0.019
1747684269000301277,-0.007
1747684269007988816,0.002
1747684269015676355,0.002
1747684269023363966,0.002,91,627
1747684269031051087,0.007,,646
1747684269038738208,0.017
1747684269046425329,0.032
1747684269054112450,0.037
1747684269061799571,0.037
1747684269069486692,0.047
1747684269077173813,0.061
1747684269084860934,0.066
1747684269092548055,0.069
1747684269100235176,0.074
1747684269107922297,0.076
1747684269115609418,0.076
1747684269123296539,0.07100000000000001
1747684269130983660,0.066
1747684269138670781,0.061
1747684269146357902,0.049
1747684269154045023,0.034
1747684269161732144,0.007
1747684269169419265,-0.027
1747684269177106386,-0.054
1747684269184793507,-0.076
1747684269192480628,-0.094
1747684269200167749,-0.10300000000000001
1747684269207854870,-0.106
1747684269215541991,-0.106
1747684269223229112,-0.10300000000000001
1747684269230916233,-0.098
1747684269238603354,-0.094
1747684269246290475,-0.091
1747684269253977596,-0.091
1747684269261664717,-0.091
1747684269269351838,-0.089
1747684269277038959,-0.084
1747684269284726080,-0.081
1747684269292413201,-0.084
1747684269300100322,-0.08600000000000001
1747684269307787443,-0.079
1747684269315474564,-0.076
1747684269323161685,-0.08600000000000001
1747684269330848806,-0.094
1747684269338535927,-0.084
1747684269346223048,-0.079
1747684269353910169,-0.089
1747684269361597290,-0.094
1747684269369284411,-0.084
1747684269376971532,-0.079
1747684269384658653,-0.089
1747684269392345774,-0.089
1747684269400032895,-0.079
1747684269407720016,-0.08600000000000001
1747684269415407137,-0.089
1747684269423094258,-0.07100000000000001
1747684269430781379,-0.07100000000000001
1747684269438468500,-0.076
1747684269446155621,-0.074
1747684269453842742,-0.07100000000000001
1747684269461529863,-0.07100000000000001
1747684269469216984,-0.076
1747684269476904105,-0.081
1747684269484591226,-0.076
1747684269492278347,-0.07100000000000001
1747684269499965468,-0.076
1747684269507652589,-0.08600000000000001
1747684269515339710,-0.079
1747684269523026831,-0.051000000000000004
1747684269530713952,-0.034
1747684269538401073,-0.044
1747684269546088194,-0.047
1747684269553775315,-0.032
1747684269561462436,-0.039
1747684269569149557,-0.064
1747684269576836678,-0.07100000000000001
1747684269584523863,-0.066,92,646
1747684269592211193,-0.066
1747684269599898523,-0.061
1747684269607585853,-0.056
1747684269615273183,-0.064
1747684269622960513,-0.074
1747684269630647843,-0.069
1747684269638335173,0.079
1747684269646022503,0.467
1747684269653709833,0.714
1747684269661397163,0.38
1747684269669084493,-0.217
1747684269676771823,-0.437
1747684269684459153,-0.291
1747684269692146483,-0.195
1747684269699833813,-0.17
1747684269707521143,-0.08600000000000001
1747684269715208473,-0.049
1747684269722895803,-0.07100000000000001
1747684269730583133,-0.064
1747684269738270463,-0.039
1747684269745957793,-0.037
1747684269753645123,-0.037
1747684269761332453,-0.029
1747684269769019783,-0.032
1747684269776707113,-0.024
1747684269784394443,-0.012
1747684269792081773,-0.012
1747684269799769103,-0.012
1747684269807456433,-0.007
1747684269815143763,-0.002
1747684269822831093,0.004
1747684269830518423,0.017
1747684269838205753,0.024
1747684269845893083,0.027
1747684269853580413,0.034
1747684269861267743,0.044
1747684269868955073,0.047
1747684269876642403,0.049
1747684269884329733,0.056
1747684269892017063,0.056
1747684269899704393,0.054
1747684269907391723,0.051000000000000004
1747684269915079053,0.049
1747684269922766383,0.051000000000000004
1747684269930453713,0.051000000000000004
1747684269938141043,0.032
1747684269945828373,0.009000000000000001
1747684269953515703,-0.004
1747684269961203033,-0.029
1747684269968890363,-0.059000000000000004
1747684269976577693,-0.081
1747684269984265023,-0.096
1747684269991952353,-0.10300000000000001
1747684269999639683,-0.108
1747684270007327013,-0.108
1747684270015014343,-0.10300000000000001
1747684270022701673,-0.101
1747684270030389003,-0.098
1747684270038076333,-0.098
1747684270045763663,-0.101
1747684270053450993,-0.094
1747684270061138323,-0.084
1747684270068825653,-0.08600000000000001
1747684270076512983,-0.094
1747684270084200313,-0.094
1747684270091887643,-0.089
1747684270099574973,-0.091
1747684270107262303,-0.094
1747684270114949633,-0.096
1747684270122636963,-0.101
1747684270130324293,-0.101
1747684270138011623,-0.101
1747684270145699021,-0.101
1747684270153386351,-0.101
1747684270161073681,-0.096
1747684270168761011,-0.089
1747684270176448341,-0.094
1747684270184135671,-0.10300000000000001
1747684270191823001,-0.10300000000000001
1747684270199510331,-0.098
1747684270207197661,-0.098
1747684270214884991,-0.098
1747684270222572321,-0.098
1747684270230259651,-0.089
1747684270237946981,-0.081
1747684270245634311,-0.091
1747684270253321641,-0.098
1747684270261008971,-0.094
1747684270268696301,-0.08600000000000001
1747684270276383631,-0.089
1747684270284070961,-0.091
1747684270291758291,-0.089
1747684270299445621,-0.081
1747684270307132951,-0.081
1747684270314820281,-0.08600000000000001
1747684270322507611,-0.08600000000000001
1747684270330194941,-0.08600000000000001
1747684270337882271,-0.096
1747684270345569601,-0.096
1747684270353256931,-0.091
1747684270360944261,-0.081
1747684270368631591,-0.064
1747684270376318921,-0.056
1747684270384006251,-0.054
1747684270391693581,-0.047
1747684270399380911,-0.051000000000000004
1747684270407068241,-0.074
1747684270414755571,-0.084
1747684270422442901,-0.081
1747684270430130231,-0.081
1747684270437817561,-0.076
1747684270445504891,-0.069
1747684270453192221,-0.074
1747684270460879551,-0.089
1747684270468566881,-0.091
1747684270476254211,-0.009000000000000001
1747684270483941541,0.294
1747684270491628871,0.64
1747684270499316201,0.514
1747684270507003531,-0.064
1747684270514690861,-0.45
1747684270522378191,-0.378
1747684270530065521,-0.232
1747684270537752851,-0.20500000000000002
1747684270545440181,-0.14100000000000001
1747684270553127511,-0.076
1747684270560814841,-0.089
1747684270568502171,-0.091
1747684270576189501,-0.069
1747684270583876831,-0.061
1747684270591564161,-0.056
1747684270599251491,-0.047
1747684270606938821,-0.047
1747684270614626151,-0.049
1747684270622313481,-0.042
1747684270630000811,-0.037
1747684270637688141,-0.029
1747684270645375471,-0.022
1747684270653062801,-0.017
1747684270660750131,-0.012
1747684270668437461,0.0
1747684270676124791,0.009000000000000001
1747684270683812121,0.019
1747684270691499451,0.019
1747684270699186781,0.019
1747684270706874175,0.029,92,696
1747684270714561296,0.044
1747684270722248417,0.051000000000000004
1747684270729935538,0.047
1747684270737622659,0.042
1747684270745309780,0.044
1747684270752996901,0.042
1747684270760684022,0.037
1747684270768371143,0.034
1747684270776058264,0.029
1747684270783745385,0.007
1747684270791432506,-0.022
1747684270799119627,-0.042
1747684270806806748,-0.066
1747684270814493869,-0.101
1747684270822180990,-0.128
1747684270829868111,-0.128
1747684270837555232,-0.123
1747684270845242353,-0.123
1747684270852929474,-0.133
1747684270860616595,-0.138
1747684270868303716,-0.128
1747684270875990837,-0.11800000000000001
1747684270883677958,-0.11800000000000001
1747684270891365079,-0.123
1747684270899052200,-0.121
1747684270906739321,-0.108
1747684270914426442,-0.108
1747684270922113563,-0.11800000000000001
1747684270929800684,-0.116
1747684270937487805,-0.101
1747684270945174926,-0.098
1747684270952862047,-0.106
1747684270960549168,-0.108
1747684270968236289,-0.116
1747684270975923410,-0.123
1747684270983610531,-0.121
1747684270991297652,-0.106
1747684270998984773,-0.106
1747684271006671894,-0.121
1747684271014359015,-0.121
1747684271022046136,-0.116
1747684271029733257,-0.11800000000000001
1747684271037420378,-0.113
1747684271045107499,-0.108
1747684271052794620,-0.10300000000000001
1747684271060481741,-0.101
1747684271068168862,-0.098
1747684271075855983,-0.091
1747684271083543104,-0.096
1747684271091230225,-0.101
1747684271098917346,-0.094
1747684271106604467,-0.089
1747684271114291588,-0.096
1747684271121978709,-0.101
1747684271129665830,-0.096
1747684271137352951,-0.074
1747684271145040072,-0.059000000000000004
1747684271152727193,-0.069
1747684271160414314,-0.061
1747684271168101435,-0.047
1747684271175788556,-0.059000000000000004
1747684271183475677,-0.074
1747684271191162798,-0.079
1747684271198849919,-0.084
1747684271206537040,-0.074
1747684271214224161,-0.07100000000000001
1747684271221911282,-0.081
1747684271229598403,-0.074
1747684271237285524,-0.076
1747684271244972645,-0.059000000000000004
1747684271252659766,0.165
1747684271260346887,0.588
1747684271268034072,0.663
1747684271275721193,0.094
1747684271283408314,-0.467
1747684271291095435,-0.47200000000000003
1747684271298782556,-0.289
1747684271306469677,-0.264
1747684271314156798,-0.20700000000000002
1747684271321843919,-0.07100000000000001
1747684271329531040,-0.042
1747684271337218161,-0.064
1747684271344905282,-0.037
1747684271352592403,-0.024
1747684271360279524,-0.034
1747684271367966645,-0.024
1747684271375653766,-0.007
1747684271383340887,-0.007
1747684271391028008,-0.007
1747684271398715129,0.0
1747684271406402250,0.009000000000000001
1747684271414089371,0.007
1747684271421776492,0.007
1747684271429463613,0.024
1747684271437150734,0.039
1747684271444837855,0.037
1747684271452524976,0.042
1747684271460212097,0.061
1747684271467899218,0.076
1747684271475586339,0.084
1747684271483273460,0.091
1747684271490960581,0.098
1747684271498647702,0.106
1747684271506334823,0.108
1747684271514021944,0.106
1747684271521709065,0.101
1747684271529396186,0.094
1747684271537083307,0.08600000000000001
1747684271544770428,0.074
1747684271552457549,0.049
1747684271560144670,0.017
1747684271567831791,-0.024
1747684271575518912,-0.064
1747684271583206033,-0.089
1747684271590893154,-0.108
1747684271598580275,-0.131
1747684271606267396,-0.14100000000000001
1747684271613954517,-0.133
1747684271621641638,-0.131
1747684271629328759,-0.123
1747684271637015880,-0.113
1747684271644703001,-0.106
1747684271652390122,-0.108
1747684271660077243,-0.10300000000000001
1747684271667764364,-0.094
1747684271675451485,-0.08600000000000001
1747684271683138606,-0.084
1747684271690825727,-0.081
1747684271698512848,-0.079
1747684271706199969,-0.089
1747684271713887090,-0.091
1747684271721574211,-0.084
1747684271729261332,-0.084
1747684271736948453,-0.096
1747684271744635574,-0.096
1747684271752322695,-0.091
1747684271760009816,-0.089
1747684271767696937,-0.094
1747684271775384058,-0.089
1747684271783071179,-0.08600000000000001
1747684271790758300,-0.091
1747684271798445421,-0.091
1747684271806132542,-0.081
1747684271813819663,-0.079
1747684271821506784,-0.081
1747684271829193969,-0.076,92,787
1747684271836881508,-0.074
1747684271844569047,-0.084
1747684271852256586,-0.096
1747684271859944125,-0.091
1747684271867631664,-0.08600000000000001
1747684271875319203,-0.089
1747684271883006742,-0.081
1747684271890694281,-0.051000000000000004
1747684271898381820,-0.039
1747684271906069359,-0.051000000000000004
1747684271913756898,-0.047
1747684271921444437,-0.032
1747684271929131976,-0.049
1747684271936819515,-0.07100000000000001
1747684271944507054,-0.061
1747684271952194593,-0.056
1747684271959882132,-0.066
1747684271967569671,-0.061
1747684271975257210,-0.061
1747684271982944749,-0.07100000000000001
1747684271990632288,-0.084
1747684271998319827,-0.047
1747684272006007366,0.19
1747684272013694905,0.62
1747684272021382444,0.734
1747684272029069983,0.225
1747684272036757522,-0.35100000000000003
1747684272044445061,-0.43
1747684272052132600,-0.247
1747684272059820139,-0.185
1747684272067507678,-0.15
1747684272075195217,-0.069
1747684272082882756,-0.054
1747684272090570295,-0.069
1747684272098257834,-0.049
1747684272105945373,-0.037
1747684272113632912,-0.039
1747684272121320451,-0.024
1747684272129007990,-0.007
1747684272136695529,-0.009000000000000001
1747684272144383068,-0.014
1747684272152070607,-0.007
1747684272159758146,-0.002
1747684272167445685,0.002
1747684272175133224,0.014
1747684272182820763,0.022
1747684272190508302,0.022
1747684272198195841,0.032
1747684272205883380,0.049
1747684272213570919,0.059000000000000004
1747684272221258458,0.066
1747684272228945997,0.076
1747684272236633536,0.081
1747684272244321075,0.08600000000000001
1747684272252008614,0.098
1747684272259696153,0.106
1747684272267383692,0.098
1747684272275071231,0.094
1747684272282758770,0.101
1747684272290446309,0.094
1747684272298133848,0.07100000000000001
1747684272305821387,0.056
1747684272313508926,0.029
1747684272321196465,-0.014
1747684272328884004,-0.049
1747684272336571543,-0.069
1747684272344259082,-0.08600000000000001
1747684272351946621,-0.10300000000000001
1747684272359634160,-0.10300000000000001
1747684272367321699,-0.096
1747684272375009238,-0.098
1747684272382696777,-0.10300000000000001
1747684272390384388,-0.106
1747684272398071788,-0.098
1747684272405759188,-0.089
1747684272413446588,-0.081
1747684272421133988,-0.079
1747684272428821388,-0.076
1747684272436508788,-0.076
1747684272444196188,-0.079
1747684272451883588,-0.076
1747684272459570988,-0.079
1747684272467258388,-0.081
1747684272474945788,-0.076
1747684272482633188,-0.069
1747684272490320588,-0.074
1747684272498007988,-0.084
1747684272505695388,-0.084
1747684272513382788,-0.084
1747684272521070188,-0.08600000000000001
1747684272528757588,-0.081
1747684272536444988,-0.074
1747684272544132388,-0.07100000000000001
1747684272551819788,-0.076
1747684272559507188,-0.079
1747684272567194588,-0.076
1747684272574881988,-0.064
1747684272582569388,-0.064
1747684272590256788,-0.076
1747684272597944188,-0.074
1747684272605631588,-0.064
1747684272613318988,-0.064
1747684272621006388,-0.079
1747684272628693788,-0.081
1747684272636381188,-0.069
1747684272644068588,-0.064
1747684272651755988,-0.047
1747684272659443388,-0.027
1747684272667130788,-0.032
1747684272674818188,-0.037
1747684272682505588,-0.027
1747684272690192988,-0.037
1747684272697880388,-0.056
1747684272705567788,-0.059000000000000004
1747684272713255188,-0.051000000000000004
1747684272720942588,-0.059000000000000004
1747684272728629988,-0.061
1747684272736317388,-0.056
1747684272744004788,-0.056
1747684272751692188,-0.069
1747684272759379588,-0.047
1747684272767066988,0.17300000000000001
1747684272774754388,0.593
1747684272782441788,0.724
1747684272790129188,0.254
1747684272797816588,-0.311
1747684272805503988,-0.418
1747684272813191388,-0.244
1747684272820878788,-0.18
1747684272828566188,-0.15
1747684272836253588,-0.07100000000000001
1747684272843940988,-0.051000000000000004
1747684272851628388,-0.069
1747684272859315788,-0.054
1747684272867003188,-0.037
1747684272874690588,-0.032
1747684272882377988,-0.022
1747684272890065388,-0.017
1747684272897752788,-0.017
1747684272905440188,-0.012
1747684272913127588,-0.004
1747684272920814988,0.002
1747684272928502388,0.004
1747684272936189788,0.004
1747684272943877188,0.012
1747684272951564631,0.022,88,841
1747684272959251474,0.032,,771
1747684272966938317,0.044
1747684272974625160,0.051000000000000004
1747684272982312003,0.059000000000000004
1747684272989998846,0.07100000000000001
1747684272997685689,0.084
1747684273005372532,0.089
1747684273013059375,0.089
1747684273020746218,0.094
1747684273028433061,0.098
1747684273036119904,0.089
1747684273043806747,0.081
1747684273051493590,0.081
1747684273059180433,0.069
1747684273066867276,0.044
1747684273074554119,0.022
1747684273082240962,-0.007
1747684273089927805,-0.042
1747684273097614648,-0.074
1747684273105301491,-0.089
1747684273112988334,-0.091
1747684273120675177,-0.101
1747684273128362020,-0.106
1747684273136048863,-0.108
1747684273143735706,-0.106
1747684273151422549,-0.098
1747684273159109392,-0.089
1747684273166796235,-0.094
1747684273174483078,-0.094
1747684273182169921,-0.081
1747684273189856764,-0.076
1747684273197543607,-0.081
1747684273205230450,-0.081
1747684273212917293,-0.074
1747684273220604136,-0.076
1747684273228290979,-0.081
1747684273235977822,-0.08600000000000001
1747684273243664665,-0.089
1747684273251351508,-0.084
1747684273259038351,-0.084
1747684273266725194,-0.084
1747684273274412037,-0.079
1747684273282098880,-0.084
1747684273289785723,-0.094
1747684273297472566,-0.089
1747684273305159409,-0.079
1747684273312846252,-0.081
1747684273320533095,-0.08600000000000001
1747684273328219938,-0.076
1747684273335906781,-0.069
1747684273343593624,-0.079
1747684273351280467,-0.084
1747684273358967310,-0.074
1747684273366654153,-0.074
1747684273374340996,-0.074
1747684273382027839,-0.074
1747684273389714682,-0.079
1747684273397401525,-0.089
1747684273405088368,-0.08600000000000001
1747684273412775211,-0.076
1747684273420462054,-0.059000000000000004
1747684273428148897,-0.047
1747684273435835740,-0.047
1747684273443522583,-0.042
1747684273451209426,-0.034
1747684273458896269,-0.051000000000000004
1747684273466583112,-0.069
1747684273474269955,-0.066
1747684273481956798,-0.061
1747684273489643641,-0.069
1747684273497330484,-0.07100000000000001
1747684273505017327,-0.066
1747684273512704182,-0.066
1747684273520391303,-0.07100000000000001
1747684273528078424,-0.079
1747684273535765545,0.051000000000000004
1747684273543452666,0.44
1747684273551139787,0.722
1747684273558826908,0.40800000000000003
1747684273566514029,-0.222
1747684273574201150,-0.47900000000000004
1747684273581888271,-0.326
1747684273589575392,-0.22
1747684273597262513,-0.20700000000000002
1747684273604949634,-0.11800000000000001
1747684273612636755,-0.051000000000000004
1747684273620323876,-0.07100000000000001
1747684273628010997,-0.066
1747684273635698118,-0.037
1747684273643385239,-0.037
1747684273651072360,-0.039
1747684273658759481,-0.029
1747684273666446602,-0.022
1747684273674133723,-0.019
1747684273681820844,-0.007
1747684273689507965,0.004
1747684273697195086,0.0
1747684273704882207,-0.002
1747684273712569328,0.004
1747684273720256449,0.014
1747684273727943570,0.022
1747684273735630691,0.037
1747684273743317812,0.047
1747684273751004933,0.061
1747684273758692054,0.074
1747684273766379175,0.081
1747684273774066296,0.089
1747684273781753417,0.096
1747684273789440538,0.101
1747684273797127659,0.096
1747684273804814780,0.089
1747684273812501901,0.091
1747684273820189022,0.096
1747684273827876143,0.084
1747684273835563264,0.059000000000000004
1747684273843250385,0.034
1747684273850937506,-0.009000000000000001
1747684273858624627,-0.051000000000000004
1747684273866311748,-0.076
1747684273873998869,-0.10300000000000001
1747684273881685990,-0.126
1747684273889373111,-0.128
1747684273897060232,-0.126
1747684273904747353,-0.126
1747684273912434474,-0.123
1747684273920121595,-0.121
1747684273927808716,-0.121
1747684273935495837,-0.116
1747684273943182958,-0.108
1747684273950870079,-0.096
1747684273958557200,-0.094
1747684273966244321,-0.089
1747684273973931442,-0.079
1747684273981618563,-0.081
1747684273989305684,-0.096
1747684273996992805,-0.106
1747684274004679926,-0.106
1747684274012367047,-0.10300000000000001
1747684274020054168,-0.098
1747684274027741289,-0.098
1747684274035428410,-0.098
1747684274043115531,-0.098
1747684274050802652,-0.098
1747684274058489773,-0.10300000000000001
1747684274066176894,-0.106
1747684274073864079,-0.106,86,754
1747684274081551200,-0.101
1747684274089238321,-0.101
1747684274096925442,-0.094
1747684274104612563,-0.091
1747684274112299684,-0.094
1747684274119986805,-0.101
1747684274127673926,-0.106
1747684274135361047,-0.101
1747684274143048168,-0.08600000000000001
1747684274150735289,-0.07100000000000001
1747684274158422410,-0.059000000000000004
1747684274166109531,-0.056
1747684274173796652,-0.061
1747684274181483773,-0.064
1747684274189170894,-0.061
1747684274196858015,-0.076
1747684274204545136,-0.096
1747684274212232257,-0.098
1747684274219919378,-0.081
1747684274227606499,-0.074
1747684274235293620,-0.076
1747684274242980741,-0.08600000000000001
1747684274250667862,-0.084
1747684274258354983,0.002
1747684274266042104,0.321
1747684274273729225,0.7000000000000001
1747684274281416346,0.531
1747684274289103467,-0.185
1747684274296790588,-0.591
1747684274304477709,-0.423
1747684274312164830,-0.264
1747684274319851951,-0.259
1747684274327539072,-0.148
1747684274335226193,-0.049
1747684274342913314,-0.061
1747684274350600435,-0.056
1747684274358287556,-0.029
1747684274365974677,-0.032
1747684274373661798,-0.022
1747684274381348919,-0.007
1747684274389036040,-0.007
1747684274396723161,-0.012
1747684274404410282,-0.009000000000000001
1747684274412097403,0.002
1747684274419784524,0.019
1747684274427471645,0.022
1747684274435158766,0.022
1747684274442845887,0.034
1747684274450533008,0.039
1747684274458220129,0.049
1747684274465907250,0.07100000000000001
1747684274473594371,0.08600000000000001
1747684274481281492,0.094
1747684274488968613,0.10300000000000001
1747684274496655734,0.108
1747684274504342855,0.11800000000000001
1747684274512029976,0.136
1747684274519717097,0.145
1747684274527404218,0.133
1747684274535091339,0.123
1747684274542778460,0.121
1747684274550465581,0.106
1747684274558152702,0.07100000000000001
1747684274565839823,0.027
1747684274573526944,-0.014
1747684274581214065,-0.054
1747684274588901186,-0.094
1747684274596588307,-0.111
1747684274604275428,-0.116
1747684274611962549,-0.14300000000000002
1747684274619649670,-0.16
1747684274627336791,-0.158
1747684274635023976,-0.155,85,762
1747684274642711097,-0.14100000000000001
1747684274650398218,-0.11800000000000001
1747684274658085339,-0.116
1747684274665772460,-0.116
1747684274673459581,-0.106
1747684274681146702,-0.101
1747684274688833823,-0.091
1747684274696520944,-0.079
1747684274704208065,-0.084
1747684274711895186,-0.098
1747684274719582307,-0.098
1747684274727269428,-0.091
1747684274734956549,-0.094
1747684274742643670,-0.101
1747684274750330791,-0.108
1747684274758017912,-0.108
1747684274765705033,-0.108
1747684274773392154,-0.098
1747684274781079275,-0.089
1747684274788766396,-0.101
1747684274796453517,-0.116
1747684274804140638,-0.116
1747684274811827759,-0.116
1747684274819514880,-0.116
1747684274827202001,-0.10300000000000001
1747684274834889122,-0.084
1747684274842576243,-0.081
1747684274850263364,-0.111
1747684274857950485,-0.128
1747684274865637606,-0.08600000000000001
1747684274873324727,-0.042
1747684274881011848,-0.049
1747684274888698969,-0.079
1747684274896386090,-0.096
1747684274904073211,-0.091
1747684274911760332,-0.074
1747684274919447453,-0.081
1747684274927134574,-0.098
1747684274934821695,-0.08600000000000001
1747684274942508816,-0.076
1747684274950195937,-0.096
1747684274957883058,-0.034
1747684274965570179,0.269
1747684274973257300,0.687
1747684274980944421,0.64
1747684274988631542,-0.066
1747684274996318663,-0.64
1747684275004005784,-0.509
1747684275011692905,-0.247
1747684275019380026,-0.247
1747684275027067147,-0.192
1747684275034754268,-0.059000000000000004
1747684275042441389,-0.039
1747684275050128510,-0.066
1747684275057815631,-0.061
1747684275065502752,-0.042
1747684275073189873,-0.034
1747684275080876994,-0.032
1747684275088564115,-0.012
1747684275096251236,-0.004
1747684275103938357,-0.007
1747684275111625478,0.004
1747684275119312599,0.009000000000000001
1747684275126999720,0.004
1747684275134686841,0.014
1747684275142373962,0.017
1747684275150061083,0.024
1747684275157748204,0.047
1747684275165435325,0.059000000000000004
1747684275173122446,0.074
1747684275180809567,0.089
1747684275188496688,0.101
1747684275196183873,0.11800000000000001
1747684275203871064,0.128
1747684275211558255,0.138
1747684275219245446,0.148
1747684275226932637,0.131
1747684275234619828,0.113
1747684275242307019,0.121
1747684275249994210,0.106
1747684275257681401,0.069
1747684275265368592,0.039
1747684275273055783,-0.007
1747684275280742974,-0.064
1747684275288430165,-0.089
1747684275296117356,-0.113
1747684275303804547,-0.15
1747684275311491738,-0.165
1747684275319178929,-0.158
1747684275326866120,-0.155
1747684275334553311,-0.158
1747684275342240502,-0.14300000000000002
1747684275349927693,-0.128
1747684275357614884,-0.136
1747684275365302075,-0.131
1747684275372989266,-0.108
1747684275380676457,-0.098
1747684275388363648,-0.106
1747684275396050839,-0.096
1747684275403738030,-0.084
1747684275411425221,-0.094
1747684275419112412,-0.101
1747684275426799603,-0.10300000000000001
1747684275434486794,-0.101
1747684275442173985,-0.094
1747684275449861176,-0.096
1747684275457548367,-0.10300000000000001
1747684275465235558,-0.10300000000000001
1747684275472922749,-0.098
1747684275480609940,-0.106
1747684275488297131,-0.116
1747684275495984322,-0.113
1747684275503671513,-0.10300000000000001
1747684275511358704,-0.108
1747684275519045895,-0.121
1747684275526733086,-0.111
1747684275534420277,-0.101
1747684275542107468,-0.10300000000000001
1747684275549794659,-0.091
1747684275557481850,-0.059000000000000004
1747684275565169041,-0.047
1747684275572856232,-0.07100000000000001
1747684275580543423,-0.091
1747684275588230614,-0.084
1747684275595917805,-0.079
1747684275603604996,-0.089
1747684275611292187,-0.089
1747684275618979378,-0.074
1747684275626666569,-0.07100000000000001
1747684275634353760,-0.094
1747684275642040951,-0.089
1747684275649728142,0.079
1747684275657415333,0.494
1747684275665102524,0.779
1747684275672789715,0.395
1747684275680476906,-0.358
1747684275688164097,-0.623
1747684275695851288,-0.368
1747684275703538479,-0.212
1747684275711225670,-0.2
1747684275718912861,-0.108
1747684275726600052,-0.051000000000000004
1747684275734287243,-0.066
1747684275741974434,-0.047
1747684275749661625,-0.024
1747684275757348861,-0.029,83,771
1747684275765036052,-0.027,,725
1747684275772723243,-0.014
1747684275780410434,-0.012
1747684275788097625,-0.012
1747684275795784816,-0.012
1747684275803472007,-0.004
1747684275811159198,0.009000000000000001
1747684275818846389,0.019
1747684275826533580,0.019
1747684275834220771,0.022
1747684275841907962,0.037
1747684275849595153,0.054
1747684275857282344,0.074
1747684275864969535,0.08600000000000001
1747684275872656726,0.08600000000000001
1747684275880343917,0.094
1747684275888031108,0.121
1747684275895718299,0.138
1747684275903405490,0.128
1747684275911092681,0.11800000000000001
1747684275918779872,0.126
1747684275926467063,0.131
1747684275934154254,0.116
1747684275941841445,0.089
1747684275949528636,0.059000000000000004
1747684275957215827,0.029
1747684275964903018,-0.014
1747684275972590209,-0.059000000000000004
1747684275980277400,-0.089
1747684275987964591,-0.113
1747684275995651782,-0.136
1747684276003338973,-0.145
1747684276011026164,-0.138
1747684276018713355,-0.128
1747684276026400546,-0.126
1747684276034087737,-0.116
1747684276041774928,-0.116
1747684276049462119,-0.121
1747684276057149310,-0.106
1747684276064836501,-0.096
1747684276072523692,-0.101
1747684276080210883,-0.091
1747684276087898074,-0.081
1747684276095585265,-0.084
1747684276103272456,-0.084
1747684276110959647,-0.081
1747684276118646838,-0.084
1747684276126334029,-0.091
1747684276134021220,-0.096
1747684276141708411,-0.096
1747684276149395602,-0.096
1747684276157082793,-0.098
1747684276164769984,-0.098
1747684276172457175,-0.096
1747684276180144366,-0.096
1747684276187831557,-0.096
1747684276195518748,-0.091
1747684276203205939,-0.101
1747684276210893130,-0.108
1747684276218580321,-0.094
1747684276226267512,-0.08600000000000001
1747684276233954703,-0.081
1747684276241641894,-0.051000000000000004
1747684276249329085,-0.034
1747684276257016276,-0.064
1747684276264703467,-0.081
1747684276272390658,-0.069
1747684276280077849,-0.066
1747684276287765040,-0.076
1747684276295452231,-0.07100000000000001
1747684276303139422,-0.069
1747684276310826613,-0.081
1747684276318513845,-0.091
1747684276326201245,-0.054
1747684276333888645,0.18
1747684276341576045,0.62
1747684276349263445,0.754
1747684276356950845,0.19
1747684276364638245,-0.47900000000000004
1747684276372325645,-0.526
1747684276380013045,-0.257
1747684276387700445,-0.202
1747684276395387845,-0.188
1747684276403075245,-0.07100000000000001
1747684276410762645,-0.042
1747684276418450045,-0.064
1747684276426137445,-0.039
1747684276433824845,-0.027
1747684276441512245,-0.034
1747684276449199645,-0.022
1747684276456887045,-0.014
1747684276464574445,-0.019
1747684276472261845,-0.009000000000000001
1747684276479949245,0.004
1747684276487636645,0.007
1747684276495324045,0.009000000000000001
1747684276503011445,0.022
1747684276510698845,0.037
1747684276518386245,0.037
1747684276526073645,0.037
1747684276533761045,0.054
1747684276541448445,0.066
1747684276549135845,0.079
1747684276556823245,0.106
1747684276564510645,0.113
1747684276572198045,0.108
1747684276579885445,0.123
1747684276587572845,0.14300000000000002
1747684276595260245,0.138
1747684276602947645,0.123
1747684276610635045,0.126
1747684276618322445,0.121
1747684276626009845,0.08600000000000001
1747684276633697245,0.051000000000000004
1747684276641384645,0.017
1747684276649072045,-0.029
1747684276656759445,-0.074
1747684276664446845,-0.108
1747684276672134245,-0.126
1747684276679821645,-0.126
1747684276687509045,-0.136
1747684276695196445,-0.145
1747684276702883845,-0.138
1747684276710571245,-0.128
1747684276718258645,-0.126
1747684276725946045,-0.116
1747684276733633445,-0.101
1747684276741320845,-0.101
1747684276749008245,-0.106
1747684276756695645,-0.10300000000000001
1747684276764383045,-0.101
1747684276772070445,-0.089
1747684276779757845,-0.084
1747684276787445245,-0.089
1747684276795132645,-0.091
1747684276802820045,-0.096
1747684276810507445,-0.106
1747684276818194845,-0.10300000000000001
1747684276825882245,-0.096
1747684276833569645,-0.098
1747684276841257045,-0.108
1747684276848944445,-0.111
1747684276856631845,-0.111
1747684276864319245,-0.116
1747684276872006645,-0.106
1747684276879694086,-0.094,83,701
1747684276887381207,-0.096
1747684276895068328,-0.089
1747684276902755449,-0.056
1747684276910442570,-0.047
1747684276918129691,-0.076
1747684276925816812,-0.089
1747684276933503933,-0.089
1747684276941191054,-0.091
1747684276948878175,-0.091
1747684276956565296,-0.084
1747684276964252417,-0.079
1747684276971939538,-0.081
1747684276979626659,-0.096
1747684276987313780,-0.069
1747684276995000901,0.168
1747684277002688022,0.618
1747684277010375143,0.759
1747684277018062264,0.185
1747684277025749385,-0.499
1747684277033436506,-0.551
1747684277041123627,-0.28400000000000003
1747684277048810748,-0.222
1747684277056497869,-0.197
1747684277064184990,-0.081
1747684277071872111,-0.049
1747684277079559232,-0.069
1747684277087246353,-0.047
1747684277094933474,-0.029
1747684277102620595,-0.029
1747684277110307716,-0.024
1747684277117994837,-0.019
1747684277125681958,-0.012
1747684277133369079,-0.007
1747684277141056200,-0.009000000000000001
1747684277148743321,-0.002
1747684277156430442,0.004
1747684277164117563,0.012
1747684277171804684,0.027
1747684277179491805,0.042
1747684277187178926,0.051000000000000004
1747684277194866047,0.056
1747684277202553168,0.061
1747684277210240289,0.074
1747684277217927410,0.089
1747684277225614531,0.101
1747684277233301652,0.11800000000000001
1747684277240988773,0.131
1747684277248675894,0.136
1747684277256363015,0.136
1747684277264050136,0.128
1747684277271737257,0.11800000000000001
1747684277279424378,0.106
1747684277287111499,0.076
1747684277294798620,0.034
1747684277302485741,-0.004
1747684277310172862,-0.042
1747684277317859983,-0.079
1747684277325547104,-0.116
1747684277333234225,-0.138
1747684277340921346,-0.145
1747684277348608467,-0.15
1747684277356295588,-0.155
1747684277363982709,-0.145
1747684277371669830,-0.136
1747684277379356951,-0.136
1747684277387044072,-0.123
1747684277394731193,-0.108
1747684277402418314,-0.108
1747684277410105435,-0.111
1747684277417792556,-0.106
1747684277425479677,-0.098
1747684277433166798,-0.096
1747684277440853983,-0.094
1747684277448541104,-0.098
1747684277456228225,-0.106
1747684277463915346,-0.10300000000000001
1747684277471602467,-0.101
1747684277479289588,-0.111
1747684277486976709,-0.113
1747684277494663830,-0.108
1747684277502350951,-0.111
1747684277510038072,-0.121
1747684277517725193,-0.123
1747684277525412314,-0.108
1747684277533099435,-0.098
1747684277540786556,-0.106
1747684277548473677,-0.094
1747684277556160798,-0.066
1747684277563847919,-0.066
1747684277571535040,-0.089
1747684277579222161,-0.096
1747684277586909282,-0.094
1747684277594596403,-0.096
1747684277602283524,-0.094
1747684277609970645,-0.084
1747684277617657766,-0.081
1747684277625344887,-0.098
1747684277633032008,-0.113
1747684277640719129,-0.027
1747684277648406250,0.301
1747684277656093371,0.712
1747684277663780492,0.628
1747684277671467613,-0.064
1747684277679154734,-0.581
1747684277686841855,-0.462
1747684277694528976,-0.242
1747684277702216097,-0.232
1747684277709903218,-0.165
1747684277717590339,-0.061
1747684277725277460,-0.07100000000000001
1747684277732964581,-0.081
1747684277740651702,-0.042
1747684277748338823,-0.032
1747684277756025944,-0.039
1747684277763713065,-0.029
1747684277771400186,-0.017
1747684277779087307,-0.019
1747684277786774428,-0.019
1747684277794461549,-0.014
1747684277802148670,-0.002
1747684277809835791,0.004
1747684277817522912,0.009000000000000001
1747684277825210033,0.017
1747684277832897154,0.032
1747684277840584275,0.039
1747684277848271396,0.042
1747684277855958517,0.059000000000000004
1747684277863645638,0.084
1747684277871332759,0.101
1747684277879019880,0.111
1747684277886707001,0.11800000000000001
1747684277894394122,0.123
1747684277902081243,0.126
1747684277909768364,0.126
1747684277917455485,0.123
1747684277925142606,0.116
1747684277932829727,0.096
1747684277940516848,0.059000000000000004
1747684277948203969,0.012
1747684277955891090,-0.024
1747684277963578211,-0.054
1747684277971265332,-0.08600000000000001
1747684277978952453,-0.111
1747684277986639574,-0.133
1747684277994326695,-0.153
1747684278002013880,-0.155,84,688
1747684278009701419,-0.145,,682
1747684278017388958,-0.14100000000000001
1747684278025076497,-0.136
1747684278032764036,-0.131
1747684278040451575,-0.128
1747684278048139114,-0.121
1747684278055826653,-0.111
1747684278063514192,-0.108
1747684278071201731,-0.098
1747684278078889270,-0.096
1747684278086576809,-0.106
1747684278094264348,-0.106
1747684278101951887,-0.096
1747684278109639426,-0.098
1747684278117326965,-0.108
1747684278125014504,-0.108
1747684278132702043,-0.106
1747684278140389582,-0.113
1747684278148077121,-0.123
1747684278155764660,-0.121
1747684278163452199,-0.121
1747684278171139738,-0.121
1747684278178827277,-0.111
1747684278186514816,-0.101
1747684278194202355,-0.089
1747684278201889894,-0.07100000000000001
1747684278209577433,-0.076
1747684278217264972,-0.096
1747684278224952511,-0.096
1747684278232640050,-0.08600000000000001
1747684278240327589,-0.091
1747684278248015128,-0.098
1747684278255702667,-0.096
1747684278263390206,-0.089
1747684278271077745,-0.08600000000000001
1747684278278765284,-0.098
1747684278286452823,-0.066
1747684278294140362,0.202
1747684278301827901,0.66
1747684278309515440,0.739
1747684278317202979,0.131
1747684278324890518,-0.507
1747684278332578057,-0.512
1747684278340265596,-0.259
1747684278347953135,-0.22
1747684278355640674,-0.192
1747684278363328213,-0.081
1747684278371015752,-0.064
1747684278378703291,-0.08600000000000001
1747684278386390830,-0.051000000000000004
1747684278394078369,-0.032
1747684278401765908,-0.047
1747684278409453447,-0.042
1747684278417140986,-0.024
1747684278424828525,-0.022
1747684278432516064,-0.019
1747684278440203603,-0.009000000000000001
1747684278447891142,-0.004
1747684278455578681,0.0
1747684278463266220,0.007
1747684278470953759,0.017
1747684278478641298,0.024
1747684278486328837,0.032
1747684278494016376,0.042
1747684278501703915,0.059000000000000004
1747684278509391454,0.07100000000000001
1747684278517078993,0.084
1747684278524766532,0.098
1747684278532454071,0.111
1747684278540141610,0.111
1747684278547829149,0.108
1747684278555516688,0.113
1747684278563204299,0.116
1747684278570891420,0.111
1747684278578578541,0.091
1747684278586265662,0.056
1747684278593952783,0.022
1747684278601639904,-0.014
1747684278609327025,-0.054
1747684278617014146,-0.081
1747684278624701267,-0.106
1747684278632388388,-0.128
1747684278640075509,-0.136
1747684278647762630,-0.133
1747684278655449751,-0.131
1747684278663136872,-0.128
1747684278670823993,-0.133
1747684278678511114,-0.128
1747684278686198235,-0.116
1747684278693885356,-0.113
1747684278701572477,-0.111
1747684278709259598,-0.106
1747684278716946719,-0.10300000000000001
1747684278724633840,-0.101
1747684278732320961,-0.098
1747684278740008082,-0.089
1747684278747695203,-0.091
1747684278755382324,-0.106
1747684278763069445,-0.10300000000000001
1747684278770756566,-0.094
1747684278778443687,-0.096
1747684278786130808,-0.10300000000000001
1747684278793817929,-0.106
1747684278801505050,-0.106
1747684278809192171,-0.111
1747684278816879292,-0.123
1747684278824566413,-0.121
1747684278832253534,-0.096
1747684278839940655,-0.081
1747684278847627776,-0.079
1747684278855314897,-0.064
1747684278863002018,-0.056
1747684278870689139,-0.076
1747684278878376260,-0.08600000000000001
1747684278886063381,-0.081
1747684278893750502,-0.081
1747684278901437623,-0.08600000000000001
1747684278909124744,-0.084
1747684278916811865,-0.074
1747684278924498986,-0.079
1747684278932186107,-0.101
1747684278939873228,-0.076
1747684278947560349,0.15
1747684278955247470,0.598
1747684278962934591,0.784
1747684278970621712,0.28600000000000003
1747684278978308833,-0.388
1747684278985995954,-0.509
1747684278993683075,-0.277
1747684279001370196,-0.202
1747684279009057317,-0.17500000000000002
1747684279016744438,-0.084
1747684279024431559,-0.066
1747684279032118680,-0.081
1747684279039805801,-0.059000000000000004
1747684279047492922,-0.049
1747684279055180043,-0.044
1747684279062867164,-0.027
1747684279070554285,-0.017
1747684279078241406,-0.022
1747684279085928527,-0.017
1747684279093615648,-0.017
1747684279101302769,-0.017
1747684279108989890,-0.007
1747684279116677011,0.007
1747684279124364196,0.007,84,661
1747684279132051317,0.014
1747684279139738438,0.029
1747684279147425559,0.039
1747684279155112680,0.051000000000000004
1747684279162799801,0.069
1747684279170486922,0.076
1747684279178174043,0.084
1747684279185861164,0.098
1747684279193548285,0.106
1747684279201235406,0.101
1747684279208922527,0.101
1747684279216609648,0.10300000000000001
1747684279224296769,0.098
1747684279231983890,0.08600000000000001
1747684279239671011,0.066
1747684279247358132,0.034
1747684279255045253,-0.004
1747684279262732374,-0.039
1747684279270419495,-0.066
1747684279278106616,-0.098
1747684279285793737,-0.126
1747684279293480858,-0.128
1747684279301167979,-0.11800000000000001
1747684279308855100,-0.126
1747684279316542221,-0.136
1747684279324229342,-0.128
1747684279331916463,-0.116
1747684279339603584,-0.113
1747684279347290705,-0.111
1747684279354977826,-0.106
1747684279362664947,-0.106
1747684279370352068,-0.10300000000000001
1747684279378039189,-0.10300000000000001
1747684279385726310,-0.098
1747684279393413431,-0.096
1747684279401100552,-0.10300000000000001
1747684279408787673,-0.101
1747684279416474794,-0.094
1747684279424161915,-0.096
1747684279431849036,-0.106
1747684279439536157,-0.106
1747684279447223278,-0.098
1747684279454910399,-0.096
1747684279462597520,-0.094
1747684279470284641,-0.094
1747684279477971762,-0.096
1747684279485658883,-0.098
1747684279493346004,-0.094
1747684279501033125,-0.089
1747684279508720246,-0.091
1747684279516407367,-0.096
1747684279524094488,-0.089
1747684279531781609,-0.084
1747684279539468730,-0.091
1747684279547155851,-0.094
1747684279554842972,-0.094
1747684279562530093,-0.096
1747684279570217214,-0.091
1747684279577904335,-0.076
1747684279585591456,-0.059000000000000004
1747684279593278577,-0.051000000000000004
1747684279600965698,-0.049
1747684279608652819,-0.047
1747684279616339940,-0.054
1747684279624027061,-0.066
1747684279631714182,-0.07100000000000001
1747684279639401303,-0.07100000000000001
1747684279647088424,-0.076
1747684279654775545,-0.074
1747684279662462666,-0.066
1747684279670149787,-0.064
1747684279677836908,-0.079
1747684279685524093,-0.096,86,651
1747684279693211423,-0.007,,647
1747684279700898753,0.343
1747684279708586083,0.749
1747684279716273413,0.64
1747684279723960743,-0.017
1747684279731648073,-0.47700000000000004
1747684279739335403,-0.388
1747684279747022733,-0.22
1747684279754710063,-0.20500000000000002
1747684279762397393,-0.133
1747684279770084723,-0.056
1747684279777772053,-0.069
1747684279785459383,-0.074
1747684279793146713,-0.047
1747684279800834043,-0.044
1747684279808521373,-0.044
1747684279816208703,-0.032
1747684279823896033,-0.029
1747684279831583363,-0.027
1747684279839270693,-0.019
1747684279846958023,-0.014
1747684279854645353,-0.007
1747684279862332683,0.0
1747684279870020013,0.002
1747684279877707343,0.009000000000000001
1747684279885394673,0.024
1747684279893082003,0.029
1747684279900769333,0.034
1747684279908456663,0.051000000000000004
1747684279916143993,0.066
1747684279923831323,0.061
1747684279931518653,0.061
1747684279939205983,0.076
1747684279946893313,0.084
1747684279954580643,0.081
1747684279962267973,0.084
1747684279969955303,0.089
1747684279977642633,0.084
1747684279985329963,0.076
1747684279993017293,0.064
1747684280000704623,0.037
1747684280008391953,0.002
1747684280016079283,-0.029
1747684280023766613,-0.056
1747684280031453943,-0.076
1747684280039141273,-0.091
1747684280046828603,-0.108
1747684280054515933,-0.11800000000000001
1747684280062203263,-0.111
1747684280069890593,-0.106
1747684280077577923,-0.106
1747684280085265253,-0.101
1747684280092952583,-0.101
1747684280100639913,-0.106
1747684280108327243,-0.096
1747684280116014573,-0.091
1747684280123701903,-0.098
1747684280131389233,-0.098
1747684280139076563,-0.08600000000000001
1747684280146763893,-0.08600000000000001
1747684280154451223,-0.091
1747684280162138553,-0.091
1747684280169825883,-0.089
1747684280177513213,-0.091
1747684280185200543,-0.096
1747684280192887873,-0.098
1747684280200575203,-0.096
1747684280208262533,-0.096
1747684280215949863,-0.098
1747684280223637193,-0.098
1747684280231324523,-0.096
1747684280239011853,-0.094
1747684280246699251,-0.091
1747684280254386581,-0.094
1747684280262073911,-0.096
1747684280269761241,-0.094
1747684280277448571,-0.091
1747684280285135901,-0.08600000000000001
1747684280292823231,-0.089
1747684280300510561,-0.098
1747684280308197891,-0.106
1747684280315885221,-0.108
1747684280323572551,-0.10300000000000001
1747684280331259881,-0.091
1747684280338947211,-0.07100000000000001
1747684280346634541,-0.059000000000000004
1747684280354321871,-0.061
1747684280362009201,-0.061
1747684280369696531,-0.056
1747684280377383861,-0.074
1747684280385071191,-0.084
1747684280392758521,-0.079
1747684280400445851,-0.081
1747684280408133181,-0.08600000000000001
1747684280415820511,-0.079
1747684280423507841,-0.076
1747684280431195171,-0.081
1747684280438882501,-0.101
1747684280446569831,-0.066
1747684280454257161,0.197
1747684280461944491,0.628
1747684280469631821,0.6900000000000001
1747684280477319151,0.138
1747684280485006481,-0.423
1747684280492693811,-0.45
1747684280500381141,-0.254
1747684280508068471,-0.21
1747684280515755801,-0.168
1747684280523443131,-0.074
1747684280531130461,-0.066
1747684280538817791,-0.081
1747684280546505121,-0.056
1747684280554192451,-0.044
1747684280561879781,-0.049
1747684280569567111,-0.042
1747684280577254441,-0.029
1747684280584941771,-0.029
1747684280592629101,-0.024
1747684280600316431,-0.012
1747684280608003761,-0.004
1747684280615691091,-0.002
1747684280623378421,0.002
1747684280631065751,0.009000000000000001
1747684280638753081,0.014
1747684280646440411,0.019
1747684280654127741,0.027
1747684280661815071,0.039
1747684280669502401,0.049
1747684280677189731,0.056
1747684280684877061,0.069
1747684280692564391,0.079
1747684280700251721,0.076
1747684280707939051,0.074
1747684280715626381,0.076
1747684280723313711,0.074
1747684280731001041,0.066
1747684280738688371,0.061
1747684280746375701,0.051000000000000004
1747684280754063031,0.024
1747684280761750361,-0.012
1747684280769437691,-0.049
1747684280777125021,-0.07100000000000001
1747684280784812351,-0.089
1747684280792499681,-0.106
1747684280800187011,-0.11800000000000001
1747684280807874405,-0.123,86,655
1747684280815561875,-0.121
1747684280823249345,-0.113
1747684280830936815,-0.121
1747684280838624285,-0.133
1747684280846311755,-0.123
1747684280853999225,-0.106
1747684280861686695,-0.106
1747684280869374165,-0.111
1747684280877061635,-0.10300000000000001
1747684280884749105,-0.098
1747684280892436575,-0.106
1747684280900124045,-0.106
1747684280907811515,-0.10300000000000001
1747684280915498985,-0.108
1747684280923186455,-0.106
1747684280930873925,-0.10300000000000001
1747684280938561395,-0.106
1747684280946248865,-0.108
1747684280953936335,-0.106
1747684280961623805,-0.098
1747684280969311275,-0.098
1747684280976998745,-0.106
1747684280984686215,-0.106
1747684280992373685,-0.10300000000000001
1747684281000061155,-0.108
1747684281007748625,-0.101
1747684281015436095,-0.096
1747684281023123565,-0.10300000000000001
1747684281030811035,-0.106
1747684281038498505,-0.10300000000000001
1747684281046185975,-0.111
1747684281053873445,-0.111
1747684281061560915,-0.091
1747684281069248385,-0.069
1747684281076935855,-0.064
1747684281084623325,-0.069
1747684281092310795,-0.059000000000000004
1747684281099998265,-0.059000000000000004
1747684281107685735,-0.079
1747684281115373205,-0.08600000000000001
1747684281123060675,-0.081
1747684281130748145,-0.08600000000000001
1747684281138435615,-0.084
1747684281146123085,-0.076
1747684281153810555,-0.081
1747684281161498025,-0.094
1747684281169185495,-0.091
1747684281176872965,0.017
1747684281184560435,0.376
1747684281192247905,0.722
1747684281199935375,0.492
1747684281207622845,-0.178
1747684281215310315,-0.524
1747684281222997785,-0.368
1747684281230685255,-0.215
1747684281238372725,-0.195
1747684281246060195,-0.121
1747684281253747665,-0.066
1747684281261435135,-0.076
1747684281269122605,-0.069
1747684281276810075,-0.047
1747684281284497545,-0.049
1747684281292185015,-0.044
1747684281299872485,-0.029
1747684281307559955,-0.022
1747684281315247425,-0.017
1747684281322934895,-0.007
1747684281330622365,-0.009000000000000001
1747684281338309835,-0.009000000000000001
1747684281345997305,-0.002
1747684281353684775,0.007
1747684281361372245,0.017
1747684281369059737,0.029
1747684281376746928,0.034
1747684281384434119,0.037
1747684281392121310,0.056
1747684281399808501,0.07100000000000001
1747684281407495692,0.066
1747684281415182883,0.074
1747684281422870074,0.084
1747684281430557265,0.079
1747684281438244456,0.074
1747684281445931647,0.076
1747684281453618838,0.074
1747684281461306029,0.064
1747684281468993220,0.051000000000000004
1747684281476680411,0.039
1747684281484367602,0.009000000000000001
1747684281492054793,-0.032
1747684281499741984,-0.066
1747684281507429175,-0.089
1747684281515116366,-0.10300000000000001
1747684281522803557,-0.108
1747684281530490748,-0.113
1747684281538177939,-0.123
1747684281545865130,-0.128
1747684281553552321,-0.11800000000000001
1747684281561239512,-0.113
1747684281568926703,-0.11800000000000001
1747684281576613894,-0.116
1747684281584301085,-0.10300000000000001
1747684281591988276,-0.096
1747684281599675467,-0.101
1747684281607362658,-0.111
1747684281615049849,-0.106
1747684281622737040,-0.096
1747684281630424231,-0.098
1747684281638111422,-0.101
1747684281645798613,-0.098
1747684281653485804,-0.096
1747684281661172995,-0.098
1747684281668860186,-0.101
1747684281676547377,-0.10300000000000001
1747684281684234568,-0.106
1747684281691921759,-0.101
1747684281699608950,-0.094
1747684281707296141,-0.096
1747684281714983332,-0.096
1747684281722670523,-0.098
1747684281730357714,-0.101
1747684281738044905,-0.094
1747684281745732096,-0.091
1747684281753419287,-0.098
1747684281761106478,-0.10300000000000001
1747684281768793669,-0.10300000000000001
1747684281776480860,-0.101
1747684281784168051,-0.081
1747684281791855242,-0.059000000000000004
1747684281799542433,-0.049
1747684281807229624,-0.051000000000000004
1747684281814916815,-0.051000000000000004
1747684281822604006,-0.056
1747684281830291197,-0.076
1747684281837978388,-0.084
1747684281845665579,-0.076
1747684281853352770,-0.079
1747684281861039961,-0.081
1747684281868727152,-0.076
1747684281876414343,-0.074
1747684281884101534,-0.079
1747684281891788725,-0.089
1747684281899475916,-0.029
1747684281907163107,0.252
1747684281914850298,0.643
1747684281922537489,0.606
1747684281930224717,0.009000000000000001,87,750
1747684281937911908,-0.47500000000000003
1747684281945599099,-0.427
1747684281953286290,-0.247
1747684281960973481,-0.20500000000000002
1747684281968660672,-0.136
1747684281976347863,-0.061
1747684281984035054,-0.079
1747684281991722245,-0.084
1747684281999409436,-0.049
1747684282007096627,-0.044
1747684282014783818,-0.042
1747684282022471009,-0.024
1747684282030158200,-0.022
1747684282037845391,-0.034
1747684282045532582,-0.032
1747684282053219773,-0.019
1747684282060906964,-0.009000000000000001
1747684282068594155,-0.002
1747684282076281346,0.0
1747684282083968537,0.007
1747684282091655728,0.017
1747684282099342919,0.024
1747684282107030110,0.032
1747684282114717301,0.047
1747684282122404492,0.054
1747684282130091683,0.056
1747684282137778874,0.07100000000000001
1747684282145466065,0.074
1747684282153153256,0.061
1747684282160840447,0.061
1747684282168527638,0.061
1747684282176214829,0.056
1747684282183902020,0.054
1747684282191589211,0.049
1747684282199276402,0.027
1747684282206963593,0.004
1747684282214650784,-0.019
1747684282222337975,-0.049
1747684282230025166,-0.084
1747684282237712357,-0.106
1747684282245399548,-0.116
1747684282253086739,-0.11800000000000001
1747684282260773930,-0.128
1747684282268461121,-0.131
1747684282276148312,-0.121
1747684282283835503,-0.116
1747684282291522694,-0.11800000000000001
1747684282299209885,-0.11800000000000001
1747684282306897076,-0.11800000000000001
1747684282314584267,-0.116
1747684282322271458,-0.108
1747684282329958649,-0.106
1747684282337645840,-0.111
1747684282345333031,-0.111
1747684282353020222,-0.106
1747684282360707413,-0.113
1747684282368394604,-0.113
1747684282376081795,-0.111
1747684282383768986,-0.11800000000000001
1747684282391456177,-0.11800000000000001
1747684282399143368,-0.113
1747684282406830559,-0.11800000000000001
1747684282414517750,-0.121
1747684282422204941,-0.116
1747684282429892132,-0.116
1747684282437579323,-0.113
1747684282445266514,-0.108
1747684282452953705,-0.106
1747684282460640896,-0.101
1747684282468328087,-0.101
1747684282476015278,-0.108
1747684282483702469,-0.106
1747684282491389705,-0.098
1747684282499077175,-0.094
1747684282506764645,-0.096
1747684282514452115,-0.098
1747684282522139585,-0.10300000000000001
1747684282529827055,-0.10300000000000001
1747684282537514525,-0.111
1747684282545201995,-0.111
1747684282552889465,-0.098
1747684282560576935,-0.081
1747684282568264405,-0.074
1747684282575951875,-0.074
1747684282583639345,-0.064
1747684282591326815,-0.059000000000000004
1747684282599014285,-0.079
1747684282606701755,-0.098
1747684282614389225,-0.096
1747684282622076695,-0.091
1747684282629764165,-0.098
1747684282637451635,-0.094
1747684282645139105,-0.091
1747684282652826575,-0.091
1747684282660514045,-0.098
1747684282668201515,-0.101
1747684282675888985,0.032
1747684282683576455,0.405
1747684282691263925,0.65
1747684282698951395,0.309
1747684282706638865,-0.304
1747684282714326335,-0.519
1747684282722013805,-0.35100000000000003
1747684282729701275,-0.247
1747684282737388745,-0.22
1747684282745076215,-0.123
1747684282752763685,-0.079
1747684282760451155,-0.101
1747684282768138625,-0.089
1747684282775826095,-0.064
1747684282783513565,-0.069
1747684282791201035,-0.066
1747684282798888505,-0.054
1747684282806575975,-0.054
1747684282814263445,-0.054
1747684282821950915,-0.047
1747684282829638385,-0.039
1747684282837325855,-0.034
1747684282845013325,-0.027
1747684282852700795,-0.017
1747684282860388265,-0.009000000000000001
1747684282868075735,-0.007
1747684282875763205,0.004
1747684282883450675,0.017
1747684282891138145,0.022
1747684282898825615,0.022
1747684282906513085,0.029
1747684282914200555,0.042
1747684282921888025,0.047
1747684282929575495,0.047
1747684282937262965,0.042
1747684282944950435,0.034
1747684282952637905,0.032
1747684282960325375,0.034
1747684282968012845,0.027
1747684282975700315,0.004
1747684282983387785,-0.019
1747684282991075255,-0.044
1747684282998762725,-0.066
1747684283006450195,-0.091
1747684283014137665,-0.113
1747684283021825135,-0.126
1747684283029512605,-0.133
1747684283037200075,-0.155
1747684283044887545,-0.158
1747684283052575033,-0.14100000000000001,86,755
1747684283060262154,-0.14100000000000001,,727
1747684283067949275,-0.145
1747684283075636396,-0.136
1747684283083323517,-0.131
1747684283091010638,-0.128
1747684283098697759,-0.123
1747684283106384880,-0.126
1747684283114072001,-0.131
1747684283121759122,-0.131
1747684283129446243,-0.126
1747684283137133364,-0.128
1747684283144820485,-0.136
1747684283152507606,-0.136
1747684283160194727,-0.133
1747684283167881848,-0.133
1747684283175568969,-0.136
1747684283183256090,-0.138
1747684283190943211,-0.138
1747684283198630332,-0.136
1747684283206317453,-0.126
1747684283214004574,-0.121
1747684283221691695,-0.121
1747684283229378816,-0.123
1747684283237065937,-0.131
1747684283244753058,-0.123
1747684283252440179,-0.111
1747684283260127300,-0.108
1747684283267814421,-0.111
1747684283275501542,-0.111
1747684283283188663,-0.108
1747684283290875784,-0.108
1747684283298562905,-0.111
1747684283306250026,-0.116
1747684283313937147,-0.11800000000000001
1747684283321624268,-0.113
1747684283329311389,-0.101
1747684283336998510,-0.081
1747684283344685631,-0.069
1747684283352372752,-0.066
1747684283360059873,-0.061
1747684283367746994,-0.064
1747684283375434115,-0.084
1747684283383121236,-0.101
1747684283390808357,-0.098
1747684283398495478,-0.084
1747684283406182599,-0.081
1747684283413869720,-0.08600000000000001
1747684283421556841,-0.084
1747684283429243962,-0.08600000000000001
1747684283436931083,-0.089
1747684283444618204,-0.004
1747684283452305325,0.316
1747684283459992446,0.672
1747684283467679567,0.492
1747684283475366688,-0.17500000000000002
1747684283483053809,-0.541
1747684283490740930,-0.398
1747684283498428051,-0.272
1747684283506115172,-0.267
1747684283513802293,-0.158
1747684283521489414,-0.061
1747684283529176535,-0.076
1747684283536863656,-0.07100000000000001
1747684283544550777,-0.034
1747684283552237898,-0.037
1747684283559925019,-0.042
1747684283567612140,-0.017
1747684283575299261,-0.014
1747684283582986382,-0.027
1747684283590673503,-0.017
1747684283598360624,0.0
1747684283606047745,0.002
1747684283613734930,0.009000000000000001,85,725
1747684283621422051,0.024
1747684283629109172,0.034
1747684283636796293,0.032
1747684283644483414,0.034
1747684283652170535,0.049
1747684283659857656,0.061
1747684283667544777,0.069
1747684283675231898,0.079
1747684283682919019,0.089
1747684283690606140,0.098
1747684283698293261,0.10300000000000001
1747684283705980382,0.101
1747684283713667503,0.096
1747684283721354624,0.084
1747684283729041745,0.07100000000000001
1747684283736728866,0.066
1747684283744415987,0.054
1747684283752103108,0.024
1747684283759790229,-0.009000000000000001
1747684283767477350,-0.039
1747684283775164471,-0.074
1747684283782851592,-0.106
1747684283790538713,-0.11800000000000001
1747684283798225834,-0.123
1747684283805912955,-0.131
1747684283813600076,-0.131
1747684283821287197,-0.123
1747684283828974318,-0.113
1747684283836661439,-0.106
1747684283844348560,-0.108
1747684283852035681,-0.101
1747684283859722802,-0.089
1747684283867409923,-0.084
1747684283875097044,-0.084
1747684283882784165,-0.079
1747684283890471286,-0.079
1747684283898158407,-0.08600000000000001
1747684283905845528,-0.091
1747684283913532649,-0.091
1747684283921219770,-0.08600000000000001
1747684283928906891,-0.081
1747684283936594012,-0.089
1747684283944281133,-0.101
1747684283951968254,-0.094
1747684283959655375,-0.081
1747684283967342496,-0.089
1747684283975029617,-0.096
1747684283982716738,-0.08600000000000001
1747684283990403859,-0.08600000000000001
1747684283998090980,-0.08600000000000001
1747684284005778101,-0.079
1747684284013465222,-0.076
1747684284021152343,-0.089
1747684284028839464,-0.091
1747684284036526585,-0.089
1747684284044213706,-0.091
1747684284051900827,-0.08600000000000001
1747684284059587948,-0.069
1747684284067275069,-0.049
1747684284074962190,-0.042
1747684284082649311,-0.042
1747684284090336432,-0.039
1747684284098023553,-0.049
1747684284105710674,-0.061
1747684284113397795,-0.064
1747684284121084916,-0.064
1747684284128772037,-0.059000000000000004
1747684284136459158,-0.056
1747684284144146279,-0.059000000000000004
1747684284151833400,-0.061
1747684284159520521,-0.064
1747684284167207642,-0.059000000000000004
1747684284174894827,0.084
1747684284182582297,0.47000000000000003
1747684284190269767,0.729
1747684284197957237,0.368
1747684284205644707,-0.28600000000000003
1747684284213332177,-0.507
1747684284221019647,-0.316
1747684284228707117,-0.20700000000000002
1747684284236394587,-0.188
1747684284244082057,-0.081
1747684284251769527,-0.022
1747684284259456997,-0.042
1747684284267144467,-0.039
1747684284274831937,-0.014
1747684284282519407,-0.009000000000000001
1747684284290206877,-0.007
1747684284297894347,0.002
1747684284305581817,0.007
1747684284313269287,0.004
1747684284320956757,0.009000000000000001
1747684284328644227,0.022
1747684284336331697,0.029
1747684284344019167,0.034
1747684284351706637,0.042
1747684284359394107,0.044
1747684284367081577,0.047
1747684284374769047,0.061
1747684284382456517,0.074
1747684284390143987,0.079
1747684284397831457,0.089
1747684284405518927,0.10300000000000001
1747684284413206397,0.113
1747684284420893867,0.113
1747684284428581337,0.111
1747684284436268807,0.106
1747684284443956277,0.108
1747684284451643747,0.108
1747684284459331217,0.098
1747684284467018687,0.079
1747684284474706157,0.051000000000000004
1747684284482393627,0.019
1747684284490081097,-0.014
1747684284497768567,-0.049
1747684284505456037,-0.081
1747684284513143507,-0.098
1747684284520830977,-0.111
1747684284528518447,-0.116
1747684284536205917,-0.116
1747684284543893387,-0.116
1747684284551580857,-0.113
1747684284559268327,-0.108
1747684284566955797,-0.101
1747684284574643267,-0.094
1747684284582330737,-0.089
1747684284590018207,-0.08600000000000001
1747684284597705677,-0.081
1747684284605393147,-0.074
1747684284613080617,-0.074
1747684284620768087,-0.076
1747684284628455557,-0.079
1747684284636143027,-0.081
1747684284643830497,-0.079
1747684284651517967,-0.076
1747684284659205437,-0.081
1747684284666892907,-0.089
1747684284674580377,-0.089
1747684284682267847,-0.084
1747684284689955317,-0.081
1747684284697642787,-0.081
1747684284705330257,-0.076
1747684284713017727,-0.079
1747684284720705197,-0.084
1747684284728392667,-0.079
1747684284736080159,-0.074,85,772
1747684284743767350,-0.074
1747684284751454541,-0.074
1747684284759141732,-0.069
1747684284766828923,-0.066
1747684284774516114,-0.081
1747684284782203305,-0.096
1747684284789890496,-0.08600000000000001
1747684284797577687,-0.061
1747684284805264878,-0.042
1747684284812952069,-0.037
1747684284820639260,-0.037
1747684284828326451,-0.029
1747684284836013642,-0.037
1747684284843700833,-0.061
1747684284851388024,-0.069
1747684284859075215,-0.059000000000000004
1747684284866762406,-0.061
1747684284874449597,-0.066
1747684284882136788,-0.064
1747684284889823979,-0.059000000000000004
1747684284897511170,-0.056
1747684284905198361,-0.066
1747684284912885552,0.007
1747684284920572743,0.333
1747684284928259934,0.712
1747684284935947125,0.586
1747684284943634316,-0.034
1747684284951321507,-0.445
1747684284959008698,-0.361
1747684284966695889,-0.20700000000000002
1747684284974383080,-0.178
1747684284982070271,-0.106
1747684284989757462,-0.042
1747684284997444653,-0.064
1747684285005131844,-0.07100000000000001
1747684285012819035,-0.037
1747684285020506226,-0.027
1747684285028193417,-0.029
1747684285035880608,-0.019
1747684285043567799,-0.017
1747684285051254990,-0.017
1747684285058942181,-0.004
1747684285066629372,0.007
1747684285074316563,0.004
1747684285082003754,0.007
1747684285089690945,0.019
1747684285097378136,0.029
1747684285105065327,0.042
1747684285112752518,0.049
1747684285120439709,0.049
1747684285128126900,0.054
1747684285135814091,0.07100000000000001
1747684285143501282,0.089
1747684285151188473,0.094
1747684285158875664,0.098
1747684285166562855,0.10300000000000001
1747684285174250046,0.101
1747684285181937237,0.098
1747684285189624428,0.094
1747684285197311619,0.084
1747684285204998810,0.07100000000000001
1747684285212686001,0.049
1747684285220373192,0.024
1747684285228060383,-0.002
1747684285235747574,-0.032
1747684285243434765,-0.064
1747684285251121956,-0.094
1747684285258809147,-0.108
1747684285266496338,-0.113
1747684285274183529,-0.11800000000000001
1747684285281870720,-0.11800000000000001
1747684285289557911,-0.113
1747684285297245139,-0.106
1747684285304932330,-0.10300000000000001
1747684285312619521,-0.10300000000000001
1747684285320306712,-0.101
1747684285327993903,-0.091
1747684285335681094,-0.084
1747684285343368285,-0.08600000000000001
1747684285351055476,-0.084
1747684285358742667,-0.079
1747684285366429858,-0.08600000000000001
1747684285374117049,-0.089
1747684285381804240,-0.081
1747684285389491431,-0.081
1747684285397178622,-0.089
1747684285404865813,-0.08600000000000001
1747684285412553004,-0.079
1747684285420240195,-0.081
1747684285427927386,-0.089
1747684285435614577,-0.089
1747684285443301768,-0.08600000000000001
1747684285450988959,-0.08600000000000001
1747684285458676150,-0.08600000000000001
1747684285466363341,-0.091
1747684285474050532,-0.089
1747684285481737723,-0.079
1747684285489424914,-0.076
1747684285497112105,-0.079
1747684285504799296,-0.079
1747684285512486487,-0.076
1747684285520173678,-0.074
1747684285527860869,-0.076
1747684285535548060,-0.084
1747684285543235251,-0.08600000000000001
1747684285550922442,-0.081
1747684285558609633,-0.074
1747684285566296824,-0.064
1747684285573984015,-0.049
1747684285581671206,-0.042
1747684285589358397,-0.042
1747684285597045588,-0.039
1747684285604732779,-0.042
1747684285612419970,-0.051000000000000004
1747684285620107161,-0.064
1747684285627794352,-0.07100000000000001
1747684285635481543,-0.07100000000000001
1747684285643168734,-0.061
1747684285650855925,-0.054
1747684285658543116,-0.059000000000000004
1747684285666230307,-0.07100000000000001
1747684285673917498,-0.074
1747684285681604689,0.009000000000000001
1747684285689291880,0.319
1747684285696979071,0.67
1747684285704666262,0.546
1747684285712353453,-0.049
1747684285720040644,-0.45
1747684285727727835,-0.376
1747684285735415026,-0.222
1747684285743102217,-0.185
1747684285750789408,-0.116
1747684285758476599,-0.049
1747684285766163790,-0.059000000000000004
1747684285773850981,-0.064
1747684285781538172,-0.042
1747684285789225363,-0.034
1747684285796912554,-0.039
1747684285804599745,-0.032
1747684285812286936,-0.017
1747684285819974127,-0.009000000000000001
1747684285827661318,-0.009000000000000001
1747684285835348509,-0.004
1747684285843035700,0.0
1747684285850722891,0.004
1747684285858410127,0.009000000000000001,84,771
1747684285866097597,0.017,,729
1747684285873785067,0.027
1747684285881472537,0.034
1747684285889160007,0.044
1747684285896847477,0.059000000000000004
1747684285904534947,0.069
1747684285912222417,0.074
1747684285919909887,0.076
1747684285927597357,0.084
1747684285935284827,0.091
1747684285942972297,0.091
1747684285950659767,0.08600000000000001
1747684285958347237,0.08600000000000001
1747684285966034707,0.081
1747684285973722177,0.064
1747684285981409647,0.047
1747684285989097117,0.022
1747684285996784587,-0.009000000000000001
1747684286004472057,-0.044
1747684286012159527,-0.07100000000000001
1747684286019846997,-0.094
1747684286027534467,-0.108
1747684286035221937,-0.11800000000000001
1747684286042909407,-0.121
1747684286050596877,-0.116
1747684286058284347,-0.116
1747684286065971817,-0.11800000000000001
1747684286073659287,-0.113
1747684286081346757,-0.106
1747684286089034227,-0.101
1747684286096721697,-0.094
1747684286104409167,-0.091
1747684286112096637,-0.094
1747684286119784107,-0.091
1747684286127471577,-0.084
1747684286135159047,-0.08600000000000001
1747684286142846517,-0.089
1747684286150533987,-0.089
1747684286158221457,-0.089
1747684286165908927,-0.091
1747684286173596397,-0.091
1747684286181283867,-0.091
1747684286188971337,-0.091
1747684286196658807,-0.091
1747684286204346277,-0.089
1747684286212033747,-0.08600000000000001
1747684286219721217,-0.091
1747684286227408687,-0.096
1747684286235096157,-0.089
1747684286242783627,-0.084
1747684286250471097,-0.079
1747684286258158567,-0.081
1747684286265846037,-0.08600000000000001
1747684286273533507,-0.08600000000000001
1747684286281220977,-0.081
1747684286288908447,-0.079
1747684286296595917,-0.069
1747684286304283387,-0.064
1747684286311970857,-0.066
1747684286319658327,-0.07100000000000001
1747684286327345797,-0.069
1747684286335033267,-0.069
1747684286342720737,-0.07100000000000001
1747684286350408207,-0.066
1747684286358095677,-0.074
1747684286365783147,-0.08600000000000001
1747684286373470617,-0.084
1747684286381158087,-0.066
1747684286388845557,-0.051000000000000004
1747684286396533027,-0.037
1747684286404220497,-0.032
1747684286411907967,-0.032
1747684286419595455,-0.029
1747684286427282576,-0.047
1747684286434969697,-0.064
1747684286442656818,-0.061
1747684286450343939,-0.064
1747684286458031060,-0.066
1747684286465718181,-0.059000000000000004
1747684286473405302,-0.054
1747684286481092423,-0.059000000000000004
1747684286488779544,-0.07100000000000001
1747684286496466665,-0.069
1747684286504153786,0.051000000000000004
1747684286511840907,0.4
1747684286519528028,0.682
1747684286527215149,0.437
1747684286534902270,-0.165
1747684286542589391,-0.462
1747684286550276512,-0.329
1747684286557963633,-0.20500000000000002
1747684286565650754,-0.18
1747684286573337875,-0.098
1747684286581024996,-0.049
1747684286588712117,-0.07100000000000001
1747684286596399238,-0.061
1747684286604086359,-0.032
1747684286611773480,-0.032
1747684286619460601,-0.034
1747684286627147722,-0.022
1747684286634834843,-0.012
1747684286642521964,-0.014
1747684286650209085,-0.014
1747684286657896206,-0.004
1747684286665583327,0.004
1747684286673270448,0.004
1747684286680957569,0.004
1747684286688644690,0.019
1747684286696331811,0.034
1747684286704018932,0.047
1747684286711706053,0.049
1747684286719393174,0.056
1747684286727080295,0.061
1747684286734767416,0.066
1747684286742454537,0.081
1747684286750141658,0.096
1747684286757828779,0.091
1747684286765515900,0.089
1747684286773203021,0.096
1747684286780890142,0.091
1747684286788577263,0.081
1747684286796264384,0.07100000000000001
1747684286803951505,0.049
1747684286811638626,0.022
1747684286819325747,-0.009000000000000001
1747684286827012868,-0.042
1747684286834699989,-0.066
1747684286842387110,-0.08600000000000001
1747684286850074231,-0.108
1747684286857761352,-0.128
1747684286865448473,-0.136
1747684286873135594,-0.131
1747684286880822715,-0.11800000000000001
1747684286888509836,-0.108
1747684286896196957,-0.111
1747684286903884078,-0.111
1747684286911571199,-0.10300000000000001
1747684286919258320,-0.10300000000000001
1747684286926945441,-0.106
1747684286934632562,-0.10300000000000001
1747684286942319683,-0.098
1747684286950006804,-0.091
1747684286957693925,-0.08600000000000001
1747684286965381046,-0.084
1747684286973068167,-0.084
1747684286980755352,-0.08600000000000001,83,740
1747684286988442473,-0.089
1747684286996129594,-0.091
1747684287003816715,-0.096
1747684287011503836,-0.091
1747684287019190957,-0.089
1747684287026878078,-0.094
1747684287034565199,-0.096
1747684287042252320,-0.089
1747684287049939441,-0.089
1747684287057626562,-0.094
1747684287065313683,-0.089
1747684287073000804,-0.084
1747684287080687925,-0.08600000000000001
1747684287088375046,-0.08600000000000001
1747684287096062167,-0.074
1747684287103749288,-0.069
1747684287111436409,-0.081
1747684287119123530,-0.094
1747684287126810651,-0.091
1747684287134497772,-0.089
1747684287142184893,-0.08600000000000001
1747684287149872014,-0.069
1747684287157559135,-0.044
1747684287165246256,-0.029
1747684287172933377,-0.029
1747684287180620498,-0.042
1747684287188307619,-0.059000000000000004
1747684287195994740,-0.069
1747684287203681861,-0.07100000000000001
1747684287211368982,-0.081
1747684287219056103,-0.08600000000000001
1747684287226743224,-0.069
1747684287234430345,-0.056
1747684287242117466,-0.064
1747684287249804587,-0.079
1747684287257491708,-0.056
1747684287265178829,0.126
1747684287272865950,0.536
1747684287280553071,0.734
1747684287288240192,0.249
1747684287295927313,-0.435
1747684287303614434,-0.556
1747684287311301555,-0.329
1747684287318988676,-0.269
1747684287326675797,-0.23500000000000001
1747684287334362918,-0.091
1747684287342050039,-0.032
1747684287349737160,-0.061
1747684287357424281,-0.049
1747684287365111402,-0.019
1747684287372798523,-0.017
1747684287380485644,-0.017
1747684287388172765,-0.012
1747684287395859886,-0.014
1747684287403547007,-0.017
1747684287411234128,-0.004
1747684287418921249,0.009000000000000001
1747684287426608370,0.017
1747684287434295491,0.017
1747684287441982612,0.022
1747684287449669733,0.039
1747684287457356854,0.051000000000000004
1747684287465043975,0.056
1747684287472731096,0.074
1747684287480418217,0.08600000000000001
1747684287488105338,0.091
1747684287495792459,0.106
1747684287503479580,0.123
1747684287511166701,0.131
1747684287518853822,0.138
1747684287526540943,0.14300000000000002
1747684287534228064,0.136
1747684287541915249,0.116
1747684287549602370,0.096
1747684287557289491,0.079
1747684287564976612,0.047
1747684287572663733,0.0
1747684287580350854,-0.039
1747684287588037975,-0.074
1747684287595725096,-0.111
1747684287603412217,-0.138
1747684287611099338,-0.15
1747684287618786459,-0.155
1747684287626473580,-0.153
1747684287634160701,-0.153
1747684287641847822,-0.153
1747684287649534943,-0.14100000000000001
1747684287657222064,-0.121
1747684287664909185,-0.121
1747684287672596306,-0.121
1747684287680283427,-0.10300000000000001
1747684287687970548,-0.098
1747684287695657669,-0.106
1747684287703344790,-0.094
1747684287711031911,-0.089
1747684287718719032,-0.098
1747684287726406153,-0.094
1747684287734093274,-0.084
1747684287741780395,-0.094
1747684287749467516,-0.10300000000000001
1747684287757154637,-0.098
1747684287764841758,-0.096
1747684287772528879,-0.106
1747684287780216000,-0.113
1747684287787903121,-0.10300000000000001
1747684287795590242,-0.091
1747684287803277363,-0.096
1747684287810964484,-0.094
1747684287818651605,-0.08600000000000001
1747684287826338726,-0.084
1747684287834025847,-0.096
1747684287841712968,-0.116
1747684287849400089,-0.123
1747684287857087210,-0.113
1747684287864774331,-0.10300000000000001
1747684287872461452,-0.089
1747684287880148573,-0.07100000000000001
1747684287887835694,-0.064
1747684287895522815,-0.064
1747684287903209936,-0.064
1747684287910897057,-0.066
1747684287918584178,-0.069
1747684287926271299,-0.076
1747684287933958420,-0.091
1747684287941645541,-0.096
1747684287949332662,-0.084
1747684287957019783,-0.064
1747684287964706904,-0.069
1747684287972394025,-0.094
1747684287980081146,-0.091
1747684287987768267,0.061
1747684287995455388,0.465
1747684288003142509,0.747
1747684288010829630,0.34800000000000003
1747684288018516751,-0.395
1747684288026203872,-0.608
1747684288033890993,-0.34600000000000003
1747684288041578114,-0.252
1747684288049265235,-0.262
1747684288056952356,-0.11800000000000001
1747684288064639477,-0.032
1747684288072326598,-0.064
1747684288080013719,-0.056
1747684288087700840,-0.029
1747684288095387961,-0.032
1747684288103075146,-0.024,83,769
1747684288110762267,-0.002
1747684288118449388,0.002
1747684288126136509,-0.004
1747684288133823630,0.0
1747684288141510751,0.002
1747684288149197872,-0.002
1747684288156884993,0.012
1747684288164572114,0.034
1747684288172259235,0.037
1747684288179946356,0.039
1747684288187633477,0.059000000000000004
1747684288195320598,0.074
1747684288203007719,0.074
1747684288210694840,0.096
1747684288218381961,0.121
1747684288226069082,0.116
1747684288233756203,0.11800000000000001
1747684288241443324,0.14100000000000001
1747684288249130445,0.14300000000000002
1747684288256817566,0.128
1747684288264504687,0.126
1747684288272191808,0.11800000000000001
1747684288279878929,0.091
1747684288287566050,0.051000000000000004
1747684288295253171,0.014
1747684288302940292,-0.022
1747684288310627413,-0.07100000000000001
1747684288318314534,-0.108
1747684288326001655,-0.126
1747684288333688776,-0.14300000000000002
1747684288341375897,-0.155
1747684288349063018,-0.153
1747684288356750139,-0.145
1747684288364437260,-0.14300000000000002
1747684288372124381,-0.14100000000000001
1747684288379811502,-0.131
1747684288387498623,-0.123
1747684288395185744,-0.123
1747684288402872865,-0.113
1747684288410559986,-0.096
1747684288418247107,-0.094
1747684288425934228,-0.101
1747684288433621349,-0.094
1747684288441308470,-0.084
1747684288448995591,-0.08600000000000001
1747684288456682712,-0.089
1747684288464369833,-0.096
1747684288472056954,-0.10300000000000001
1747684288479744075,-0.101
1747684288487431196,-0.096
1747684288495118317,-0.094
1747684288502805438,-0.096
1747684288510492559,-0.096
1747684288518179680,-0.098
1747684288525866801,-0.101
1747684288533553922,-0.098
1747684288541241043,-0.098
1747684288548928164,-0.094
1747684288556615285,-0.091
1747684288564302406,-0.10300000000000001
1747684288571989527,-0.108
1747684288579676648,-0.10300000000000001
1747684288587363769,-0.098
1747684288595050890,-0.08600000000000001
1747684288602738011,-0.066
1747684288610425132,-0.064
1747684288618112253,-0.064
1747684288625799374,-0.051000000000000004
1747684288633486495,-0.056
1747684288641173616,-0.076
1747684288648860737,-0.079
1747684288656547858,-0.069
1747684288664235043,-0.069,82,821
1747684288671922234,-0.076,,759
1747684288679609425,-0.076
1747684288687296616,-0.069
1747684288694983807,-0.076
1747684288702670998,-0.096
1747684288710358189,-0.051000000000000004
1747684288718045380,0.22
1747684288725732571,0.663
1747684288733419762,0.747
1747684288741106953,0.168
1747684288748794144,-0.455
1747684288756481335,-0.482
1747684288764168526,-0.247
1747684288771855717,-0.202
1747684288779542908,-0.165
1747684288787230099,-0.064
1747684288794917290,-0.054
1747684288802604481,-0.074
1747684288810291672,-0.051000000000000004
1747684288817978863,-0.032
1747684288825666054,-0.034
1747684288833353245,-0.034
1747684288841040436,-0.024
1747684288848727627,-0.017
1747684288856414818,-0.017
1747684288864102009,-0.017
1747684288871789200,-0.007
1747684288879476391,0.007
1747684288887163582,0.009000000000000001
1747684288894850773,0.012
1747684288902537964,0.019
1747684288910225155,0.032
1747684288917912346,0.042
1747684288925599537,0.054
1747684288933286728,0.07100000000000001
1747684288940973919,0.079
1747684288948661110,0.08600000000000001
1747684288956348301,0.098
1747684288964035492,0.113
1747684288971722683,0.111
1747684288979409874,0.106
1747684288987097065,0.108
1747684288994784256,0.108
1747684289002471447,0.091
1747684289010158638,0.064
1747684289017845829,0.029
1747684289025533020,-0.007
1747684289033220211,-0.044
1747684289040907402,-0.076
1747684289048594593,-0.10300000000000001
1747684289056281784,-0.126
1747684289063968975,-0.128
1747684289071656166,-0.126
1747684289079343357,-0.133
1747684289087030548,-0.136
1747684289094717739,-0.133
1747684289102404930,-0.126
1747684289110092121,-0.11800000000000001
1747684289117779312,-0.113
1747684289125466503,-0.10300000000000001
1747684289133153694,-0.101
1747684289140840885,-0.10300000000000001
1747684289148528076,-0.098
1747684289156215267,-0.094
1747684289163902458,-0.096
1747684289171589649,-0.094
1747684289179276840,-0.08600000000000001
1747684289186964031,-0.091
1747684289194651222,-0.096
1747684289202338413,-0.091
1747684289210025604,-0.091
1747684289217712795,-0.094
1747684289225400031,-0.091
1747684289233087501,-0.096
1747684289240774971,-0.101
1747684289248462441,-0.094
1747684289256149911,-0.089
1747684289263837381,-0.091
1747684289271524851,-0.089
1747684289279212321,-0.081
1747684289286899791,-0.089
1747684289294587261,-0.096
1747684289302274731,-0.089
1747684289309962201,-0.084
1747684289317649671,-0.084
1747684289325337141,-0.091
1747684289333024611,-0.094
1747684289340712081,-0.091
1747684289348399551,-0.08600000000000001
1747684289356087021,-0.074
1747684289363774491,-0.056
1747684289371461961,-0.054
1747684289379149431,-0.054
1747684289386836901,-0.044
1747684289394524371,-0.049
1747684289402211841,-0.069
1747684289409899311,-0.074
1747684289417586781,-0.069
1747684289425274251,-0.07100000000000001
1747684289432961721,-0.07100000000000001
1747684289440649191,-0.066
1747684289448336661,-0.069
1747684289456024131,-0.081
1747684289463711601,-0.096
1747684289471399071,-0.049
1747684289479086541,0.222
1747684289486774011,0.667
1747684289494461481,0.744
1747684289502148951,0.188
1747684289509836421,-0.398
1747684289517523891,-0.447
1747684289525211361,-0.247
1747684289532898831,-0.195
1747684289540586301,-0.16
1747684289548273771,-0.076
1747684289555961241,-0.069
1747684289563648711,-0.091
1747684289571336181,-0.069
1747684289579023651,-0.049
1747684289586711121,-0.047
1747684289594398591,-0.039
1747684289602086061,-0.032
1747684289609773531,-0.039
1747684289617461001,-0.037
1747684289625148471,-0.027
1747684289632835941,-0.022
1747684289640523411,-0.014
1747684289648210881,-0.009000000000000001
1747684289655898351,-0.002
1747684289663585821,0.004
1747684289671273291,0.019
1747684289678960761,0.029
1747684289686648231,0.037
1747684289694335701,0.047
1747684289702023171,0.059000000000000004
1747684289709710641,0.064
1747684289717398111,0.076
1747684289725085581,0.094
1747684289732773051,0.096
1747684289740460521,0.089
1747684289748147991,0.08600000000000001
1747684289755835461,0.084
1747684289763522931,0.079
1747684289771210401,0.051000000000000004
1747684289778897871,0.012
1747684289786585359,-0.017,81,724
1747684289794272480,-0.049
1747684289801959601,-0.08600000000000001
1747684289809646722,-0.11800000000000001
1747684289817333843,-0.138
1747684289825020964,-0.145
1747684289832708085,-0.14100000000000001
1747684289840395206,-0.14100000000000001
1747684289848082327,-0.145
1747684289855769448,-0.148
1747684289863456569,-0.138
1747684289871143690,-0.133
1747684289878830811,-0.138
1747684289886517932,-0.133
1747684289894205053,-0.121
1747684289901892174,-0.11800000000000001
1747684289909579295,-0.126
1747684289917266416,-0.126
1747684289924953537,-0.121
1747684289932640658,-0.121
1747684289940327779,-0.121
1747684289948014900,-0.121
1747684289955702021,-0.11800000000000001
1747684289963389142,-0.11800000000000001
1747684289971076263,-0.126
1747684289978763384,-0.131
1747684289986450505,-0.126
1747684289994137626,-0.123
1747684290001824747,-0.126
1747684290009511868,-0.126
1747684290017198989,-0.121
1747684290024886110,-0.121
1747684290032573231,-0.123
1747684290040260352,-0.11800000000000001
1747684290047947473,-0.113
1747684290055634594,-0.116
1747684290063321715,-0.11800000000000001
1747684290071008836,-0.113
1747684290078695957,-0.111
1747684290086383078,-0.121
1747684290094070199,-0.11800000000000001
1747684290101757320,-0.10300000000000001
1747684290109444441,-0.096
1747684290117131562,-0.106
1747684290124818683,-0.116
1747684290132505804,-0.116
1747684290140192925,-0.116
1747684290147880046,-0.123
1747684290155567167,-0.116
1747684290163254288,-0.08600000000000001
1747684290170941409,-0.066
1747684290178628530,-0.074
1747684290186315651,-0.074
1747684290194002772,-0.066
1747684290201689893,-0.079
1747684290209377014,-0.098
1747684290217064135,-0.101
1747684290224751256,-0.098
1747684290232438377,-0.108
1747684290240125498,-0.108
1747684290247812619,-0.091
1747684290255499740,-0.089
1747684290263186861,-0.10300000000000001
1747684290270873982,-0.111
1747684290278561103,-0.022
1747684290286248224,0.316
1747684290293935345,0.7020000000000001
1747684290301622466,0.559
1747684290309309587,-0.106
1747684290316996708,-0.536
1747684290324683829,-0.42
1747684290332370950,-0.254
1747684290340058071,-0.254
1747684290347745256,-0.17
1747684290355432377,-0.069
1747684290363119498,-0.094
1747684290370806619,-0.106
1747684290378493740,-0.064
1747684290386180861,-0.056
1747684290393867982,-0.059000000000000004
1747684290401555103,-0.049
1747684290409242224,-0.051000000000000004
1747684290416929345,-0.054
1747684290424616466,-0.042
1747684290432303587,-0.032
1747684290439990708,-0.027
1747684290447677829,-0.022
1747684290455364950,-0.009000000000000001
1747684290463052071,-0.002
1747684290470739192,0.0
1747684290478426313,0.009000000000000001
1747684290486113434,0.022
1747684290493800555,0.034
1747684290501487676,0.049
1747684290509174797,0.069
1747684290516861918,0.081
1747684290524549039,0.081
1747684290532236160,0.094
1747684290539923281,0.111
1747684290547610402,0.106
1747684290555297523,0.079
1747684290562984644,0.069
1747684290570671765,0.07100000000000001
1747684290578358886,0.054
1747684290586046007,0.019
1747684290593733128,-0.027
1747684290601420249,-0.074
1747684290609107370,-0.10300000000000001
1747684290616794491,-0.128
1747684290624481612,-0.145
1747684290632168733,-0.15
1747684290639855854,-0.168
1747684290647542975,-0.195
1747684290655230096,-0.18
1747684290662917217,-0.148
1747684290670604338,-0.145
1747684290678291459,-0.145
1747684290685978580,-0.131
1747684290693665701,-0.128
1747684290701352822,-0.136
1747684290709039943,-0.123
1747684290716727064,-0.11800000000000001
1747684290724414185,-0.116
1747684290732101306,-0.10300000000000001
1747684290739788427,-0.108
1747684290747475548,-0.126
1747684290755162669,-0.128
1747684290762849790,-0.121
1747684290770536911,-0.108
1747684290778224032,-0.11800000000000001
1747684290785911153,-0.133
1747684290793598274,-0.126
1747684290801285395,-0.111
1747684290808972516,-0.111
1747684290816659637,-0.123
1747684290824346758,-0.128
1747684290832033879,-0.121
1747684290839721000,-0.113
1747684290847408121,-0.111
1747684290855095242,-0.113
1747684290862782363,-0.116
1747684290870469484,-0.116
1747684290878156605,-0.116
1747684290885843726,-0.121
1747684290893530847,-0.123
1747684290901217968,-0.113
1747684290908905153,-0.096,81,728
1747684290916592274,-0.074
1747684290924279395,-0.066
1747684290931966516,-0.069
1747684290939653637,-0.064
1747684290947340758,-0.076
1747684290955027879,-0.101
1747684290962715000,-0.10300000000000001
1747684290970402121,-0.091
1747684290978089242,-0.08600000000000001
1747684290985776363,-0.084
1747684290993463484,-0.076
1747684291001150605,-0.076
1747684291008837726,-0.091
1747684291016524847,-0.098
1747684291024211968,0.049
1747684291031899089,0.47000000000000003
1747684291039586210,0.757
1747684291047273331,0.353
1747684291054960452,-0.371
1747684291062647573,-0.583
1747684291070334694,-0.35100000000000003
1747684291078021815,-0.249
1747684291085708936,-0.23900000000000002
1747684291093396057,-0.113
1747684291101083178,-0.042
1747684291108770299,-0.066
1747684291116457420,-0.054
1747684291124144541,-0.027
1747684291131831662,-0.039
1747684291139518783,-0.042
1747684291147205904,-0.024
1747684291154893025,-0.014
1747684291162580146,-0.009000000000000001
1747684291170267267,0.0
1747684291177954388,0.007
1747684291185641509,0.014
1747684291193328630,0.022
1747684291201015751,0.027
1747684291208702872,0.039
1747684291216389993,0.051000000000000004
1747684291224077114,0.054
1747684291231764235,0.056
1747684291239451356,0.07100000000000001
1747684291247138477,0.091
1747684291254825598,0.106
1747684291262512719,0.123
1747684291270199840,0.138
1747684291277886961,0.14300000000000002
1747684291285574082,0.145
1747684291293261203,0.14100000000000001
1747684291300948324,0.123
1747684291308635445,0.10300000000000001
1747684291316322566,0.08600000000000001
1747684291324009687,0.059000000000000004
1747684291331696808,0.019
1747684291339383929,-0.024
1747684291347071050,-0.059000000000000004
1747684291354758171,-0.094
1747684291362445292,-0.126
1747684291370132413,-0.148
1747684291377819534,-0.153
1747684291385506655,-0.145
1747684291393193776,-0.14300000000000002
1747684291400880897,-0.14300000000000002
1747684291408568018,-0.14100000000000001
1747684291416255139,-0.133
1747684291423942260,-0.126
1747684291431629381,-0.11800000000000001
1747684291439316502,-0.113
1747684291447003623,-0.098
1747684291454690744,-0.094
1747684291462377865,-0.096
1747684291470065050,-0.091
1747684291477752589,-0.08600000000000001
1747684291485440128,-0.084
1747684291493127667,-0.074
1747684291500815206,-0.079
1747684291508502745,-0.098
1747684291516190284,-0.096
1747684291523877823,-0.079
1747684291531565362,-0.079
1747684291539252901,-0.08600000000000001
1747684291546940440,-0.091
1747684291554627979,-0.091
1747684291562315518,-0.084
1747684291570003057,-0.08600000000000001
1747684291577690596,-0.091
1747684291585378135,-0.08600000000000001
1747684291593065674,-0.076
1747684291600753213,-0.079
1747684291608440752,-0.081
1747684291616128291,-0.079
1747684291623815830,-0.079
1747684291631503369,-0.076
1747684291639190908,-0.07100000000000001
1747684291646878447,-0.066
1747684291654565986,-0.074
1747684291662253525,-0.084
1747684291669941064,-0.089
1747684291677628603,-0.084
1747684291685316142,-0.074
1747684291693003681,-0.051000000000000004
1747684291700691220,-0.032
1747684291708378759,-0.029
1747684291716066298,-0.027
1747684291723753837,-0.022
1747684291731441376,-0.039
1747684291739128915,-0.061
1747684291746816454,-0.059000000000000004
1747684291754503993,-0.056
1747684291762191532,-0.059000000000000004
1747684291769879071,-0.051000000000000004
1747684291777566610,-0.044
1747684291785254149,-0.044
1747684291792941688,-0.059000000000000004
1747684291800629227,-0.066
1747684291808316766,0.091
1747684291816004305,0.514
1747684291823691844,0.811
1747684291831379383,0.482
1747684291839066922,-0.197
1747684291846754461,-0.482
1747684291854442000,-0.304
1747684291862129539,-0.18
1747684291869817078,-0.163
1747684291877504617,-0.076
1747684291885192156,-0.037
1747684291892879695,-0.069
1747684291900567234,-0.054
1747684291908254773,-0.024
1747684291915942312,-0.019
1747684291923629851,-0.014
1747684291931317390,-0.009000000000000001
1747684291939004929,-0.017
1747684291946692468,-0.009000000000000001
1747684291954380007,0.004
1747684291962067546,0.007
1747684291969755085,0.009000000000000001
1747684291977442624,0.017
1747684291985130163,0.024
1747684291992817702,0.037
1747684292000505241,0.047
1747684292008192780,0.049
1747684292015880319,0.056
1747684292023567858,0.076
1747684292031255469,0.091,81,761
1747684292038942590,0.098,,805
1747684292046629711,0.111
1747684292054316832,0.123
1747684292062003953,0.133
1747684292069691074,0.14100000000000001
1747684292077378195,0.14100000000000001
1747684292085065316,0.133
1747684292092752437,0.123
1747684292100439558,0.106
1747684292108126679,0.079
1747684292115813800,0.047
1747684292123500921,0.009000000000000001
1747684292131188042,-0.029
1747684292138875163,-0.059000000000000004
1747684292146562284,-0.079
1747684292154249405,-0.096
1747684292161936526,-0.10300000000000001
1747684292169623647,-0.108
1747684292177310768,-0.108
1747684292184997889,-0.106
1747684292192685010,-0.108
1747684292200372131,-0.106
1747684292208059252,-0.096
1747684292215746373,-0.089
1747684292223433494,-0.08600000000000001
1747684292231120615,-0.081
1747684292238807736,-0.081
1747684292246494857,-0.089
1747684292254181978,-0.081
1747684292261869099,-0.074
1747684292269556220,-0.076
1747684292277243341,-0.07100000000000001
1747684292284930462,-0.069
1747684292292617583,-0.081
1747684292300304704,-0.084
1747684292307991825,-0.081
1747684292315678946,-0.079
1747684292323366067,-0.074
1747684292331053188,-0.074
1747684292338740309,-0.084
1747684292346427430,-0.08600000000000001
1747684292354114551,-0.076
1747684292361801672,-0.074
1747684292369488793,-0.076
1747684292377175914,-0.07100000000000001
1747684292384863035,-0.069
1747684292392550156,-0.07100000000000001
1747684292400237277,-0.069
1747684292407924398,-0.066
1747684292415611519,-0.064
1747684292423298640,-0.059000000000000004
1747684292430985761,-0.064
1747684292438672882,-0.069
1747684292446360003,-0.061
1747684292454047124,-0.054
1747684292461734245,-0.061
1747684292469421366,-0.069
1747684292477108487,-0.064
1747684292484795608,-0.056
1747684292492482729,-0.054
1747684292500169850,-0.047
1747684292507856971,-0.029
1747684292515544092,-0.022
1747684292523231213,-0.019
1747684292530918334,-0.024
1747684292538605455,-0.039
1747684292546292576,-0.049
1747684292553979697,-0.047
1747684292561666818,-0.044
1747684292569353939,-0.047
1747684292577041060,-0.047
1747684292584728181,-0.049
1747684292592415366,-0.047,81,743
1747684292600102627,-0.054
1747684292607789888,-0.064
1747684292615477149,0.07100000000000001
1747684292623164410,0.47700000000000004
1747684292630851671,0.779
1747684292638538932,0.494
1747684292646226193,-0.14300000000000002
1747684292653913454,-0.45
1747684292661600715,-0.309
1747684292669287976,-0.185
1747684292676975237,-0.168
1747684292684662498,-0.091
1747684292692349759,-0.044
1747684292700037020,-0.061
1747684292707724281,-0.047
1747684292715411542,-0.024
1747684292723098803,-0.032
1747684292730786064,-0.032
1747684292738473325,-0.019
1747684292746160586,-0.019
1747684292753847847,-0.017
1747684292761535108,-0.004
1747684292769222369,-0.002
1747684292776909630,-0.002
1747684292784596891,0.002
1747684292792284152,0.019
1747684292799971413,0.034
1747684292807658674,0.039
1747684292815345935,0.037
1747684292823033196,0.044
1747684292830720457,0.064
1747684292838407718,0.079
1747684292846094979,0.091
1747684292853782240,0.108
1747684292861469501,0.116
1747684292869156762,0.11800000000000001
1747684292876844023,0.121
1747684292884531284,0.11800000000000001
1747684292892218545,0.108
1747684292899905806,0.101
1747684292907593067,0.094
1747684292915280328,0.076
1747684292922967589,0.029
1747684292930654850,-0.017
1747684292938342111,-0.039
1747684292946029372,-0.066
1747684292953716633,-0.101
1747684292961403894,-0.11800000000000001
1747684292969091155,-0.123
1747684292976778416,-0.133
1747684292984465677,-0.131
1747684292992152938,-0.121
1747684292999840199,-0.126
1747684293007527460,-0.131
1747684293015214721,-0.121
1747684293022901982,-0.113
1747684293030589243,-0.113
1747684293038276504,-0.106
1747684293045963765,-0.098
1747684293053651026,-0.108
1747684293061338287,-0.116
1747684293069025548,-0.098
1747684293076712809,-0.089
1747684293084400070,-0.106
1747684293092087331,-0.106
1747684293099774592,-0.094
1747684293107461853,-0.098
1747684293115149114,-0.101
1747684293122836375,-0.094
1747684293130523636,-0.094
1747684293138210897,-0.101
1747684293145898158,-0.10300000000000001
1747684293153585437,-0.094
1747684293161272837,-0.089
1747684293168960237,-0.091
1747684293176647637,-0.096
1747684293184335037,-0.096
1747684293192022437,-0.08600000000000001
1747684293199709837,-0.074
1747684293207397237,-0.07100000000000001
1747684293215084637,-0.089
1747684293222772037,-0.098
1747684293230459437,-0.081
1747684293238146837,-0.066
1747684293245834237,-0.074
1747684293253521637,-0.076
1747684293261209037,-0.066
1747684293268896437,-0.066
1747684293276583837,-0.076
1747684293284271237,-0.074
1747684293291958637,-0.066
1747684293299646037,-0.07100000000000001
1747684293307333437,-0.084
1747684293315020837,-0.081
1747684293322708237,-0.056
1747684293330395637,-0.029
1747684293338083037,-0.027
1747684293345770437,-0.037
1747684293353457837,-0.037
1747684293361145237,-0.034
1747684293368832637,-0.047
1747684293376520037,-0.064
1747684293384207437,-0.061
1747684293391894837,-0.051000000000000004
1747684293399582237,-0.056
1747684293407269637,-0.066
1747684293414957037,-0.066
1747684293422644437,-0.066
1747684293430331837,-0.061
1747684293438019237,0.027
1747684293445706637,0.361
1747684293453394037,0.729
1747684293461081437,0.556
1747684293468768837,-0.106
1747684293476456237,-0.494
1747684293484143637,-0.373
1747684293491831037,-0.23
1747684293499518437,-0.212
1747684293507205837,-0.11800000000000001
1747684293514893237,-0.039
1747684293522580637,-0.061
1747684293530268037,-0.056
1747684293537955437,-0.022
1747684293545642837,-0.022
1747684293553330237,-0.022
1747684293561017637,-0.007
1747684293568705037,-0.007
1747684293576392437,-0.012
1747684293584079837,-0.002
1747684293591767237,0.009000000000000001
1747684293599454637,0.012
1747684293607142037,0.024
1747684293614829437,0.029
1747684293622516837,0.024
1747684293630204237,0.032
1747684293637891637,0.049
1747684293645579037,0.064
1747684293653266437,0.081
1747684293660953837,0.096
1747684293668641237,0.111
1747684293676328637,0.116
1747684293684016037,0.11800000000000001
1747684293691703437,0.136
1747684293699390837,0.15
1747684293707078237,0.148
1747684293714765678,0.136,80,785
1747684293722452799,0.11800000000000001
1747684293730139920,0.101
1747684293737827041,0.089
1747684293745514162,0.061
1747684293753201283,0.019
1747684293760888404,-0.019
1747684293768575525,-0.059000000000000004
1747684293776262646,-0.094
1747684293783949767,-0.11800000000000001
1747684293791636888,-0.133
1747684293799324009,-0.14100000000000001
1747684293807011130,-0.138
1747684293814698251,-0.128
1747684293822385372,-0.123
1747684293830072493,-0.116
1747684293837759614,-0.111
1747684293845446735,-0.111
1747684293853133856,-0.101
1747684293860820977,-0.08600000000000001
1747684293868508098,-0.091
1747684293876195219,-0.094
1747684293883882340,-0.084
1747684293891569461,-0.079
1747684293899256582,-0.081
1747684293906943703,-0.081
1747684293914630824,-0.076
1747684293922317945,-0.074
1747684293930005066,-0.089
1747684293937692187,-0.098
1747684293945379308,-0.089
1747684293953066429,-0.084
1747684293960753550,-0.094
1747684293968440671,-0.094
1747684293976127792,-0.084
1747684293983814913,-0.089
1747684293991502034,-0.094
1747684293999189155,-0.084
1747684294006876276,-0.084
1747684294014563397,-0.091
1747684294022250518,-0.081
1747684294029937639,-0.079
1747684294037624760,-0.084
1747684294045311881,-0.076
1747684294052999002,-0.074
1747684294060686123,-0.074
1747684294068373244,-0.074
1747684294076060365,-0.079
1747684294083747486,-0.081
1747684294091434607,-0.074
1747684294099121728,-0.069
1747684294106808849,-0.074
1747684294114495970,-0.064
1747684294122183091,-0.039
1747684294129870212,-0.034
1747684294137557333,-0.037
1747684294145244454,-0.029
1747684294152931575,-0.037
1747684294160618696,-0.056
1747684294168305817,-0.061
1747684294175992938,-0.059000000000000004
1747684294183680059,-0.054
1747684294191367180,-0.051000000000000004
1747684294199054301,-0.054
1747684294206741422,-0.061
1747684294214428543,-0.066
1747684294222115664,-0.074
1747684294229802785,0.017
1747684294237489906,0.378
1747684294245177027,0.752
1747684294252864148,0.549
1747684294260551269,-0.136
1747684294268238390,-0.509
