time,ecg,hr,rr,marker
1747852091726060839,-0.032,92,616
1747852091733747194,-0.088
1747852091741433549,-0.14
1747852091749119904,-0.187
1747852091756806259,-0.221
1747852091764492614,-0.23800000000000002
1747852091772178969,-0.248
1747852091779865324,-0.246
1747852091787551679,-0.233
1747852091795238034,-0.221
1747852091802924389,-0.214
1747852091810610744,-0.199
1747852091818297099,-0.187
1747852091825983454,-0.184
1747852091833669809,-0.179
1747852091841356164,-0.167
1747852091849042519,-0.157
1747852091856728874,-0.164
1747852091864415229,-0.169
1747852091872101584,-0.167
1747852091879787939,-0.167
1747852091887474294,-0.169
1747852091895160649,-0.164
1747852091902847004,-0.164
1747852091910533359,-0.17200000000000001
1747852091918219714,-0.17200000000000001
1747852091925906069,-0.164
1747852091933592424,-0.162
1747852091941278779,-0.162
1747852091948965134,-0.164
1747852091956651489,-0.157
1747852091964337844,-0.155
1747852091972024199,-0.162
1747852091979710554,-0.164
1747852091987396909,-0.152
1747852091995083264,-0.128
1747852092002769619,-0.105
1747852092010455974,-0.1
1747852092018142329,-0.1
1747852092025828684,-0.10300000000000001
1747852092033515039,-0.123
1747852092041201394,-0.15
1747852092048887749,-0.155
1747852092056574104,-0.145
1747852092064260459,-0.137
1747852092071946814,-0.132
1747852092079633169,-0.132
1747852092087319524,-0.132
1747852092095005879,-0.132
1747852092102692234,-0.152
1747852092110378589,-0.214
1747852092118064944,-0.224
1747852092125751299,0.064
1747852092133437654,0.738
1747852092141124009,1.5130000000000001
1747852092148810364,1.713
1747852092156496719,0.659
1747852092164183074,-0.64
1747852092171869429,-0.585
1747852092179555784,-0.061
1747852092187242139,-0.194
1747852092194928494,-0.315
1747852092202614849,-0.164
1747852092210301204,-0.152
1747852092217987559,-0.201
1747852092225673914,-0.14200000000000002
1747852092233360269,-0.105
1747852092241046624,-0.11800000000000001
1747852092248732979,-0.096
1747852092256419334,-0.066
1747852092264105689,-0.054
1747852092271792044,-0.029
1747852092279478399,0.0
1747852092287164787,0.022
1747852092294850724,0.046
1747852092302536661,0.078
1747852092310222598,0.105
1747852092317908535,0.132
1747852092325594472,0.157
1747852092333280409,0.164
1747852092340966346,0.162
1747852092348652283,0.15
1747852092356338220,0.125
1747852092364024157,0.1
1747852092371710094,0.073
1747852092379396031,0.036000000000000004
1747852092387081968,-0.009000000000000001
1747852092394767905,-0.064
1747852092402453842,-0.12
1747852092410139779,-0.167
1747852092417825716,-0.199
1747852092425511653,-0.221
1747852092433197590,-0.231
1747852092440883527,-0.231
1747852092448569464,-0.221
1747852092456255401,-0.211
1747852092463941338,-0.201
1747852092471627275,-0.189
1747852092479313212,-0.182
1747852092486999149,-0.177
1747852092494685086,-0.17200000000000001
1747852092502371023,-0.164
1747852092510056960,-0.164
1747852092517742897,-0.162
1747852092525428834,-0.157
1747852092533114771,-0.157
1747852092540800708,-0.16
1747852092548486645,-0.16
1747852092556172582,-0.157
1747852092563858519,-0.157
1747852092571544456,-0.157
1747852092579230393,-0.155
1747852092586916330,-0.155
1747852092594602267,-0.155
1747852092602288204,-0.15
1747852092609974141,-0.145
1747852092617660078,-0.14200000000000002
1747852092625346015,-0.145
1747852092633031952,-0.15
1747852092640717889,-0.145
1747852092648403826,-0.128
1747852092656089763,-0.10300000000000001
1747852092663775700,-0.088
1747852092671461637,-0.088
1747852092679147574,-0.088
1747852092686833511,-0.096
1747852092694519448,-0.125
1747852092702205385,-0.15
1747852092709891322,-0.14200000000000002
1747852092717577259,-0.132
1747852092725263196,-0.132
1747852092732949133,-0.128
1747852092740635070,-0.11800000000000001
1747852092748321007,-0.11800000000000001
1747852092756006944,-0.125
1747852092763692881,-0.152
1747852092771378818,-0.20600000000000002
1747852092779064755,-0.17200000000000001
1747852092786750692,0.20600000000000002
1747852092794436629,0.92
1747852092802122566,1.6460000000000001
1747852092809808503,1.624
1747852092817494440,0.352
1747852092825180377,-0.745
1747852092832866314,-0.438
1747852092840552251,-0.032
1747852092848238213,-0.241,94,623
1747852092855924568,-0.275,,646
1747852092863610923,-0.128
1747852092871297278,-0.152
1747852092878983633,-0.177
1747852092886669988,-0.12
1747852092894356343,-0.108
1747852092902042698,-0.108
1747852092909729053,-0.073
1747852092917415408,-0.051000000000000004
1747852092925101763,-0.041
1747852092932788118,-0.007
1747852092940474473,0.029
1747852092948160828,0.051000000000000004
1747852092955847183,0.068
1747852092963533538,0.096
1747852092971219893,0.128
1747852092978906248,0.155
1747852092986592603,0.17200000000000001
1747852092994278958,0.182
1747852093001965313,0.177
1747852093009651668,0.16
1747852093017338023,0.137
1747852093025024378,0.11
1747852093032710733,0.073
1747852093040397088,0.034
1747852093048083443,-0.012
1747852093055769798,-0.066
1747852093063456153,-0.12
1747852093071142508,-0.17200000000000001
1747852093078828863,-0.209
1747852093086515218,-0.231
1747852093094201573,-0.241
1747852093101887928,-0.23600000000000002
1747852093109574283,-0.228
1747852093117260638,-0.219
1747852093124946993,-0.209
1747852093132633348,-0.196
1747852093140319703,-0.192
1747852093148006058,-0.189
1747852093155692413,-0.187
1747852093163378768,-0.184
1747852093171065123,-0.182
1747852093178751478,-0.179
1747852093186437833,-0.182
1747852093194124188,-0.182
1747852093201810543,-0.179
1747852093209496898,-0.177
1747852093217183253,-0.177
1747852093224869608,-0.179
1747852093232555963,-0.179
1747852093240242318,-0.179
1747852093247928673,-0.17400000000000002
1747852093255615028,-0.169
1747852093263301383,-0.169
1747852093270987738,-0.167
1747852093278674093,-0.162
1747852093286360448,-0.162
1747852093294046803,-0.162
1747852093301733158,-0.16
1747852093309419513,-0.152
1747852093317105868,-0.128
1747852093324792223,-0.091
1747852093332478578,-0.076
1747852093340164933,-0.081
1747852093347851288,-0.076
1747852093355537643,-0.093
1747852093363223998,-0.132
1747852093370910353,-0.145
1747852093378596708,-0.125
1747852093386283063,-0.12
1747852093393969418,-0.13
1747852093401655773,-0.135
1747852093409342165,-0.132
1747852093417028520,-0.137
1747852093424714875,-0.15
1747852093432401230,-0.189
1747852093440087585,-0.23600000000000002
1747852093447773940,-0.073
1747852093455460295,0.484
1747852093463146650,1.2670000000000001
1747852093470833005,1.7770000000000001
1747852093478519360,1.161
1747852093486205715,-0.273
1747852093493892070,-0.708
1747852093501578425,-0.192
1747852093509264780,-0.132
1747852093516951135,-0.307
1747852093524637490,-0.201
1747852093532323845,-0.14
1747852093540010200,-0.192
1747852093547696555,-0.162
1747852093555382910,-0.113
1747852093563069265,-0.11
1747852093570755620,-0.098
1747852093578441975,-0.083
1747852093586128330,-0.078
1747852093593814685,-0.066
1747852093601501040,-0.041
1747852093609187395,-0.024
1747852093616873750,-0.012
1747852093624560105,0.014
1747852093632246460,0.049
1747852093639932815,0.068
1747852093647619170,0.081
1747852093655305525,0.091
1747852093662991880,0.096
1747852093670678235,0.08600000000000001
1747852093678364590,0.064
1747852093686050945,0.041
1747852093693737300,0.012
1747852093701423655,-0.017
1747852093709110010,-0.041
1747852093716796365,-0.076
1747852093724482720,-0.125
1747852093732169075,-0.17400000000000002
1747852093739855430,-0.214
1747852093747541785,-0.241
1747852093755228140,-0.26
1747852093762914495,-0.265
1747852093770600850,-0.258
1747852093778287205,-0.251
1747852093785973560,-0.23800000000000002
1747852093793659915,-0.226
1747852093801346270,-0.214
1747852093809032625,-0.211
1747852093816718980,-0.20600000000000002
1747852093824405335,-0.194
1747852093832091690,-0.196
1747852093839778045,-0.199
1747852093847464400,-0.189
1747852093855150755,-0.189
1747852093862837110,-0.192
1747852093870523465,-0.187
1747852093878209820,-0.184
1747852093885896175,-0.182
1747852093893582530,-0.177
1747852093901268885,-0.177
1747852093908955240,-0.177
1747852093916641595,-0.184
1747852093924327950,-0.192
1747852093932014305,-0.187
1747852093939700660,-0.179
1747852093947387015,-0.182
1747852093955073370,-0.189
1747852093962759725,-0.182
1747852093970446113,-0.169,94,662
1747852093978132468,-0.15
1747852093985818823,-0.13
1747852093993505178,-0.13
1747852094001191533,-0.137
1747852094008877888,-0.145
1747852094016564243,-0.184
1747852094024250598,-0.219
1747852094031936953,-0.214
1747852094039623308,-0.194
1747852094047309663,-0.167
1747852094054996018,-0.135
1747852094062682373,-0.132
1747852094070368728,-0.157
1747852094078055083,-0.17400000000000002
1747852094085741438,-0.209
1747852094093427793,-0.265
1747852094101114148,-0.162
1747852094108800503,0.275
1747852094116486858,0.965
1747852094124173213,1.528
1747852094131859568,1.181
1747852094139545923,-0.093
1747852094147232278,-0.716
1747852094154918633,-0.322
1747852094162604988,-0.182
1747852094170291343,-0.329
1747852094177977698,-0.258
1747852094185664053,-0.199
1747852094193350408,-0.23800000000000002
1747852094201036763,-0.20600000000000002
1747852094208723118,-0.17400000000000002
1747852094216409473,-0.184
1747852094224095828,-0.155
1747852094231782183,-0.11
1747852094239468538,-0.11
1747852094247154893,-0.108
1747852094254841248,-0.078
1747852094262527603,-0.051000000000000004
1747852094270213958,-0.032
1747852094277900313,-0.014
1747852094285586668,0.002
1747852094293273023,0.019
1747852094300959378,0.049
1747852094308645733,0.076
1747852094316332088,0.076
1747852094324018443,0.066
1747852094331704798,0.046
1747852094339391153,0.022
1747852094347077508,0.007
1747852094354763863,-0.012
1747852094362450218,-0.049
1747852094370136573,-0.076
1747852094377822928,-0.105
1747852094385509283,-0.157
1747852094393195638,-0.224
1747852094400881993,-0.26
1747852094408568348,-0.243
1747852094416254703,-0.231
1747852094423941058,-0.258
1747852094431627413,-0.268
1747852094439313768,-0.251
1747852094447000123,-0.251
1747852094454686478,-0.253
1747852094462372833,-0.233
1747852094470059188,-0.221
1747852094477745543,-0.20600000000000002
1747852094485431898,-0.182
1747852094493118253,-0.184
1747852094500804608,-0.196
1747852094508490963,-0.189
1747852094516177318,-0.194
1747852094523863673,-0.20600000000000002
1747852094531550061,-0.196
1747852094539236416,-0.17400000000000002
1747852094546922771,-0.187
1747852094554609126,-0.211
1747852094562295481,-0.211
1747852094569981836,-0.187
1747852094577668191,-0.177
1747852094585354546,-0.189
1747852094593040901,-0.201
1747852094600727256,-0.194
1747852094608413611,-0.162
1747852094616099966,-0.123
1747852094623786321,-0.113
1747852094631472676,-0.11
1747852094639159031,-0.12
1747852094646845386,-0.16
1747852094654531741,-0.189
1747852094662218096,-0.17400000000000002
1747852094669904451,-0.157
1747852094677590806,-0.17200000000000001
1747852094685277161,-0.187
1747852094692963516,-0.17400000000000002
1747852094700649871,-0.164
1747852094708336226,-0.179
1747852094716022581,-0.201
1747852094723708936,-0.226
1747852094731395291,-0.147
1747852094739081646,0.273
1747852094746768001,0.997
1747852094754454356,1.592
1747852094762140711,1.314
1747852094769827066,0.041
1747852094777513421,-0.733
1747852094785199776,-0.381
1747852094792886131,-0.184
1747852094800572486,-0.34700000000000003
1747852094808258841,-0.251
1747852094815945196,-0.14200000000000002
1747852094823631551,-0.179
1747852094831317906,-0.16
1747852094839004261,-0.125
1747852094846690616,-0.135
1747852094854376971,-0.12
1747852094862063326,-0.061
1747852094869749681,-0.029
1747852094877436036,-0.044
1747852094885122391,-0.022
1747852094892808746,0.036000000000000004
1747852094900495101,0.073
1747852094908181456,0.093
1747852094915867811,0.098
1747852094923554166,0.098
1747852094931240521,0.15
1747852094938926876,0.192
1747852094946613231,0.14200000000000002
1747852094954299586,0.145
1747852094961985941,0.162
1747852094969672296,0.066
1747852094977358651,0.027
1747852094985045006,0.044
1747852094992731361,-0.007
1747852095000417716,-0.056
1747852095008104071,-0.066
1747852095015790426,-0.088
1747852095023476781,-0.157
1747852095031163136,-0.23800000000000002
1747852095038849491,-0.26
1747852095046535846,-0.23800000000000002
1747852095054222201,-0.199
1747852095061908556,-0.196
1747852095069594911,-0.226
1747852095077281266,-0.226
1747852095084967621,-0.251
1747852095092654009,-0.23600000000000002,93,659
1747852095100340434,-0.184,,665
1747852095108026859,-0.214
1747852095115713284,-0.20400000000000001
1747852095123399709,-0.137
1747852095131086134,-0.157
1747852095138772559,-0.199
1747852095146458984,-0.192
1747852095154145409,-0.164
1747852095161831834,-0.147
1747852095169518259,-0.15
1747852095177204684,-0.135
1747852095184891109,-0.164
1747852095192577534,-0.228
1747852095200263959,-0.187
1747852095207950384,-0.14200000000000002
1747852095215636809,-0.199
1747852095223323234,-0.219
1747852095231009659,-0.128
1747852095238696084,-0.078
1747852095246382509,-0.11800000000000001
1747852095254068934,-0.11800000000000001
1747852095261755359,-0.135
1747852095269441784,-0.179
1747852095277128209,-0.187
1747852095284814634,-0.219
1747852095292501059,-0.192
1747852095300187484,-0.088
1747852095307873909,-0.16
1747852095315560334,-0.329
1747852095323246759,-0.226
1747852095330933184,-0.096
1747852095338619609,-0.23800000000000002
1747852095346306034,-0.258
1747852095353992459,-0.012
1747852095361678884,0.366
1747852095369365309,1.031
1747852095377051734,1.6
1747852095384738159,1.1420000000000001
1747852095392424584,-0.059000000000000004
1747852095400111009,-0.6
1747852095407797434,-0.32
1747852095415483859,-0.137
1747852095423170284,-0.275
1747852095430856709,-0.322
1747852095438543134,-0.199
1747852095446229559,-0.137
1747852095453915984,-0.08600000000000001
1747852095461602409,-0.10300000000000001
1747852095469288834,-0.278
1747852095476975259,-0.265
1747852095484661684,-0.076
1747852095492348109,0.041
1747852095500034534,0.029
1747852095507720959,-0.177
1747852095515407384,-0.157
1747852095523093809,0.162
1747852095530780234,0.07100000000000001
1747852095538466659,-0.196
1747852095546153084,-0.019
1747852095553839509,0.135
1747852095561525934,0.1
1747852095569212359,0.167
1747852095576898784,0.177
1747852095584585209,0.091
1747852095592271634,0.012
1747852095599958059,0.039
1747852095607644484,-0.012
1747852095615330909,-0.20600000000000002
1747852095623017334,-0.145
1747852095630703759,-0.041
1747852095638390184,-0.17400000000000002
1747852095646076609,-0.147
1747852095653763040,-0.1,93,655
1747852095661449325,-0.376
1747852095669135610,-0.42
1747852095676821895,-0.137
1747852095684508180,-0.155
1747852095692194465,-0.246
1747852095699880750,-0.113
1747852095707567035,-0.209
1747852095715253320,-0.352
1747852095722939605,-0.12
1747852095730625890,-0.044
1747852095738312175,-0.23600000000000002
1747852095745998460,-0.179
1747852095753684745,-0.11800000000000001
1747852095761371030,-0.3
1747852095769057315,-0.251
1747852095776743600,-0.041
1747852095784429885,-0.137
1747852095792116170,-0.297
1747852095799802455,-0.28500000000000003
1747852095807488740,-0.241
1747852095815175025,-0.13
1747852095822861310,-0.10300000000000001
1747852095830547595,-0.265
1747852095838233880,-0.253
1747852095845920165,-0.113
1747852095853606450,-0.155
1747852095861292735,-0.20600000000000002
1747852095868979020,-0.145
1747852095876665305,-0.157
1747852095884351590,-0.192
1747852095892037875,-0.157
1747852095899724160,-0.157
1747852095907410445,-0.199
1747852095915096730,-0.187
1747852095922783015,-0.164
1747852095930469300,-0.253
1747852095938155585,-0.275
1747852095945841870,-0.16
1747852095953528155,-0.179
1747852095961214440,-0.251
1747852095968900725,0.014
1747852095976587010,0.667
1747852095984273295,1.3900000000000001
1747852095991959580,1.605
1747852095999645865,0.657
1747852096007332150,-0.612
1747852096015018435,-0.632
1747852096022704720,-0.12
1747852096030391005,-0.162
1747852096038077290,-0.258
1747852096045763575,-0.164
1747852096053449860,-0.081
1747852096061136145,-0.135
1747852096068822430,-0.20600000000000002
1747852096076508715,-0.076
1747852096084195000,0.036000000000000004
1747852096091881285,-0.08600000000000001
1747852096099567570,-0.20600000000000002
1747852096107253855,-0.078
1747852096114940140,0.024
1747852096122626425,-0.08600000000000001
1747852096130312710,-0.049
1747852096137998995,0.115
1747852096145685280,0.081
1747852096153371565,0.017
1747852096161057850,0.16
1747852096168744135,0.251
1747852096176430420,0.081
1747852096184116705,0.004
1747852096191802990,0.147
1747852096199489275,0.179
1747852096207175560,0.073
1747852096214861901,0.007
1747852096222548186,-0.044
1747852096230234471,-0.096
1747852096237920756,-0.091
1747852096245607041,-0.11
1747852096253293326,-0.192
1747852096260979611,-0.246
1747852096268665896,-0.258
1747852096276352181,-0.228
1747852096284038466,-0.23600000000000002
1747852096291724751,-0.334
1747852096299411036,-0.337
1747852096307097321,-0.219
1747852096314783606,-0.201
1747852096322469891,-0.194
1747852096330156176,-0.14
1747852096337842461,-0.278
1747852096345528746,-0.307
1747852096353215031,-0.081
1747852096360901316,-0.125
1747852096368587601,-0.28800000000000003
1747852096376273886,-0.14
1747852096383960171,-0.088
1747852096391646456,-0.263
1747852096399332741,-0.226
1747852096407019026,-0.11
1747852096414705311,-0.167
1747852096422391596,-0.23600000000000002
1747852096430077881,-0.17200000000000001
1747852096437764166,-0.098
1747852096445450451,-0.10300000000000001
1747852096453136736,-0.002
1747852096460823021,0.007
1747852096468509306,-0.228
1747852096476195591,-0.20400000000000001
1747852096483881876,-0.022
1747852096491568161,-0.096
1747852096499254446,-0.177
1747852096506940731,-0.132
1747852096514627016,-0.054
1747852096522313301,-0.17200000000000001
1747852096529999586,-0.41600000000000004
1747852096537685871,-0.302
1747852096545372156,-0.068
1747852096553058441,-0.1
1747852096560744726,-0.214
1747852096568431011,-0.324
1747852096576117296,-0.23600000000000002
1747852096583803581,0.162
1747852096591489866,0.667
1747852096599176151,1.248
1747852096606862436,1.449
1747852096614548721,0.541
1747852096622235006,-0.652
1747852096629921291,-0.713
1747852096637607576,-0.248
1747852096645293861,-0.26
1747852096652980146,-0.352
1747852096660666431,-0.263
1747852096668352716,-0.20600000000000002
1747852096676039001,-0.214
1747852096683725286,-0.28800000000000003
1747852096691411571,-0.27
1747852096699097856,-0.13
1747852096706784141,-0.137
1747852096714470426,-0.233
1747852096722156711,-0.177
1747852096729842996,-0.056
1747852096737529281,-0.009000000000000001
1747852096745215566,-0.049
1747852096752901851,-0.096
1747852096760588136,-0.041
1747852096768274421,0.056
1747852096775960766,0.098,92,631
1747852096783647051,0.1,,621
1747852096791333336,0.081
1747852096799019621,0.068
1747852096806705906,0.091
1747852096814392191,0.12
1747852096822078476,0.08600000000000001
1747852096829764761,-0.007
1747852096837451046,-0.041
1747852096845137331,-0.046
1747852096852823616,-0.083
1747852096860509901,-0.13
1747852096868196186,-0.221
1747852096875882471,-0.275
1747852096883568756,-0.219
1747852096891255041,-0.201
1747852096898941326,-0.258
1747852096906627611,-0.3
1747852096914313896,-0.327
1747852096922000181,-0.292
1747852096929686466,-0.246
1747852096937372751,-0.228
1747852096945059036,-0.179
1747852096952745321,-0.182
1747852096960431606,-0.20400000000000001
1747852096968117891,-0.169
1747852096975804176,-0.177
1747852096983490461,-0.17200000000000001
1747852096991176746,-0.091
1747852096998863031,-0.125
1747852097006549316,-0.233
1747852097014235601,-0.196
1747852097021921886,-0.113
1747852097029608171,-0.12
1747852097037294456,-0.17200000000000001
1747852097044980741,-0.199
1747852097052667026,-0.169
1747852097060353311,-0.135
1747852097068039596,-0.123
1747852097075725881,-0.16
1747852097083412166,-0.184
1747852097091098451,-0.132
1747852097098784736,-0.12
1747852097106471021,-0.132
1747852097114157306,-0.11800000000000001
1747852097121843591,-0.11
1747852097129529876,-0.115
1747852097137216161,-0.123
1747852097144902446,-0.11800000000000001
1747852097152588731,-0.123
1747852097160275016,-0.14200000000000002
1747852097167961301,-0.132
1747852097175647586,-0.1
1747852097183333871,-0.068
1747852097191020156,-0.105
1747852097198706441,-0.219
1747852097206392726,-0.20400000000000001
1747852097214079011,-0.093
1747852097221765296,0.019
1747852097229451581,0.40800000000000003
1747852097237137866,1.1520000000000001
1747852097244824151,1.713
1747852097252510436,1.1340000000000001
1747852097260196721,-0.28500000000000003
1747852097267883006,-0.733
1747852097275569291,-0.199
1747852097283255576,-0.115
1747852097290941861,-0.315
1747852097298628146,-0.196
1747852097306314431,-0.108
1747852097314000716,-0.216
1747852097321687001,-0.196
1747852097329373286,-0.066
1747852097337059627,-0.066
1747852097344746121,-0.135
1747852097352432615,-0.098
1747852097360119109,0.014
1747852097367805603,0.034
1747852097375492097,-0.059000000000000004
1747852097383178591,-0.024
1747852097390865085,0.098
1747852097398551579,0.061
1747852097406238073,0.046
1747852097413924567,0.169
1747852097421611061,0.216
1747852097429297555,0.182
1747852097436984049,0.224
1747852097444670543,0.26
1747852097452357037,0.20400000000000001
1747852097460043531,0.14200000000000002
1747852097467730025,0.10300000000000001
1747852097475416519,0.12
1747852097483103013,0.152
1747852097490789507,0.044
1747852097498476001,-0.135
1747852097506162495,-0.157
1747852097513848989,-0.098
1747852097521535483,-0.128
1747852097529221977,-0.177
1747852097536908471,-0.164
1747852097544594965,-0.128
1747852097552281459,-0.13
1747852097559967953,-0.184
1747852097567654447,-0.214
1747852097575340941,-0.164
1747852097583027435,-0.098
1747852097590713929,-0.081
1747852097598400423,-0.157
1747852097606086917,-0.216
1747852097613773411,-0.11800000000000001
1747852097621459905,-0.044
1747852097629146399,-0.113
1747852097636832893,-0.167
1747852097644519387,-0.128
1747852097652205881,-0.088
1747852097659892375,-0.137
1747852097667578869,-0.179
1747852097675265363,-0.113
1747852097682951857,-0.083
1747852097690638351,-0.132
1747852097698324845,-0.12
1747852097706011339,-0.07100000000000001
1747852097713697833,-0.105
1747852097721384327,-0.128
1747852097729070821,-0.083
1747852097736757315,-0.076
1747852097744443809,-0.11
1747852097752130303,-0.12
1747852097759816797,-0.08600000000000001
1747852097767503291,-0.061
1747852097775189785,-0.10300000000000001
1747852097782876279,-0.14
1747852097790562773,-0.068
1747852097798249267,0.014
1747852097805935761,-0.054
1747852097813622255,-0.13
1747852097821308749,-0.08600000000000001
1747852097828995243,-0.076
1747852097836681737,-0.128
1747852097844368231,-0.14200000000000002
1747852097852054725,-0.128
1747852097859741219,-0.1
1747852097867427713,-0.098
1747852097875114207,-0.123
1747852097882800701,-0.108
1747852097890487195,-0.096
1747852097898173749,-0.155,93,611
1747852097905859825,-0.231
1747852097913545901,-0.1
1747852097921231977,0.386
1747852097928918053,1.1
1747852097936604129,1.651
1747852097944290205,1.245
1747852097951976281,-0.088
1747852097959662357,-0.7010000000000001
1747852097967348433,-0.26
1747852097975034509,-0.113
1747852097982720585,-0.31
1747852097990406661,-0.23800000000000002
1747852097998092737,-0.13
1747852098005778813,-0.179
1747852098013464889,-0.182
1747852098021150965,-0.13
1747852098028837041,-0.123
1747852098036523117,-0.098
1747852098044209193,-0.046
1747852098051895269,-0.049
1747852098059581345,-0.059000000000000004
1747852098067267421,-0.014
1747852098074953497,0.014
1747852098082639573,0.017
1747852098090325649,0.064
1747852098098011725,0.11800000000000001
1747852098105697801,0.125
1747852098113383877,0.132
1747852098121069953,0.167
1747852098128756029,0.196
1747852098136442105,0.199
1747852098144128181,0.17200000000000001
1747852098151814257,0.152
1747852098159500333,0.152
1747852098167186409,0.137
1747852098174872485,0.088
1747852098182558561,0.027
1747852098190244637,-0.036000000000000004
1747852098197930713,-0.108
1747852098205616789,-0.16
1747852098213302865,-0.194
1747852098220988941,-0.214
1747852098228675017,-0.214
1747852098236361093,-0.219
1747852098244047169,-0.231
1747852098251733245,-0.219
1747852098259419321,-0.201
1747852098267105397,-0.194
1747852098274791473,-0.177
1747852098282477549,-0.167
1747852098290163625,-0.17400000000000002
1747852098297849701,-0.155
1747852098305535777,-0.125
1747852098313221853,-0.132
1747852098320907929,-0.145
1747852098328594005,-0.12
1747852098336280081,-0.11
1747852098343966157,-0.137
1747852098351652233,-0.152
1747852098359338309,-0.137
1747852098367024385,-0.132
1747852098374710461,-0.145
1747852098382396537,-0.13
1747852098390082613,-0.105
1747852098397768689,-0.115
1747852098405454765,-0.128
1747852098413140841,-0.113
1747852098420826917,-0.113
1747852098428512993,-0.132
1747852098436199069,-0.13
1747852098443885145,-0.108
1747852098451571221,-0.10300000000000001
1747852098459257349,-0.13
1747852098466943634,-0.155
1747852098474629919,-0.137
1747852098482316204,-0.113
1747852098490002489,-0.10300000000000001
1747852098497688774,-0.088
1747852098505375059,-0.078
1747852098513061344,-0.073
1747852098520747629,-0.056
1747852098528433914,-0.034
1747852098536120199,-0.036000000000000004
1747852098543806484,-0.064
1747852098551492769,-0.073
1747852098559179054,-0.073
1747852098566865339,-0.08600000000000001
1747852098574551624,-0.08600000000000001
1747852098582237909,-0.078
1747852098589924194,-0.08600000000000001
1747852098597610479,-0.098
1747852098605296764,-0.125
1747852098612983049,-0.192
1747852098620669334,-0.221
1747852098628355619,-0.004
1747852098636041904,0.59
1747852098643728189,1.3980000000000001
1747852098651414474,1.932
1747852098659100759,1.326
1747852098666787044,-0.155
1747852098674473329,-0.686
1747852098682159614,-0.209
1747852098689845899,-0.125
1747852098697532184,-0.297
1747852098705218469,-0.20400000000000001
1747852098712904754,-0.14
1747852098720591039,-0.184
1747852098728277324,-0.147
1747852098735963609,-0.1
1747852098743649894,-0.105
1747852098751336179,-0.091
1747852098759022464,-0.056
1747852098766708749,-0.036000000000000004
1747852098774395034,-0.007
1747852098782081319,0.024
1747852098789767604,0.056
1747852098797453889,0.093
1747852098805140174,0.128
1747852098812826459,0.157
1747852098820512744,0.192
1747852098828199029,0.231
1747852098835885314,0.278
1747852098843571599,0.315
1747852098851257884,0.32
1747852098858944169,0.3
1747852098866630454,0.275
1747852098874316739,0.23600000000000002
1747852098882003024,0.169
1747852098889689309,0.12
1747852098897375594,0.081
1747852098905061879,0.009000000000000001
1747852098912748164,-0.076
1747852098920434449,-0.135
1747852098928120734,-0.179
1747852098935807019,-0.211
1747852098943493304,-0.20600000000000002
1747852098951179589,-0.199
1747852098958865874,-0.179
1747852098966552159,-0.135
1747852098974238444,-0.125
1747852098981924729,-0.14
1747852098989611014,-0.128
1747852098997297299,-0.115
1747852099004983584,-0.12
1747852099012669869,-0.123
1747852099020356210,-0.115,94,615
1747852099028042913,-0.105,,641
1747852099035729616,-0.096
1747852099043416319,-0.096
1747852099051103022,-0.10300000000000001
1747852099058789725,-0.105
1747852099066476428,-0.105
1747852099074163131,-0.105
1747852099081849834,-0.1
1747852099089536537,-0.093
1747852099097223240,-0.096
1747852099104909943,-0.093
1747852099112596646,-0.088
1747852099120283349,-0.08600000000000001
1747852099127970052,-0.08600000000000001
1747852099135656755,-0.081
1747852099143343458,-0.076
1747852099151030161,-0.07100000000000001
1747852099158716864,-0.076
1747852099166403567,-0.076
1747852099174090270,-0.076
1747852099181776973,-0.081
1747852099189463676,-0.081
1747852099197150379,-0.068
1747852099204837082,-0.054
1747852099212523785,-0.044
1747852099220210488,-0.027
1747852099227897191,-0.012
1747852099235583894,-0.022
1747852099243270597,-0.041
1747852099250957300,-0.054
1747852099258644003,-0.054
1747852099266330706,-0.054
1747852099274017409,-0.061
1747852099281704112,-0.051000000000000004
1747852099289390815,-0.041
1747852099297077518,-0.046
1747852099304764221,-0.061
1747852099312450924,-0.093
1747852099320137627,-0.167
1747852099327824330,-0.169
1747852099335511033,0.184
1747852099343197736,0.9420000000000001
1747852099350884439,1.747
1747852099358571142,1.934
1747852099366257845,0.844
1747852099373944548,-0.516
1747852099381631251,-0.529
1747852099389317954,-0.032
1747852099397004657,-0.147
1747852099404691360,-0.253
1747852099412378063,-0.1
1747852099420064766,-0.08600000000000001
1747852099427751469,-0.128
1747852099435438172,-0.073
1747852099443124875,-0.036000000000000004
1747852099450811578,-0.044
1747852099458498281,-0.022
1747852099466184984,0.009000000000000001
1747852099473871687,0.027
1747852099481558390,0.051000000000000004
1747852099489245093,0.078
1747852099496931796,0.105
1747852099504618499,0.132
1747852099512305202,0.164
1747852099519991905,0.201
1747852099527678608,0.241
1747852099535365311,0.278
1747852099543052014,0.302
1747852099550738717,0.302
1747852099558425420,0.28800000000000003
1747852099566112123,0.268
1747852099573798826,0.246
1747852099581485593,0.216,95,692
1747852099589171878,0.164
1747852099596858163,0.098
1747852099604544448,0.022
1747852099612230733,-0.049
1747852099619917018,-0.113
1747852099627603303,-0.16
1747852099635289588,-0.187
1747852099642975873,-0.196
1747852099650662158,-0.209
1747852099658348443,-0.211
1747852099666034728,-0.199
1747852099673721013,-0.187
1747852099681407298,-0.184
1747852099689093583,-0.182
1747852099696779868,-0.17200000000000001
1747852099704466153,-0.16
1747852099712152438,-0.155
1747852099719838723,-0.157
1747852099727525008,-0.155
1747852099735211293,-0.14
1747852099742897578,-0.137
1747852099750583863,-0.145
1747852099758270148,-0.14
1747852099765956433,-0.135
1747852099773642718,-0.135
1747852099781329003,-0.135
1747852099789015288,-0.132
1747852099796701573,-0.128
1747852099804387858,-0.123
1747852099812074143,-0.125
1747852099819760428,-0.123
1747852099827446713,-0.113
1747852099835132998,-0.113
1747852099842819283,-0.11800000000000001
1747852099850505568,-0.115
1747852099858191853,-0.105
1747852099865878138,-0.1
1747852099873564423,-0.10300000000000001
1747852099881250708,-0.108
1747852099888936993,-0.113
1747852099896623278,-0.108
1747852099904309563,-0.093
1747852099911995848,-0.081
1747852099919682133,-0.078
1747852099927368418,-0.068
1747852099935054703,-0.049
1747852099942740988,-0.039
1747852099950427273,-0.056
1747852099958113558,-0.088
1747852099965799843,-0.105
1747852099973486128,-0.098
1747852099981172413,-0.088
1747852099988858698,-0.083
1747852099996544983,-0.083
1747852100004231268,-0.081
1747852100011917553,-0.083
1747852100019603838,-0.1
1747852100027290123,-0.15
1747852100034976408,-0.196
1747852100042662693,-0.017
1747852100050348978,0.593
1747852100058035263,1.42
1747852100065721548,1.917
1747852100073407833,1.292
1747852100081094118,-0.187
1747852100088780403,-0.706
1747852100096466688,-0.164
1747852100104152973,-0.068
1747852100111839258,-0.295
1747852100119525543,-0.20400000000000001
1747852100127211828,-0.115
1747852100134898113,-0.169
1747852100142584454,-0.14200000000000002
1747852100150270739,-0.081
1747852100157957024,-0.08600000000000001
1747852100165643309,-0.076
1747852100173329594,-0.041
1747852100181015879,-0.032
1747852100188702164,-0.017
1747852100196388449,0.014
1747852100204074734,0.041
1747852100211761019,0.068
1747852100219447304,0.105
1747852100227133589,0.14200000000000002
1747852100234819874,0.17400000000000002
1747852100242506159,0.201
1747852100250192444,0.23600000000000002
1747852100257878729,0.253
1747852100265565014,0.241
1747852100273251299,0.226
1747852100280937584,0.214
1747852100288623869,0.187
1747852100296310154,0.145
1747852100303996439,0.08600000000000001
1747852100311682724,0.007
1747852100319369009,-0.076
1747852100327055294,-0.145
1747852100334741579,-0.196
1747852100342427864,-0.233
1747852100350114149,-0.243
1747852100357800434,-0.241
1747852100365486719,-0.23800000000000002
1747852100373173004,-0.23600000000000002
1747852100380859289,-0.224
1747852100388545574,-0.20600000000000002
1747852100396231859,-0.209
1747852100403918144,-0.201
1747852100411604429,-0.182
1747852100419290714,-0.17200000000000001
1747852100426976999,-0.164
1747852100434663284,-0.155
1747852100442349569,-0.155
1747852100450035854,-0.167
1747852100457722139,-0.17400000000000002
1747852100465408424,-0.169
1747852100473094709,-0.162
1747852100480780994,-0.15
1747852100488467279,-0.137
1747852100496153564,-0.14200000000000002
1747852100503839849,-0.152
1747852100511526134,-0.15
1747852100519212419,-0.14200000000000002
1747852100526898704,-0.147
1747852100534584989,-0.155
1747852100542271274,-0.14200000000000002
1747852100549957559,-0.137
1747852100557643844,-0.14
1747852100565330129,-0.14
1747852100573016414,-0.137
1747852100580702699,-0.13
1747852100588388984,-0.128
1747852100596075269,-0.13
1747852100603761554,-0.123
1747852100611447839,-0.115
1747852100619134124,-0.11800000000000001
1747852100626820409,-0.12
1747852100634506694,-0.123
1747852100642192979,-0.123
1747852100649879264,-0.113
1747852100657565549,-0.093
1747852100665251834,-0.083
1747852100672938119,-0.078
1747852100680624404,-0.07100000000000001
1747852100688310689,-0.076
1747852100695996974,-0.098
1747852100703683315,-0.12,92,714
1747852100711369600,-0.128,,704
1747852100719055885,-0.123
1747852100726742170,-0.11800000000000001
1747852100734428455,-0.115
1747852100742114740,-0.115
1747852100749801025,-0.12
1747852100757487310,-0.132
1747852100765173595,-0.162
1747852100772859880,-0.233
1747852100780546165,-0.248
1747852100788232450,0.066
1747852100795918735,0.797
1747852100803605020,1.627
1747852100811291305,1.826
1747852100818977590,0.711
1747852100826663875,-0.637
1747852100834350160,-0.612
1747852100842036445,-0.11800000000000001
1747852100849722730,-0.248
1747852100857409015,-0.352
1747852100865095300,-0.209
1747852100872781585,-0.20400000000000001
1747852100880467870,-0.248
1747852100888154155,-0.189
1747852100895840440,-0.157
1747852100903526725,-0.164
1747852100911213010,-0.14
1747852100918899295,-0.11
1747852100926585580,-0.096
1747852100934271865,-0.07100000000000001
1747852100941958150,-0.039
1747852100949644435,-0.012
1747852100957330720,0.017
1747852100965017005,0.054
1747852100972703290,0.088
1747852100980389575,0.123
1747852100988075860,0.155
1747852100995762145,0.17400000000000002
1747852101003448430,0.182
1747852101011134715,0.179
1747852101018821000,0.167
1747852101026507285,0.14200000000000002
1747852101034193570,0.115
1747852101041879855,0.076
1747852101049566140,0.022
1747852101057252425,-0.046
1747852101064938710,-0.11
1747852101072624995,-0.167
1747852101080311280,-0.214
1747852101087997565,-0.246
1747852101095683850,-0.26
1747852101103370135,-0.263
1747852101111056420,-0.258
1747852101118742705,-0.248
1747852101126428990,-0.23600000000000002
1747852101134115275,-0.221
1747852101141801560,-0.209
1747852101149487845,-0.199
1747852101157174130,-0.194
1747852101164860415,-0.192
1747852101172546700,-0.187
1747852101180232985,-0.17400000000000002
1747852101187919270,-0.155
1747852101195605555,-0.145
1747852101203291840,-0.147
1747852101210978125,-0.147
1747852101218664410,-0.14
1747852101226350695,-0.14
1747852101234036980,-0.14
1747852101241723265,-0.137
1747852101249409550,-0.132
1747852101257095835,-0.13
1747852101264782176,-0.125
1747852101272468461,-0.123
1747852101280154746,-0.115
1747852101287841031,-0.098
1747852101295527316,-0.076
1747852101303213601,-0.068
1747852101310899886,-0.061
1747852101318586171,-0.051000000000000004
1747852101326272456,-0.046
1747852101333958741,-0.044
1747852101341645026,-0.036000000000000004
1747852101349331311,-0.034
1747852101357017596,-0.032
1747852101364703881,-0.032
1747852101372390166,-0.039
1747852101380076451,-0.049
1747852101387762736,-0.041
1747852101395449021,-0.027
1747852101403135306,-0.017
1747852101410821591,-0.012
1747852101418507876,-0.004
1747852101426194161,0.007
1747852101433880446,0.002
1747852101441566731,-0.022
1747852101449253016,-0.051000000000000004
1747852101456939301,-0.056
1747852101464625586,-0.049
1747852101472311871,-0.049
1747852101479998156,-0.046
1747852101487684441,-0.041
1747852101495370726,-0.044
1747852101503057011,-0.054
1747852101510743296,-0.081
1747852101518429581,-0.147
1747852101526115866,-0.162
1747852101533802151,0.135
1747852101541488436,0.8320000000000001
1747852101549174721,1.6320000000000001
1747852101556861006,1.851
1747852101564547291,0.79
1747852101572233576,-0.544
1747852101579919861,-0.524
1747852101587606146,-0.017
1747852101595292431,-0.145
1747852101602978716,-0.263
1747852101610665001,-0.11800000000000001
1747852101618351286,-0.108
1747852101626037571,-0.157
1747852101633723856,-0.108
1747852101641410141,-0.076
1747852101649096426,-0.083
1747852101656782711,-0.064
1747852101664468996,-0.036000000000000004
1747852101672155281,-0.024
1747852101679841566,-0.004
1747852101687527851,0.024
1747852101695214136,0.051000000000000004
1747852101702900421,0.073
1747852101710586706,0.096
1747852101718272991,0.125
1747852101725959276,0.157
1747852101733645561,0.182
1747852101741331846,0.199
1747852101749018131,0.201
1747852101756704416,0.199
1747852101764390701,0.187
1747852101772076986,0.162
1747852101779763271,0.13
1747852101787449556,0.093
1747852101795135841,0.046
1747852101802822126,-0.014
1747852101810508411,-0.076
1747852101818194696,-0.132
1747852101825881037,-0.182,91,710
1747852101833567322,-0.209
1747852101841253607,-0.211
1747852101848939892,-0.209
1747852101856626177,-0.214
1747852101864312462,-0.211
1747852101871998747,-0.201
1747852101879685032,-0.192
1747852101887371317,-0.184
1747852101895057602,-0.177
1747852101902743887,-0.17200000000000001
1747852101910430172,-0.17200000000000001
1747852101918116457,-0.167
1747852101925802742,-0.16
1747852101933489027,-0.155
1747852101941175312,-0.164
1747852101948861597,-0.17400000000000002
1747852101956547882,-0.169
1747852101964234167,-0.164
1747852101971920452,-0.162
1747852101979606737,-0.155
1747852101987293022,-0.152
1747852101994979307,-0.155
1747852102002665592,-0.15
1747852102010351877,-0.147
1747852102018038162,-0.16
1747852102025724447,-0.16
1747852102033410732,-0.147
1747852102041097017,-0.14
1747852102048783302,-0.135
1747852102056469587,-0.12
1747852102064155872,-0.105
1747852102071842157,-0.1
1747852102079528442,-0.096
1747852102087214727,-0.093
1747852102094901012,-0.10300000000000001
1747852102102587297,-0.11800000000000001
1747852102110273582,-0.11800000000000001
1747852102117959867,-0.11
1747852102125646152,-0.108
1747852102133332437,-0.093
1747852102141018722,-0.066
1747852102148705007,-0.051000000000000004
1747852102156391292,-0.039
1747852102164077577,-0.022
1747852102171763862,-0.027
1747852102179450147,-0.059000000000000004
1747852102187136432,-0.08600000000000001
1747852102194822717,-0.081
1747852102202509002,-0.073
1747852102210195287,-0.081
1747852102217881572,-0.098
1747852102225567857,-0.10300000000000001
1747852102233254142,-0.1
1747852102240940427,-0.108
1747852102248626712,-0.15
1747852102256312997,-0.221
1747852102263999282,-0.194
1747852102271685567,0.196
1747852102279371852,0.967
1747852102287058137,1.698
1747852102294744422,1.649
1747852102302430707,0.406
1747852102310116992,-0.6890000000000001
1747852102317803277,-0.443
1747852102325489562,-0.044
1747852102333175847,-0.221
1747852102340862132,-0.246
1747852102348548417,-0.108
1747852102356234702,-0.137
1747852102363920987,-0.164
1747852102371607272,-0.11
1747852102379293557,-0.096
1747852102386979898,-0.093
1747852102394666183,-0.051000000000000004
1747852102402352468,-0.024
1747852102410038753,-0.014
1747852102417725038,0.007
1747852102425411323,0.029
1747852102433097608,0.046
1747852102440783893,0.088
1747852102448470178,0.132
1747852102456156463,0.155
1747852102463842748,0.179
1747852102471529033,0.214
1747852102479215318,0.216
1747852102486901603,0.20400000000000001
1747852102494587888,0.199
1747852102502274173,0.182
1747852102509960458,0.147
1747852102517646743,0.123
1747852102525333028,0.088
1747852102533019313,0.032
1747852102540705598,-0.029
1747852102548391883,-0.091
1747852102556078168,-0.147
1747852102563764453,-0.192
1747852102571450738,-0.211
1747852102579137023,-0.214
1747852102586823308,-0.224
1747852102594509593,-0.233
1747852102602195878,-0.228
1747852102609882163,-0.221
1747852102617568448,-0.214
1747852102625254733,-0.20400000000000001
1747852102632941018,-0.201
1747852102640627303,-0.187
1747852102648313588,-0.17400000000000002
1747852102655999873,-0.182
1747852102663686158,-0.182
1747852102671372443,-0.164
1747852102679058728,-0.155
1747852102686745013,-0.164
1747852102694431298,-0.167
1747852102702117583,-0.155
1747852102709803868,-0.15
1747852102717490153,-0.155
1747852102725176438,-0.155
1747852102732862723,-0.155
1747852102740549008,-0.157
1747852102748235293,-0.162
1747852102755921578,-0.162
1747852102763607863,-0.147
1747852102771294148,-0.135
1747852102778980433,-0.137
1747852102786666718,-0.14
1747852102794353003,-0.132
1747852102802039288,-0.128
1747852102809725573,-0.123
1747852102817411858,-0.123
1747852102825098143,-0.123
1747852102832784428,-0.125
1747852102840470713,-0.123
1747852102848156998,-0.11
1747852102855843283,-0.088
1747852102863529568,-0.068
1747852102871215853,-0.061
1747852102878902138,-0.046
1747852102886588423,-0.056
1747852102894274708,-0.10300000000000001
1747852102901960993,-0.125
1747852102909647278,-0.11
1747852102917333563,-0.1
1747852102925019848,-0.1
1747852102932706133,-0.093
1747852102940392418,-0.088
1747852102948078759,-0.093,90,743
1747852102955765114,-0.11
1747852102963451469,-0.15
1747852102971137824,-0.219
1747852102978824179,-0.169
1747852102986510534,0.297
1747852102994196889,1.102
1747852103001883244,1.723
1747852103009569599,1.437
1747852103017255954,0.12
1747852103024942309,-0.721
1747852103032628664,-0.337
1747852103040315019,-0.068
1747852103048001374,-0.265
1747852103055687729,-0.231
1747852103063374084,-0.128
1747852103071060439,-0.177
1747852103078746794,-0.17400000000000002
1747852103086433149,-0.115
1747852103094119504,-0.113
1747852103101805859,-0.113
1747852103109492214,-0.081
1747852103117178569,-0.064
1747852103124864924,-0.056
1747852103132551279,-0.029
1747852103140237634,-0.002
1747852103147923989,0.017
1747852103155610344,0.044
1747852103163296699,0.073
1747852103170983054,0.1
1747852103178669409,0.125
1747852103186355764,0.14200000000000002
1747852103194042119,0.15
1747852103201728474,0.14200000000000002
1747852103209414829,0.13
1747852103217101184,0.108
1747852103224787539,0.078
1747852103232473894,0.051000000000000004
1747852103240160249,0.017
1747852103247846604,-0.036000000000000004
1747852103255532959,-0.093
1747852103263219314,-0.14
1747852103270905669,-0.182
1747852103278592024,-0.214
1747852103286278379,-0.233
1747852103293964734,-0.243
1747852103301651089,-0.241
1747852103309337444,-0.233
1747852103317023799,-0.226
1747852103324710154,-0.219
1747852103332396509,-0.209
1747852103340082864,-0.201
1747852103347769219,-0.196
1747852103355455574,-0.192
1747852103363141929,-0.187
1747852103370828284,-0.182
1747852103378514639,-0.177
1747852103386200994,-0.169
1747852103393887349,-0.167
1747852103401573704,-0.157
1747852103409260059,-0.145
1747852103416946414,-0.14200000000000002
1747852103424632769,-0.14200000000000002
1747852103432319124,-0.14200000000000002
1747852103440005479,-0.145
1747852103447691834,-0.157
1747852103455378189,-0.162
1747852103463064544,-0.162
1747852103470750899,-0.162
1747852103478437254,-0.162
1747852103486123609,-0.16
1747852103493809964,-0.157
1747852103501496319,-0.152
1747852103509182711,-0.14200000000000002
1747852103516869345,-0.132
1747852103524555979,-0.135
1747852103532242613,-0.145
1747852103539929247,-0.15
1747852103547615881,-0.152
1747852103555302515,-0.152
1747852103562989149,-0.145
1747852103570675783,-0.132
1747852103578362417,-0.125
1747852103586049051,-0.11800000000000001
1747852103593735685,-0.10300000000000001
1747852103601422319,-0.098
1747852103609108953,-0.123
1747852103616795587,-0.152
1747852103624482221,-0.152
1747852103632168855,-0.14
1747852103639855489,-0.137
1747852103647542123,-0.137
1747852103655228757,-0.135
1747852103662915391,-0.132
1747852103670602025,-0.14200000000000002
1747852103678288659,-0.179
1747852103685975293,-0.251
1747852103693661927,-0.231
1747852103701348561,0.155
1747852103709035195,0.908
1747852103716721829,1.6440000000000001
1747852103724408463,1.629
1747852103732095097,0.398
1747852103739781731,-0.728
1747852103747468365,-0.487
1747852103755154999,-0.073
1747852103762841633,-0.27
1747852103770528267,-0.322
1747852103778214901,-0.177
1747852103785901535,-0.199
1747852103793588169,-0.228
1747852103801274803,-0.169
1747852103808961437,-0.147
1747852103816648071,-0.15
1747852103824334705,-0.11800000000000001
1747852103832021339,-0.091
1747852103839707973,-0.076
1747852103847394607,-0.049
1747852103855081241,-0.022
1747852103862767875,0.0
1747852103870454509,0.024
1747852103878141143,0.059000000000000004
1747852103885827777,0.088
1747852103893514411,0.115
1747852103901201045,0.137
1747852103908887679,0.15
1747852103916574313,0.152
1747852103924260947,0.14
1747852103931947581,0.12
1747852103939634215,0.096
1747852103947320849,0.066
1747852103955007483,0.032
1747852103962694117,-0.014
1747852103970380751,-0.076
1747852103978067385,-0.135
1747852103985754019,-0.182
1747852103993440653,-0.221
1747852104001127287,-0.251
1747852104008813921,-0.263
1747852104016500555,-0.263
1747852104024187189,-0.258
1747852104031873823,-0.248
1747852104039560457,-0.23600000000000002
1747852104047247091,-0.226
1747852104054933725,-0.219
1747852104062620359,-0.211
1747852104070307003,-0.20400000000000001,88,746
1747852104077993288,-0.199,,736
1747852104085679573,-0.194
1747852104093365858,-0.189
1747852104101052143,-0.187
1747852104108738428,-0.184
1747852104116424713,-0.184
1747852104124110998,-0.184
1747852104131797283,-0.182
1747852104139483568,-0.179
1747852104147169853,-0.177
1747852104154856138,-0.179
1747852104162542423,-0.182
1747852104170228708,-0.182
1747852104177914993,-0.179
1747852104185601278,-0.177
1747852104193287563,-0.17400000000000002
1747852104200973848,-0.169
1747852104208660133,-0.164
1747852104216346418,-0.164
1747852104224032703,-0.162
1747852104231718988,-0.155
1747852104239405273,-0.147
1747852104247091558,-0.145
1747852104254777843,-0.14200000000000002
1747852104262464128,-0.147
1747852104270150413,-0.157
1747852104277836698,-0.152
1747852104285522983,-0.135
1747852104293209268,-0.115
1747852104300895553,-0.108
1747852104308581838,-0.1
1747852104316268123,-0.088
1747852104323954408,-0.081
1747852104331640693,-0.1
1747852104339326978,-0.128
1747852104347013263,-0.132
1747852104354699548,-0.123
1747852104362385833,-0.11800000000000001
1747852104370072118,-0.113
1747852104377758403,-0.108
1747852104385444688,-0.105
1747852104393130973,-0.11800000000000001
1747852104400817258,-0.15
1747852104408503543,-0.214
1747852104416189828,-0.216
1747852104423876113,0.11
1747852104431562398,0.834
1747852104439248683,1.619
1747852104446934968,1.75
1747852104454621253,0.61
1747852104462307538,-0.644
1747852104469993823,-0.529
1747852104477680108,-0.054
1747852104485366393,-0.216
1747852104493052678,-0.305
1747852104500738963,-0.155
1747852104508425248,-0.162
1747852104516111533,-0.20600000000000002
1747852104523797818,-0.147
1747852104531484103,-0.115
1747852104539170388,-0.123
1747852104546856673,-0.098
1747852104554542958,-0.073
1747852104562229243,-0.059000000000000004
1747852104569915528,-0.029
1747852104577601813,-0.004
1747852104585288098,0.017
1747852104592974383,0.054
1747852104600660668,0.088
1747852104608346953,0.113
1747852104616033238,0.14
1747852104623719523,0.164
1747852104631405864,0.184,87,713
1747852104639092149,0.192
1747852104646778434,0.182
1747852104654464719,0.16
1747852104662151004,0.137
1747852104669837289,0.105
1747852104677523574,0.066
1747852104685209859,0.022
1747852104692896144,-0.034
1747852104700582429,-0.096
1747852104708268714,-0.147
1747852104715954999,-0.187
1747852104723641284,-0.211
1747852104731327569,-0.226
1747852104739013854,-0.233
1747852104746700139,-0.233
1747852104754386424,-0.226
1747852104762072709,-0.221
1747852104769758994,-0.216
1747852104777445279,-0.201
1747852104785131564,-0.192
1747852104792817849,-0.189
1747852104800504134,-0.182
1747852104808190419,-0.17400000000000002
1747852104815876704,-0.169
1747852104823562989,-0.162
1747852104831249274,-0.16
1747852104838935559,-0.164
1747852104846621844,-0.162
1747852104854308129,-0.157
1747852104861994414,-0.162
1747852104869680699,-0.164
1747852104877366984,-0.155
1747852104885053269,-0.145
1747852104892739554,-0.147
1747852104900425839,-0.14200000000000002
1747852104908112124,-0.14200000000000002
1747852104915798409,-0.147
1747852104923484694,-0.14200000000000002
1747852104931170979,-0.137
1747852104938857264,-0.14
1747852104946543549,-0.135
1747852104954229834,-0.125
1747852104961916119,-0.12
1747852104969602404,-0.125
1747852104977288689,-0.12
1747852104984974974,-0.105
1747852104992661259,-0.11800000000000001
1747852105000347544,-0.14
1747852105008033829,-0.13
1747852105015720114,-0.098
1747852105023406399,-0.076
1747852105031092684,-0.073
1747852105038778969,-0.073
1747852105046465254,-0.076
1747852105054151539,-0.08600000000000001
1747852105061837824,-0.10300000000000001
1747852105069524109,-0.115
1747852105077210394,-0.113
1747852105084896679,-0.113
1747852105092582964,-0.13
1747852105100269249,-0.132
1747852105107955534,-0.108
1747852105115641819,-0.12
1747852105123328104,-0.17200000000000001
1747852105131014389,-0.219
1747852105138700674,-0.253
1747852105146386959,-0.10300000000000001
1747852105154073244,0.462
1747852105161759529,1.23
1747852105169445814,1.703
1747852105177132099,1.147
1747852105184818384,-0.233
1747852105192504725,-0.716
1747852105200191010,-0.224
1747852105207877295,-0.17200000000000001
1747852105215563580,-0.354
1747852105223249865,-0.23600000000000002
1747852105230936150,-0.184
1747852105238622435,-0.243
1747852105246308720,-0.196
1747852105253995005,-0.147
1747852105261681290,-0.155
1747852105269367575,-0.14200000000000002
1747852105277053860,-0.123
1747852105284740145,-0.12
1747852105292426430,-0.1
1747852105300112715,-0.068
1747852105307799000,-0.039
1747852105315485285,0.002
1747852105323171570,0.034
1747852105330857855,0.044
1747852105338544140,0.076
1747852105346230425,0.11
1747852105353916710,0.128
1747852105361602995,0.135
1747852105369289280,0.128
1747852105376975565,0.125
1747852105384661850,0.123
1747852105392348135,0.076
1747852105400034420,0.032
1747852105407720705,0.0
1747852105415406990,-0.046
1747852105423093275,-0.093
1747852105430779560,-0.14
1747852105438465845,-0.189
1747852105446152130,-0.224
1747852105453838415,-0.246
1747852105461524700,-0.263
1747852105469210985,-0.26
1747852105476897270,-0.241
1747852105484583555,-0.23600000000000002
1747852105492269840,-0.241
1747852105499956125,-0.224
1747852105507642410,-0.201
1747852105515328695,-0.189
1747852105523014980,-0.182
1747852105530701265,-0.182
1747852105538387550,-0.182
1747852105546073835,-0.177
1747852105553760120,-0.177
1747852105561446405,-0.17400000000000002
1747852105569132690,-0.169
1747852105576818975,-0.169
1747852105584505260,-0.17400000000000002
1747852105592191545,-0.17200000000000001
1747852105599877830,-0.162
1747852105607564115,-0.162
1747852105615250400,-0.16
1747852105622936685,-0.16
1747852105630622970,-0.162
1747852105638309255,-0.155
1747852105645995540,-0.145
1747852105653681825,-0.147
1747852105661368110,-0.145
1747852105669054395,-0.147
1747852105676740680,-0.155
1747852105684426965,-0.147
1747852105692113250,-0.14
1747852105699799535,-0.128
1747852105707485820,-0.108
1747852105715172105,-0.10300000000000001
1747852105722858390,-0.093
1747852105730544675,-0.078
1747852105738230960,-0.093
1747852105745917245,-0.123
1747852105753603586,-0.128,86,717
1747852105761289871,-0.123,,724
1747852105768976156,-0.11800000000000001
1747852105776662441,-0.108
1747852105784348726,-0.108
1747852105792035011,-0.11
1747852105799721296,-0.123
1747852105807407581,-0.164
1747852105815093866,-0.23600000000000002
1747852105822780151,-0.275
1747852105830466436,-0.059000000000000004
1747852105838152721,0.6
1747852105845839006,1.385
1747852105853525291,1.6540000000000001
1747852105861211576,0.8240000000000001
1747852105868897861,-0.46
1747852105876584146,-0.681
1747852105884270431,-0.226
1747852105891956716,-0.221
1747852105899643001,-0.315
1747852105907329286,-0.199
1747852105915015571,-0.177
1747852105922701856,-0.209
1747852105930388141,-0.162
1747852105938074426,-0.11800000000000001
1747852105945760711,-0.096
1747852105953446996,-0.073
1747852105961133281,-0.078
1747852105968819566,-0.066
1747852105976505851,-0.004
1747852105984192136,-0.007
1747852105991878421,-0.029
1747852105999564706,0.034
1747852106007250991,0.091
1747852106014937276,0.10300000000000001
1747852106022623561,0.14
1747852106030309846,0.184
1747852106037996131,0.209
1747852106045682416,0.214
1747852106053368701,0.196
1747852106061054986,0.177
1747852106068741271,0.155
1747852106076427556,0.11
1747852106084113841,0.07100000000000001
1747852106091800126,0.036000000000000004
1747852106099486411,-0.024
1747852106107172696,-0.1
1747852106114858981,-0.164
1747852106122545266,-0.214
1747852106130231551,-0.253
1747852106137917836,-0.275
1747852106145604121,-0.28800000000000003
1747852106153290406,-0.28500000000000003
1747852106160976691,-0.265
1747852106168662976,-0.256
1747852106176349261,-0.256
1747852106184035546,-0.241
1747852106191721831,-0.224
1747852106199408116,-0.224
1747852106207094401,-0.226
1747852106214780686,-0.216
1747852106222466971,-0.209
1747852106230153256,-0.20600000000000002
1747852106237839541,-0.196
1747852106245525826,-0.194
1747852106253212111,-0.194
1747852106260898396,-0.189
1747852106268584681,-0.179
1747852106276270966,-0.179
1747852106283957251,-0.192
1747852106291643536,-0.20400000000000001
1747852106299329821,-0.194
1747852106307016106,-0.184
1747852106314702447,-0.182
1747852106322388732,-0.177
1747852106330075017,-0.177
1747852106337761302,-0.182
1747852106345447587,-0.182
1747852106353133872,-0.17400000000000002
1747852106360820157,-0.167
1747852106368506442,-0.15
1747852106376192727,-0.135
1747852106383879012,-0.125
1747852106391565297,-0.11800000000000001
1747852106399251582,-0.10300000000000001
1747852106406937867,-0.113
1747852106414624152,-0.14200000000000002
1747852106422310437,-0.145
1747852106429996722,-0.125
1747852106437683007,-0.12
1747852106445369292,-0.12
1747852106453055577,-0.11
1747852106460741862,-0.1
1747852106468428147,-0.105
1747852106476114432,-0.123
1747852106483800717,-0.17200000000000001
1747852106491487002,-0.194
1747852106499173287,0.081
1747852106506859572,0.782
1747852106514545857,1.518
1747852106522232142,1.6460000000000001
1747852106529918427,0.6990000000000001
1747852106537604712,-0.507
1747852106545290997,-0.5730000000000001
1747852106552977282,-0.11
1747852106560663567,-0.147
1747852106568349852,-0.221
1747852106576036137,-0.10300000000000001
1747852106583722422,-0.098
1747852106591408707,-0.13
1747852106599094992,-0.073
1747852106606781277,-0.036000000000000004
1747852106614467562,-0.032
1747852106622153847,-0.009000000000000001
1747852106629840132,0.007
1747852106637526417,0.012
1747852106645212702,0.036000000000000004
1747852106652898987,0.066
1747852106660585272,0.1
1747852106668271557,0.15
1747852106675957842,0.187
1747852106683644127,0.214
1747852106691330412,0.248
1747852106699016697,0.278
1747852106706702982,0.295
1747852106714389267,0.305
1747852106722075552,0.28800000000000003
1747852106729761837,0.258
1747852106737448122,0.231
1747852106745134407,0.194
1747852106752820692,0.147
1747852106760506977,0.096
1747852106768193262,0.027
1747852106775879547,-0.046
1747852106783565832,-0.105
1747852106791252117,-0.16
1747852106798938402,-0.199
1747852106806624687,-0.209
1747852106814310972,-0.201
1747852106821997257,-0.199
1747852106829683542,-0.199
1747852106837369827,-0.196
1747852106845056112,-0.184
1747852106852742397,-0.179
1747852106860428682,-0.167
1747852106868114967,-0.14200000000000002
1747852106875801312,-0.13,86,726
1747852106883487597,-0.125
1747852106891173882,-0.115
1747852106898860167,-0.12
1747852106906546452,-0.12
1747852106914232737,-0.108
1747852106921919022,-0.108
1747852106929605307,-0.115
1747852106937291592,-0.11
1747852106944977877,-0.105
1747852106952664162,-0.115
1747852106960350447,-0.115
1747852106968036732,-0.10300000000000001
1747852106975723017,-0.1
1747852106983409302,-0.105
1747852106991095587,-0.105
1747852106998781872,-0.10300000000000001
1747852107006468157,-0.105
1747852107014154442,-0.1
1747852107021840727,-0.088
1747852107029527012,-0.081
1747852107037213297,-0.066
1747852107044899582,-0.046
1747852107052585867,-0.049
1747852107060272152,-0.076
1747852107067958437,-0.105
1747852107075644722,-0.108
1747852107083331007,-0.078
1747852107091017292,-0.07100000000000001
1747852107098703577,-0.08600000000000001
1747852107106389862,-0.083
1747852107114076147,-0.073
1747852107121762432,-0.088
1747852107129448717,-0.11800000000000001
1747852107137135002,-0.177
1747852107144821287,-0.137
1747852107152507572,0.317
1747852107160193857,1.075
1747852107167880142,1.526
1747852107175566427,1.221
1747852107183252712,0.179
1747852107190938997,-0.585
1747852107198625282,-0.374
1747852107206311567,-0.083
1747852107213997852,-0.164
1747852107221684137,-0.14
1747852107229370422,-0.049
1747852107237056707,-0.07100000000000001
1747852107244742992,-0.066
1747852107252429277,-0.027
1747852107260115562,-0.019
1747852107267801847,0.002
1747852107275488132,0.032
1747852107283174417,0.036000000000000004
1747852107290860702,0.049
1747852107298546987,0.081
1747852107306233272,0.11
1747852107313919557,0.14
1747852107321605842,0.17400000000000002
1747852107329292127,0.20400000000000001
1747852107336978412,0.23600000000000002
1747852107344664697,0.265
1747852107352350982,0.29
1747852107360037267,0.315
1747852107367723552,0.305
1747852107375409837,0.268
1747852107383096122,0.248
1747852107390782407,0.221
1747852107398468692,0.169
1747852107406154977,0.108
1747852107413841262,0.036000000000000004
1747852107421527547,-0.027
1747852107429213832,-0.091
1747852107436900173,-0.16
1747852107444586458,-0.199
1747852107452272743,-0.20600000000000002
1747852107459959028,-0.219
1747852107467645313,-0.221
1747852107475331598,-0.219
1747852107483017883,-0.209
1747852107490704168,-0.187
1747852107498390453,-0.179
1747852107506076738,-0.187
1747852107513763023,-0.17400000000000002
1747852107521449308,-0.147
1747852107529135593,-0.152
1747852107536821878,-0.155
1747852107544508163,-0.125
1747852107552194448,-0.11800000000000001
1747852107559880733,-0.13
1747852107567567018,-0.11800000000000001
1747852107575253303,-0.113
1747852107582939588,-0.12
1747852107590625873,-0.12
1747852107598312158,-0.108
1747852107605998443,-0.108
1747852107613684728,-0.125
1747852107621371013,-0.132
1747852107629057298,-0.11800000000000001
1747852107636743583,-0.11800000000000001
1747852107644429868,-0.128
1747852107652116153,-0.108
1747852107659802438,-0.091
1747852107667488723,-0.088
1747852107675175008,-0.073
1747852107682861293,-0.068
1747852107690547578,-0.088
1747852107698233863,-0.113
1747852107705920148,-0.123
1747852107713606433,-0.113
1747852107721292718,-0.105
1747852107728979003,-0.1
1747852107736665288,-0.098
1747852107744351573,-0.1
1747852107752037858,-0.113
1747852107759724143,-0.137
1747852107767410428,-0.184
1747852107775096713,-0.135
1747852107782782998,0.312
1747852107790469283,1.083
1747852107798155568,1.518
1747852107805841853,1.147
1747852107813528138,0.098
1747852107821214423,-0.622
1747852107828900708,-0.398
1747852107836586993,-0.135
1747852107844273278,-0.224
1747852107851959563,-0.17200000000000001
1747852107859645848,-0.078
1747852107867332133,-0.11800000000000001
1747852107875018418,-0.115
1747852107882704703,-0.064
1747852107890390988,-0.056
1747852107898077273,-0.051000000000000004
1747852107905763558,-0.022
1747852107913449843,-0.004
1747852107921136128,0.009000000000000001
1747852107928822413,0.034
1747852107936508698,0.061
1747852107944194983,0.091
1747852107951881268,0.11800000000000001
1747852107959567553,0.145
1747852107967253838,0.184
1747852107974940123,0.216
1747852107982626408,0.224
1747852107990312693,0.219
1747852107997999034,0.209,85,683
1747852108005685319,0.184,,668
1747852108013371604,0.15
1747852108021057889,0.115
1747852108028744174,0.076
1747852108036430459,0.027
1747852108044116744,-0.041
1747852108051803029,-0.113
1747852108059489314,-0.167
1747852108067175599,-0.209
1747852108074861884,-0.248
1747852108082548169,-0.268
1747852108090234454,-0.27
1747852108097920739,-0.265
1747852108105607024,-0.256
1747852108113293309,-0.243
1747852108120979594,-0.23800000000000002
1747852108128665879,-0.228
1747852108136352164,-0.211
1747852108144038449,-0.201
1747852108151724734,-0.199
1747852108159411019,-0.189
1747852108167097304,-0.177
1747852108174783589,-0.167
1747852108182469874,-0.164
1747852108190156159,-0.157
1747852108197842444,-0.15
1747852108205528729,-0.152
1747852108213215014,-0.16
1747852108220901299,-0.164
1747852108228587584,-0.167
1747852108236273869,-0.162
1747852108243960154,-0.157
1747852108251646439,-0.157
1747852108259332724,-0.155
1747852108267019009,-0.162
1747852108274705294,-0.169
1747852108282391579,-0.162
1747852108290077864,-0.155
1747852108297764149,-0.147
1747852108305450434,-0.132
1747852108313136719,-0.128
1747852108320823004,-0.11800000000000001
1747852108328509289,-0.10300000000000001
1747852108336195574,-0.115
1747852108343881859,-0.155
1747852108351568144,-0.177
1747852108359254429,-0.167
1747852108366940714,-0.16
1747852108374626999,-0.16
1747852108382313284,-0.157
1747852108389999569,-0.152
1747852108397685854,-0.16
1747852108405372139,-0.179
1747852108413058424,-0.231
1747852108420744709,-0.243
1747852108428430994,0.046
1747852108436117279,0.679
1747852108443803564,1.248
1747852108451489849,1.3780000000000001
1747852108459176134,0.657
1747852108466862419,-0.47200000000000003
1747852108474548704,-0.637
1747852108482234989,-0.137
1747852108489921274,-0.125
1747852108497607559,-0.275
1747852108505293844,-0.164
1747852108512980129,-0.115
1747852108520666414,-0.162
1747852108528352699,-0.132
1747852108536038984,-0.098
1747852108543725269,-0.098
1747852108551411554,-0.081
1747852108559097895,-0.056
1747852108566784180,-0.046
1747852108574470465,-0.032
1747852108582156750,-0.002
1747852108589843035,0.024
1747852108597529320,0.046
1747852108605215605,0.078
1747852108612901890,0.11
1747852108620588175,0.132
1747852108628274460,0.15
1747852108635960745,0.167
1747852108643647030,0.17200000000000001
1747852108651333315,0.167
1747852108659019600,0.152
1747852108666705885,0.128
1747852108674392170,0.098
1747852108682078455,0.059000000000000004
1747852108689764740,0.0
1747852108697451025,-0.061
1747852108705137310,-0.11800000000000001
1747852108712823595,-0.17200000000000001
1747852108720509880,-0.216
1747852108728196165,-0.241
1747852108735882450,-0.248
1747852108743568735,-0.248
1747852108751255020,-0.241
1747852108758941305,-0.231
1747852108766627590,-0.219
1747852108774313875,-0.209
1747852108782000160,-0.199
1747852108789686445,-0.187
1747852108797372730,-0.179
1747852108805059015,-0.17400000000000002
1747852108812745300,-0.169
1747852108820431585,-0.164
1747852108828117870,-0.167
1747852108835804155,-0.169
1747852108843490440,-0.162
1747852108851176725,-0.16
1747852108858863010,-0.157
1747852108866549295,-0.155
1747852108874235580,-0.152
1747852108881921865,-0.152
1747852108889608150,-0.15
1747852108897294435,-0.15
1747852108904980720,-0.147
1747852108912667005,-0.14
1747852108920353290,-0.137
1747852108928039575,-0.145
1747852108935725860,-0.147
1747852108943412145,-0.14200000000000002
1747852108951098430,-0.13
1747852108958784715,-0.11800000000000001
1747852108966471000,-0.113
1747852108974157285,-0.108
1747852108981843570,-0.091
1747852108989529855,-0.08600000000000001
1747852108997216140,-0.108
1747852109004902425,-0.135
1747852109012588710,-0.14200000000000002
1747852109020274995,-0.132
1747852109027961280,-0.128
1747852109035647565,-0.123
1747852109043333850,-0.115
1747852109051020135,-0.113
1747852109058706420,-0.115
1747852109066392705,-0.137
1747852109074078990,-0.194
1747852109081765275,-0.20400000000000001
1747852109089451560,0.096
1747852109097137845,0.74
1747852109104824130,1.371
1747852109112510415,1.491
1747852109120196756,0.578,86,650
1747852109127883041,-0.59
1747852109135569326,-0.5680000000000001
1747852109143255611,-0.059000000000000004
1747852109150941896,-0.155
1747852109158628181,-0.28800000000000003
1747852109166314466,-0.15
1747852109174000751,-0.128
1747852109181687036,-0.179
1747852109189373321,-0.132
1747852109197059606,-0.098
1747852109204745891,-0.10300000000000001
1747852109212432176,-0.083
1747852109220118461,-0.054
1747852109227804746,-0.041
1747852109235491031,-0.024
1747852109243177316,0.0
1747852109250863601,0.027
1747852109258549886,0.056
1747852109266236171,0.088
1747852109273922456,0.115
1747852109281608741,0.145
1747852109289295026,0.17200000000000001
1747852109296981311,0.189
1747852109304667596,0.192
1747852109312353881,0.184
1747852109320040166,0.167
1747852109327726451,0.14
1747852109335412736,0.11
1747852109343099021,0.068
1747852109350785306,0.012
1747852109358471591,-0.056
1747852109366157876,-0.123
1747852109373844161,-0.179
1747852109381530446,-0.221
1747852109389216731,-0.251
1747852109396903016,-0.263
1747852109404589301,-0.26
1747852109412275586,-0.256
1747852109419961871,-0.248
1747852109427648156,-0.23600000000000002
1747852109435334441,-0.226
1747852109443020726,-0.216
1747852109450707011,-0.209
1747852109458393296,-0.199
1747852109466079581,-0.189
1747852109473765866,-0.182
1747852109481452151,-0.182
1747852109489138436,-0.187
1747852109496824721,-0.184
1747852109504511006,-0.182
1747852109512197291,-0.182
1747852109519883576,-0.182
1747852109527569861,-0.177
1747852109535256146,-0.17400000000000002
1747852109542942431,-0.17200000000000001
1747852109550628716,-0.169
1747852109558315001,-0.169
1747852109566001286,-0.167
1747852109573687571,-0.164
1747852109581373856,-0.162
1747852109589060141,-0.16
1747852109596746426,-0.162
1747852109604432711,-0.164
1747852109612118996,-0.164
1747852109619805281,-0.155
1747852109627491566,-0.137
1747852109635177851,-0.125
1747852109642864136,-0.115
1747852109650550421,-0.10300000000000001
1747852109658236706,-0.098
1747852109665922991,-0.113
1747852109673609276,-0.14200000000000002
1747852109681295617,-0.152,87,630
1747852109688981972,-0.14200000000000002,,650
1747852109696668327,-0.135
1747852109704354682,-0.132
1747852109712041037,-0.128
1747852109719727392,-0.123
1747852109727413747,-0.128
1747852109735100102,-0.152
1747852109742786457,-0.216
1747852109750472812,-0.258
1747852109758159167,-0.022
1747852109765845522,0.63
1747852109773531877,1.393
1747852109781218232,1.673
1747852109788904587,0.8170000000000001
1747852109796590942,-0.504
1747852109804277297,-0.657
1747852109811963652,-0.115
1747852109819650007,-0.15
1747852109827336362,-0.315
1747852109835022717,-0.189
1747852109842709072,-0.147
1747852109850395427,-0.196
1747852109858081782,-0.155
1747852109865768137,-0.113
1747852109873454492,-0.11800000000000001
1747852109881140847,-0.10300000000000001
1747852109888827202,-0.073
1747852109896513557,-0.056
1747852109904199912,-0.036000000000000004
1747852109911886267,-0.009000000000000001
1747852109919572622,0.012
1747852109927258977,0.039
1747852109934945332,0.068
1747852109942631687,0.098
1747852109950318042,0.13
1747852109958004397,0.157
1747852109965690752,0.17400000000000002
1747852109973377107,0.182
1747852109981063462,0.17400000000000002
1747852109988749817,0.157
1747852109996436172,0.135
1747852110004122527,0.108
1747852110011808882,0.068
1747852110019495237,0.014
1747852110027181592,-0.049
1747852110034867947,-0.113
1747852110042554302,-0.169
1747852110050240657,-0.214
1747852110057927012,-0.241
1747852110065613367,-0.253
1747852110073299722,-0.253
1747852110080986077,-0.246
1747852110088672432,-0.23600000000000002
1747852110096358787,-0.226
1747852110104045142,-0.219
1747852110111731497,-0.209
1747852110119417852,-0.199
1747852110127104207,-0.194
1747852110134790562,-0.189
1747852110142476917,-0.184
1747852110150163272,-0.182
1747852110157849627,-0.182
1747852110165535982,-0.182
1747852110173222337,-0.182
1747852110180908692,-0.182
1747852110188595047,-0.179
1747852110196281402,-0.179
1747852110203967757,-0.177
1747852110211654112,-0.177
1747852110219340467,-0.17200000000000001
1747852110227026822,-0.169
1747852110234713177,-0.169
1747852110242399569,-0.167
1747852110250085924,-0.162
1747852110257772279,-0.157
1747852110265458634,-0.155
1747852110273144989,-0.152
1747852110280831344,-0.155
1747852110288517699,-0.155
1747852110296204054,-0.15
1747852110303890409,-0.14
1747852110311576764,-0.125
1747852110319263119,-0.11
1747852110326949474,-0.098
1747852110334635829,-0.088
1747852110342322184,-0.093
1747852110350008539,-0.115
1747852110357694894,-0.14
1747852110365381249,-0.14
1747852110373067604,-0.13
1747852110380753959,-0.128
1747852110388440314,-0.125
1747852110396126669,-0.11800000000000001
1747852110403813024,-0.115
1747852110411499379,-0.125
1747852110419185734,-0.162
1747852110426872089,-0.231
1747852110434558444,-0.184
1747852110442244799,0.268
1747852110449931154,1.058
1747852110457617509,1.693
1747852110465303864,1.437
1747852110472990219,0.123
1747852110480676574,-0.74
1747852110488362929,-0.34900000000000003
1747852110496049284,-0.044
1747852110503735639,-0.248
1747852110511421994,-0.23800000000000002
1747852110519108349,-0.12
1747852110526794704,-0.162
1747852110534481059,-0.17200000000000001
1747852110542167414,-0.113
1747852110549853769,-0.1
1747852110557540124,-0.098
1747852110565226479,-0.066
1747852110572912834,-0.046
1747852110580599189,-0.034
1747852110588285544,-0.009000000000000001
1747852110595971899,0.014
1747852110603658254,0.036000000000000004
1747852110611344609,0.064
1747852110619030964,0.093
1747852110626717319,0.123
1747852110634403674,0.147
1747852110642090029,0.162
1747852110649776384,0.17200000000000001
1747852110657462739,0.169
1747852110665149094,0.155
1747852110672835449,0.132
1747852110680521804,0.11
1747852110688208159,0.081
1747852110695894514,0.041
1747852110703580869,-0.012
1747852110711267224,-0.07100000000000001
1747852110718953579,-0.128
1747852110726639934,-0.17200000000000001
1747852110734326289,-0.20600000000000002
1747852110742012644,-0.224
1747852110749698999,-0.23600000000000002
1747852110757385354,-0.23600000000000002
1747852110765071709,-0.226
1747852110772758064,-0.209
1747852110780444419,-0.20600000000000002
1747852110788130774,-0.20600000000000002
1747852110795817129,-0.194
1747852110803503517,-0.182,88,660
1747852110811189663,-0.17400000000000002
1747852110818875809,-0.169
1747852110826561955,-0.17200000000000001
1747852110834248101,-0.179
1747852110841934247,-0.179
1747852110849620393,-0.169
1747852110857306539,-0.164
1747852110864992685,-0.162
1747852110872678831,-0.157
1747852110880364977,-0.157
1747852110888051123,-0.162
1747852110895737269,-0.164
1747852110903423415,-0.16
1747852110911109561,-0.147
1747852110918795707,-0.137
1747852110926481853,-0.14
1747852110934167999,-0.14200000000000002
1747852110941854145,-0.14
1747852110949540291,-0.137
1747852110957226437,-0.137
1747852110964912583,-0.132
1747852110972598729,-0.123
1747852110980284875,-0.11800000000000001
1747852110987971021,-0.123
1747852110995657167,-0.128
1747852111003343313,-0.123
1747852111011029459,-0.11
1747852111018715605,-0.093
1747852111026401751,-0.078
1747852111034087897,-0.07100000000000001
1747852111041774043,-0.07100000000000001
1747852111049460189,-0.078
1747852111057146335,-0.1
1747852111064832481,-0.12
1747852111072518627,-0.12
1747852111080204773,-0.113
1747852111087890919,-0.115
1747852111095577065,-0.11800000000000001
1747852111103263211,-0.113
1747852111110949357,-0.113
1747852111118635503,-0.125
1747852111126321649,-0.16
1747852111134007795,-0.226
1747852111141693941,-0.179
1747852111149380087,0.268
1747852111157066233,1.053
1747852111164752379,1.693
1747852111172438525,1.445
1747852111180124671,0.135
1747852111187810817,-0.728
1747852111195496963,-0.34400000000000003
1747852111203183109,-0.041
1747852111210869255,-0.241
1747852111218555401,-0.228
1747852111226241547,-0.11
1747852111233927693,-0.147
1747852111241613839,-0.16
1747852111249299985,-0.11
1747852111256986131,-0.105
1747852111264672277,-0.105
1747852111272358423,-0.076
1747852111280044569,-0.056
1747852111287730715,-0.049
1747852111295416861,-0.027
1747852111303103007,-0.002
1747852111310789153,0.017
1747852111318475299,0.039
1747852111326161445,0.061
1747852111333847591,0.08600000000000001
1747852111341533737,0.108
1747852111349219883,0.128
1747852111356906029,0.135
1747852111364592204,0.13
1747852111372278489,0.11800000000000001
1747852111379964774,0.098
1747852111387651059,0.07100000000000001
1747852111395337344,0.046
1747852111403023629,0.014
1747852111410709914,-0.029
1747852111418396199,-0.083
1747852111426082484,-0.135
1747852111433768769,-0.179
1747852111441455054,-0.216
1747852111449141339,-0.241
1747852111456827624,-0.248
1747852111464513909,-0.246
1747852111472200194,-0.241
1747852111479886479,-0.231
1747852111487572764,-0.221
1747852111495259049,-0.211
1747852111502945334,-0.20400000000000001
1747852111510631619,-0.194
1747852111518317904,-0.189
1747852111526004189,-0.184
1747852111533690474,-0.182
1747852111541376759,-0.177
1747852111549063044,-0.17400000000000002
1747852111556749329,-0.17200000000000001
1747852111564435614,-0.17200000000000001
1747852111572121899,-0.17200000000000001
1747852111579808184,-0.17200000000000001
1747852111587494469,-0.17200000000000001
1747852111595180754,-0.17200000000000001
1747852111602867039,-0.169
1747852111610553324,-0.167
1747852111618239609,-0.167
1747852111625925894,-0.167
1747852111633612179,-0.164
1747852111641298464,-0.16
1747852111648984749,-0.16
1747852111656671034,-0.157
1747852111664357319,-0.152
1747852111672043604,-0.15
1747852111679729889,-0.15
1747852111687416174,-0.147
1747852111695102459,-0.145
1747852111702788744,-0.14200000000000002
1747852111710475029,-0.14200000000000002
1747852111718161314,-0.145
1747852111725847599,-0.135
1747852111733533884,-0.115
1747852111741220169,-0.096
1747852111748906454,-0.08600000000000001
1747852111756592739,-0.083
1747852111764279024,-0.08600000000000001
1747852111771965309,-0.113
1747852111779651594,-0.147
1747852111787337879,-0.152
1747852111795024164,-0.14
1747852111802710449,-0.137
1747852111810396734,-0.137
1747852111818083019,-0.132
1747852111825769304,-0.128
1747852111833455589,-0.132
1747852111841141874,-0.15
1747852111848828159,-0.20600000000000002
1747852111856514444,-0.263
1747852111864200729,-0.083
1747852111871887014,0.536
1747852111879573299,1.346
1747852111887259584,1.733
1747852111894945869,0.989
1747852111902632154,-0.381
1747852111910318439,-0.6990000000000001
1747852111918004724,-0.17200000000000001
1747852111925691065,-0.132,89,670
1747852111933377699,-0.3
1747852111941064333,-0.189
1747852111948750967,-0.13
1747852111956437601,-0.184
1747852111964124235,-0.152
1747852111971810869,-0.105
1747852111979497503,-0.11
1747852111987184137,-0.098
1747852111994870771,-0.064
1747852112002557405,-0.049
1747852112010244039,-0.032
1747852112017930673,-0.007
1747852112025617307,0.017
1747852112033303941,0.041
1747852112040990575,0.073
1747852112048677209,0.1
1747852112056363843,0.125
1747852112064050477,0.15
1747852112071737111,0.167
1747852112079423745,0.169
1747852112087110379,0.162
1747852112094797013,0.152
1747852112102483647,0.135
1747852112110170281,0.115
1747852112117856915,0.091
1747852112125543549,0.056
1747852112133230183,0.007
1747852112140916817,-0.049
1747852112148603451,-0.098
1747852112156290085,-0.14
1747852112163976719,-0.17400000000000002
1747852112171663353,-0.196
1747852112179349987,-0.20600000000000002
1747852112187036621,-0.20600000000000002
1747852112194723255,-0.199
1747852112202409889,-0.189
1747852112210096523,-0.177
1747852112217783157,-0.17200000000000001
1747852112225469791,-0.164
1747852112233156425,-0.157
1747852112240843059,-0.155
1747852112248529693,-0.147
1747852112256216327,-0.135
1747852112263902961,-0.13
1747852112271589595,-0.13
1747852112279276229,-0.125
1747852112286962863,-0.11800000000000001
1747852112294649497,-0.115
1747852112302336131,-0.11800000000000001
1747852112310022765,-0.11800000000000001
1747852112317709399,-0.11800000000000001
1747852112325396033,-0.11800000000000001
1747852112333082667,-0.115
1747852112340769301,-0.113
1747852112348455935,-0.113
1747852112356142569,-0.115
1747852112363829203,-0.11800000000000001
1747852112371515837,-0.115
1747852112379202471,-0.115
1747852112386889105,-0.115
1747852112394575739,-0.11
1747852112402262373,-0.108
1747852112409949007,-0.108
1747852112417635641,-0.105
1747852112425322275,-0.108
1747852112433008909,-0.105
1747852112440695543,-0.1
1747852112448382177,-0.091
1747852112456068811,-0.078
1747852112463755445,-0.061
1747852112471442079,-0.051000000000000004
1747852112479128713,-0.054
1747852112486815361,-0.073
1747852112494501716,-0.11
1747852112502188071,-0.125
1747852112509874426,-0.11
1747852112517560781,-0.098
1747852112525247136,-0.096
1747852112532933491,-0.093
1747852112540619846,-0.088
1747852112548306201,-0.088
1747852112555992556,-0.10300000000000001
1747852112563678911,-0.14200000000000002
1747852112571365266,-0.209
1747852112579051621,-0.14200000000000002
1747852112586737976,0.339
1747852112594424331,1.1440000000000001
1747852112602110686,1.752
1747852112609797041,1.403
1747852112617483396,0.049
1747852112625169751,-0.721
1747852112632856106,-0.28800000000000003
1747852112640542461,-0.032
1747852112648228816,-0.228
1747852112655915171,-0.196
1747852112663601526,-0.093
1747852112671287881,-0.137
1747852112678974236,-0.135
1747852112686660591,-0.073
1747852112694346946,-0.068
1747852112702033301,-0.07100000000000001
1747852112709719656,-0.041
1747852112717406011,-0.019
1747852112725092366,-0.007
1747852112732778721,0.017
1747852112740465076,0.039
1747852112748151431,0.059000000000000004
1747852112755837786,0.088
1747852112763524141,0.11800000000000001
1747852112771210496,0.147
1747852112778896851,0.17400000000000002
1747852112786583206,0.194
1747852112794269561,0.199
1747852112801955916,0.196
1747852112809642271,0.182
1747852112817328626,0.157
1747852112825014981,0.128
1747852112832701336,0.096
1747852112840387691,0.054
1747852112848074046,0.002
1747852112855760401,-0.056
1747852112863446756,-0.11
1747852112871133111,-0.157
1747852112878819466,-0.194
1747852112886505821,-0.216
1747852112894192176,-0.224
1747852112901878531,-0.226
1747852112909564886,-0.221
1747852112917251241,-0.209
1747852112924937596,-0.194
1747852112932623951,-0.187
1747852112940310306,-0.177
1747852112947996661,-0.169
1747852112955683016,-0.162
1747852112963369371,-0.157
1747852112971055726,-0.152
1747852112978742081,-0.152
1747852112986428436,-0.152
1747852112994114791,-0.147
1747852113001801146,-0.147
1747852113009487501,-0.15
1747852113017173856,-0.15
1747852113024860211,-0.15
1747852113032546566,-0.145
1747852113040232921,-0.14
1747852113047919309,-0.137,89,681
1747852113055605594,-0.137,,707
1747852113063291879,-0.135
1747852113070978164,-0.132
1747852113078664449,-0.13
1747852113086350734,-0.13
1747852113094037019,-0.13
1747852113101723304,-0.128
1747852113109409589,-0.125
1747852113117095874,-0.123
1747852113124782159,-0.11800000000000001
1747852113132468444,-0.115
1747852113140154729,-0.12
1747852113147841014,-0.11800000000000001
1747852113155527299,-0.108
1747852113163213584,-0.091
1747852113170899869,-0.076
1747852113178586154,-0.068
1747852113186272439,-0.068
1747852113193958724,-0.068
1747852113201645009,-0.088
1747852113209331294,-0.123
1747852113217017579,-0.13
1747852113224703864,-0.113
1747852113232390149,-0.108
1747852113240076434,-0.108
1747852113247762719,-0.10300000000000001
1747852113255449004,-0.098
1747852113263135289,-0.105
1747852113270821574,-0.125
1747852113278507859,-0.17400000000000002
1747852113286194144,-0.228
1747852113293880429,-0.081
1747852113301566714,0.497
1747852113309252999,1.312
1747852113316939284,1.772
1747852113324625569,1.127
1747852113332311854,-0.27
1747852113339998139,-0.711
1747852113347684424,-0.189
1747852113355370709,-0.096
1747852113363056994,-0.28
1747852113370743279,-0.187
1747852113378429564,-0.115
1747852113386115849,-0.167
1747852113393802134,-0.145
1747852113401488419,-0.098
1747852113409174704,-0.1
1747852113416860989,-0.088
1747852113424547274,-0.064
1747852113432233559,-0.046
1747852113439919844,-0.022
1747852113447606129,0.012
1747852113455292414,0.039
1747852113462978699,0.061
1747852113470664984,0.091
1747852113478351269,0.11800000000000001
1747852113486037554,0.145
1747852113493723839,0.169
1747852113501410124,0.187
1747852113509096409,0.194
1747852113516782694,0.187
1747852113524468979,0.169
1747852113532155264,0.147
1747852113539841549,0.11800000000000001
1747852113547527834,0.08600000000000001
1747852113555214119,0.044
1747852113562900404,-0.009000000000000001
1747852113570586689,-0.066
1747852113578272974,-0.123
1747852113585959259,-0.167
1747852113593645544,-0.199
1747852113601331829,-0.219
1747852113609018170,-0.226,89,720
1747852113616704177,-0.228
1747852113624390184,-0.221
1747852113632076191,-0.211
1747852113639762198,-0.201
1747852113647448205,-0.192
1747852113655134212,-0.184
1747852113662820219,-0.17400000000000002
1747852113670506226,-0.167
1747852113678192233,-0.16
1747852113685878240,-0.157
1747852113693564247,-0.155
1747852113701250254,-0.15
1747852113708936261,-0.15
1747852113716622268,-0.15
1747852113724308275,-0.147
1747852113731994282,-0.145
1747852113739680289,-0.147
1747852113747366296,-0.147
1747852113755052303,-0.145
1747852113762738310,-0.145
1747852113770424317,-0.145
1747852113778110324,-0.14200000000000002
1747852113785796331,-0.14
1747852113793482338,-0.137
1747852113801168345,-0.137
1747852113808854352,-0.137
1747852113816540359,-0.135
1747852113824226366,-0.132
1747852113831912373,-0.128
1747852113839598380,-0.123
1747852113847284387,-0.123
1747852113854970394,-0.125
1747852113862656401,-0.123
1747852113870342408,-0.113
1747852113878028415,-0.091
1747852113885714422,-0.073
1747852113893400429,-0.066
1747852113901086436,-0.064
1747852113908772443,-0.066
1747852113916458450,-0.091
1747852113924144457,-0.125
1747852113931830464,-0.13
1747852113939516471,-0.11800000000000001
1747852113947202478,-0.113
1747852113954888485,-0.11
1747852113962574492,-0.105
1747852113970260499,-0.10300000000000001
1747852113977946506,-0.105
1747852113985632513,-0.128
1747852113993318520,-0.187
1747852114001004527,-0.23800000000000002
1747852114008690534,-0.049
1747852114016376541,0.58
1747852114024062548,1.395
1747852114031748555,1.774
1747852114039434562,1.006
1747852114047120569,-0.379
1747852114054806576,-0.676
1747852114062492583,-0.145
1747852114070178590,-0.11800000000000001
1747852114077864597,-0.28500000000000003
1747852114085550604,-0.17200000000000001
1747852114093236611,-0.12
1747852114100922618,-0.169
1747852114108608625,-0.135
1747852114116294632,-0.091
1747852114123980639,-0.093
1747852114131666646,-0.078
1747852114139352653,-0.049
1747852114147038660,-0.034
1747852114154724667,-0.017
1747852114162410674,0.007
1747852114170096687,0.032
1747852114177783251,0.054
1747852114185469815,0.08600000000000001
1747852114193156379,0.11800000000000001
1747852114200842943,0.147
1747852114208529507,0.169
1747852114216216071,0.189
1747852114223902635,0.199
1747852114231589199,0.192
1747852114239275763,0.177
1747852114246962327,0.152
1747852114254648891,0.123
1747852114262335455,0.091
1747852114270022019,0.044
1747852114277708583,-0.014
1747852114285395147,-0.07100000000000001
1747852114293081711,-0.128
1747852114300768275,-0.17400000000000002
1747852114308454839,-0.20600000000000002
1747852114316141403,-0.224
1747852114323827967,-0.233
1747852114331514531,-0.233
1747852114339201095,-0.226
1747852114346887659,-0.216
1747852114354574223,-0.20600000000000002
1747852114362260787,-0.196
1747852114369947351,-0.187
1747852114377633915,-0.179
1747852114385320479,-0.17200000000000001
1747852114393007043,-0.167
1747852114400693607,-0.162
1747852114408380171,-0.16
1747852114416066735,-0.157
1747852114423753299,-0.157
1747852114431439863,-0.155
1747852114439126427,-0.152
1747852114446812991,-0.15
1747852114454499555,-0.15
1747852114462186119,-0.147
1747852114469872683,-0.147
1747852114477559247,-0.147
1747852114485245811,-0.147
1747852114492932375,-0.14200000000000002
1747852114500618939,-0.14
1747852114508305503,-0.14
1747852114515992067,-0.137
1747852114523678631,-0.132
1747852114531365195,-0.132
1747852114539051759,-0.13
1747852114546738323,-0.125
1747852114554424887,-0.123
1747852114562111451,-0.123
1747852114569798015,-0.128
1747852114577484579,-0.123
1747852114585171143,-0.108
1747852114592857707,-0.08600000000000001
1747852114600544271,-0.07100000000000001
1747852114608230835,-0.068
1747852114615917399,-0.068
1747852114623603963,-0.078
1747852114631290527,-0.11
1747852114638977091,-0.132
1747852114646663655,-0.125
1747852114654350219,-0.113
1747852114662036783,-0.11
1747852114669723347,-0.108
1747852114677409911,-0.10300000000000001
1747852114685096475,-0.10300000000000001
1747852114692783039,-0.115
1747852114700469603,-0.152
1747852114708156167,-0.233
1747852114715842731,-0.226
1747852114723529295,0.164
1747852114731215892,0.9420000000000001,87,718
1747852114738902177,1.666,,713
1747852114746588462,1.575
1747852114754274747,0.317
1747852114761961032,-0.731
1747852114769647317,-0.457
1747852114777333602,-0.073
1747852114785019887,-0.253
1747852114792706172,-0.275
1747852114800392457,-0.14200000000000002
1747852114808078742,-0.167
1747852114815765027,-0.187
1747852114823451312,-0.128
1747852114831137597,-0.11
1747852114838823882,-0.11
1747852114846510167,-0.081
1747852114854196452,-0.054
1747852114861882737,-0.041
1747852114869569022,-0.022
1747852114877255307,0.002
1747852114884941592,0.032
1747852114892627877,0.061
1747852114900314162,0.088
1747852114908000447,0.12
1747852114915686732,0.152
1747852114923373017,0.177
1747852114931059302,0.194
1747852114938745587,0.199
1747852114946431872,0.187
1747852114954118157,0.16
1747852114961804442,0.125
1747852114969490727,0.091
1747852114977177012,0.051000000000000004
1747852114984863297,-0.002
1747852114992549582,-0.066
1747852115000235867,-0.12
1747852115007922152,-0.162
1747852115015608437,-0.196
1747852115023294722,-0.221
1747852115030981007,-0.233
1747852115038667292,-0.23600000000000002
1747852115046353577,-0.23600000000000002
1747852115054039862,-0.226
1747852115061726147,-0.209
1747852115069412432,-0.196
1747852115077098717,-0.187
1747852115084785002,-0.177
1747852115092471287,-0.169
1747852115100157572,-0.169
1747852115107843857,-0.169
1747852115115530142,-0.16
1747852115123216427,-0.152
1747852115130902712,-0.152
1747852115138588997,-0.155
1747852115146275282,-0.16
1747852115153961567,-0.162
1747852115161647852,-0.164
1747852115169334137,-0.167
1747852115177020422,-0.167
1747852115184706707,-0.167
1747852115192392992,-0.164
1747852115200079277,-0.152
1747852115207765562,-0.147
1747852115215451847,-0.155
1747852115223138132,-0.157
1747852115230824417,-0.152
1747852115238510702,-0.152
1747852115246196987,-0.145
1747852115253883272,-0.137
1747852115261569557,-0.135
1747852115269255842,-0.128
1747852115276942127,-0.115
1747852115284628412,-0.115
1747852115292314753,-0.123
1747852115300001038,-0.113
1747852115307687323,-0.091
1747852115315373608,-0.078
1747852115323059893,-0.078
1747852115330746178,-0.078
1747852115338432463,-0.091
1747852115346118748,-0.128
1747852115353805033,-0.15
1747852115361491318,-0.14200000000000002
1747852115369177603,-0.13
1747852115376863888,-0.128
1747852115384550173,-0.125
1747852115392236458,-0.12
1747852115399922743,-0.12
1747852115407609028,-0.13
1747852115415295313,-0.164
1747852115422981598,-0.233
1747852115430667883,-0.226
1747852115438354168,0.152
1747852115446040453,0.93
1747852115453726738,1.678
1747852115461413023,1.637
1747852115469099308,0.401
1747852115476785593,-0.7010000000000001
1747852115484471878,-0.467
1747852115492158163,-0.054
1747852115499844448,-0.219
1747852115507530733,-0.256
1747852115515217018,-0.12
1747852115522903303,-0.137
1747852115530589588,-0.157
1747852115538275873,-0.098
1747852115545962158,-0.078
1747852115553648443,-0.081
1747852115561334728,-0.051000000000000004
1747852115569021013,-0.029
1747852115576707298,-0.012
1747852115584393583,0.014
1747852115592079868,0.041
1747852115599766153,0.064
1747852115607452438,0.091
1747852115615138723,0.123
1747852115622825008,0.16
1747852115630511293,0.192
1747852115638197578,0.219
1747852115645883863,0.233
1747852115653570148,0.231
1747852115661256433,0.219
1747852115668942718,0.201
1747852115676629003,0.177
1747852115684315288,0.145
1747852115692001573,0.1
1747852115699687858,0.044
1747852115707374143,-0.017
1747852115715060428,-0.083
1747852115722746713,-0.14200000000000002
1747852115730432998,-0.187
1747852115738119283,-0.214
1747852115745805568,-0.221
1747852115753491853,-0.219
1747852115761178138,-0.224
1747852115768864423,-0.226
1747852115776550708,-0.20600000000000002
1747852115784236993,-0.194
1747852115791923278,-0.194
1747852115799609563,-0.182
1747852115807295848,-0.162
1747852115814982133,-0.157
1747852115822668418,-0.155
1747852115830354703,-0.15
1747852115838040988,-0.14
1747852115845727273,-0.135
1747852115853413614,-0.14200000000000002,87,714
1747852115861099899,-0.14
1747852115868786184,-0.135
1747852115876472469,-0.137
1747852115884158754,-0.145
1747852115891845039,-0.155
1747852115899531324,-0.164
1747852115907217609,-0.167
1747852115914903894,-0.17200000000000001
1747852115922590179,-0.17400000000000002
1747852115930276464,-0.169
1747852115937962749,-0.162
1747852115945649034,-0.16
1747852115953335319,-0.162
1747852115961021604,-0.162
1747852115968707889,-0.157
1747852115976394174,-0.157
1747852115984080459,-0.155
1747852115991766744,-0.147
1747852115999453029,-0.15
1747852116007139314,-0.152
1747852116014825599,-0.137
1747852116022511884,-0.113
1747852116030198169,-0.093
1747852116037884454,-0.091
1747852116045570739,-0.091
1747852116053257024,-0.091
1747852116060943309,-0.11
1747852116068629594,-0.147
1747852116076315879,-0.164
1747852116084002164,-0.145
1747852116091688449,-0.135
1747852116099374734,-0.14
1747852116107061019,-0.14200000000000002
1747852116114747304,-0.13
1747852116122433589,-0.125
1747852116130119874,-0.137
1747852116137806159,-0.17400000000000002
1747852116145492444,-0.243
1747852116153178729,-0.194
1747852116160865014,0.275
1747852116168551299,1.088
1747852116176237584,1.723
1747852116183923869,1.44
1747852116191610154,0.10300000000000001
1747852116199296439,-0.755
1747852116206982724,-0.376
1747852116214669009,-0.088
1747852116222355294,-0.275
1747852116230041579,-0.241
1747852116237727864,-0.12
1747852116245414149,-0.169
1747852116253100434,-0.179
1747852116260786719,-0.108
1747852116268473004,-0.088
1747852116276159289,-0.088
1747852116283845574,-0.061
1747852116291531859,-0.044
1747852116299218144,-0.032
1747852116306904429,0.004
1747852116314590714,0.041
1747852116322276999,0.059000000000000004
1747852116329963284,0.083
1747852116337649569,0.12
1747852116345335854,0.155
1747852116353022139,0.189
1747852116360708424,0.216
1747852116368394709,0.233
1747852116376080994,0.23600000000000002
1747852116383767279,0.221
1747852116391453564,0.196
1747852116399139849,0.177
1747852116406826134,0.15
1747852116414512475,0.108
1747852116422198760,0.046
1747852116429885045,-0.019
1747852116437571330,-0.093
1747852116445257615,-0.155
1747852116452943900,-0.196
1747852116460630185,-0.226
1747852116468316470,-0.246
1747852116476002755,-0.251
1747852116483689040,-0.248
1747852116491375325,-0.241
1747852116499061610,-0.221
1747852116506747895,-0.20600000000000002
1747852116514434180,-0.196
1747852116522120465,-0.187
1747852116529806750,-0.179
1747852116537493035,-0.177
1747852116545179320,-0.17400000000000002
1747852116552865605,-0.169
1747852116560551890,-0.164
1747852116568238175,-0.162
1747852116575924460,-0.155
1747852116583610745,-0.137
1747852116591297030,-0.13
1747852116598983315,-0.14
1747852116606669600,-0.152
1747852116614355885,-0.157
1747852116622042170,-0.15
1747852116629728455,-0.137
1747852116637414740,-0.135
1747852116645101025,-0.137
1747852116652787310,-0.132
1747852116660473595,-0.125
1747852116668159880,-0.12
1747852116675846165,-0.12
1747852116683532450,-0.123
1747852116691218735,-0.11800000000000001
1747852116698905020,-0.11
1747852116706591305,-0.11
1747852116714277590,-0.113
1747852116721963875,-0.108
1747852116729650160,-0.096
1747852116737336445,-0.08600000000000001
1747852116745022730,-0.066
1747852116752709015,-0.049
1747852116760395300,-0.046
1747852116768081585,-0.059000000000000004
1747852116775767870,-0.091
1747852116783454155,-0.132
1747852116791140440,-0.152
1747852116798826725,-0.147
1747852116806513010,-0.145
1747852116814199295,-0.147
1747852116821885580,-0.137
1747852116829571865,-0.132
1747852116837258150,-0.135
1747852116844944435,-0.14200000000000002
1747852116852630720,-0.17400000000000002
1747852116860317005,-0.251
1747852116868003290,-0.228
1747852116875689575,0.20600000000000002
1747852116883375860,1.0110000000000001
1747852116891062145,1.696
1747852116898748430,1.528
1747852116906434715,0.241
1747852116914121000,-0.748
1747852116921807285,-0.438
1747852116929493570,-0.08600000000000001
1747852116937179855,-0.265
1747852116944866140,-0.265
1747852116952552425,-0.137
1747852116960238710,-0.177
1747852116967924995,-0.194
1747852116975611340,-0.135,87,711
1747852116983297625,-0.123
1747852116990983910,-0.13
1747852116998670195,-0.10300000000000001
1747852117006356480,-0.076
1747852117014042765,-0.059000000000000004
1747852117021729050,-0.036000000000000004
1747852117029415335,-0.007
1747852117037101620,0.022
1747852117044787905,0.064
1747852117052474190,0.115
1747852117060160475,0.16
1747852117067846760,0.196
1747852117075533045,0.228
1747852117083219330,0.243
1747852117090905615,0.23600000000000002
1747852117098591900,0.219
1747852117106278185,0.20600000000000002
1747852117113964470,0.192
1747852117121650755,0.157
1747852117129337040,0.113
1747852117137023325,0.056
1747852117144709610,-0.009000000000000001
1747852117152395895,-0.078
1747852117160082180,-0.132
1747852117167768465,-0.17400000000000002
1747852117175454750,-0.201
1747852117183141035,-0.216
1747852117190827320,-0.219
1747852117198513605,-0.216
1747852117206199890,-0.211
1747852117213886175,-0.201
1747852117221572460,-0.192
1747852117229258745,-0.184
1747852117236945030,-0.177
1747852117244631315,-0.167
1747852117252317600,-0.16
1747852117260003885,-0.155
1747852117267690170,-0.15
1747852117275376455,-0.145
1747852117283062740,-0.15
1747852117290749025,-0.162
1747852117298435310,-0.169
1747852117306121595,-0.164
1747852117313807880,-0.16
1747852117321494165,-0.162
1747852117329180450,-0.162
1747852117336866735,-0.157
1747852117344553020,-0.155
1747852117352239305,-0.157
1747852117359925590,-0.16
1747852117367611875,-0.164
1747852117375298160,-0.169
1747852117382984445,-0.167
1747852117390670730,-0.16
1747852117398357015,-0.155
1747852117406043300,-0.152
1747852117413729585,-0.147
1747852117421415870,-0.145
1747852117429102155,-0.147
1747852117436788440,-0.15
1747852117444474725,-0.14200000000000002
1747852117452161010,-0.14
1747852117459847295,-0.147
1747852117467533580,-0.15
1747852117475219865,-0.132
1747852117482906150,-0.108
1747852117490592435,-0.093
1747852117498278720,-0.08600000000000001
1747852117505965005,-0.073
1747852117513651290,-0.076
1747852117521337575,-0.108
1747852117529023860,-0.14
1747852117536710201,-0.14200000000000002
1747852117544396486,-0.137
1747852117552082771,-0.135
1747852117559769056,-0.135
1747852117567455341,-0.13
1747852117575141626,-0.125
1747852117582827911,-0.135
1747852117590514196,-0.164
1747852117598200481,-0.221
1747852117605886766,-0.273
1747852117613573051,-0.08600000000000001
1747852117621259336,0.556
1747852117628945621,1.41
1747852117636631906,1.853
1747852117644318191,1.139
1747852117652004476,-0.297
1747852117659690761,-0.713
1747852117667377046,-0.189
1747852117675063331,-0.123
1747852117682749616,-0.302
1747852117690435901,-0.187
1747852117698122186,-0.115
1747852117705808471,-0.169
1747852117713494756,-0.137
1747852117721181041,-0.088
1747852117728867326,-0.093
1747852117736553611,-0.081
1747852117744239896,-0.046
1747852117751926181,-0.036000000000000004
1747852117759612466,-0.019
1747852117767298751,0.014
1747852117774985036,0.039
1747852117782671321,0.061
1747852117790357606,0.096
1747852117798043891,0.132
1747852117805730176,0.162
1747852117813416461,0.199
1747852117821102746,0.228
1747852117828789031,0.23800000000000002
1747852117836475316,0.23600000000000002
1747852117844161601,0.226
1747852117851847886,0.201
1747852117859534171,0.17200000000000001
1747852117867220456,0.132
1747852117874906741,0.083
1747852117882593026,0.017
1747852117890279311,-0.054
1747852117897965596,-0.11800000000000001
1747852117905651881,-0.17200000000000001
1747852117913338166,-0.214
1747852117921024451,-0.23800000000000002
1747852117928710736,-0.248
1747852117936397021,-0.248
1747852117944083306,-0.246
1747852117951769591,-0.241
1747852117959455876,-0.228
1747852117967142161,-0.214
1747852117974828446,-0.20400000000000001
1747852117982514731,-0.199
1747852117990201016,-0.184
1747852117997887301,-0.177
1747852118005573586,-0.177
1747852118013259871,-0.17400000000000002
1747852118020946156,-0.169
1747852118028632441,-0.169
1747852118036318726,-0.169
1747852118044005011,-0.167
1747852118051691296,-0.167
1747852118059377581,-0.164
1747852118067063866,-0.164
1747852118074750151,-0.167
1747852118082436436,-0.167
1747852118090122721,-0.164
1747852118097809062,-0.162,86,715
1747852118105495626,-0.162,,721
1747852118113182190,-0.16
1747852118120868754,-0.155
1747852118128555318,-0.152
1747852118136241882,-0.155
1747852118143928446,-0.16
1747852118151615010,-0.157
1747852118159301574,-0.152
1747852118166988138,-0.15
1747852118174674702,-0.147
1747852118182361266,-0.14200000000000002
1747852118190047830,-0.137
1747852118197734394,-0.132
1747852118205420958,-0.135
1747852118213107522,-0.14
1747852118220794086,-0.132
1747852118228480650,-0.115
1747852118236167214,-0.096
1747852118243853778,-0.081
1747852118251540342,-0.076
1747852118259226906,-0.076
1747852118266913470,-0.083
1747852118274600034,-0.115
1747852118282286598,-0.137
1747852118289973162,-0.128
1747852118297659726,-0.11
1747852118305346290,-0.108
1747852118313032854,-0.108
1747852118320719418,-0.10300000000000001
1747852118328405982,-0.1
1747852118336092546,-0.108
1747852118343779110,-0.132
1747852118351465674,-0.194
1747852118359152238,-0.231
1747852118366838802,0.014
1747852118374525366,0.706
1747852118382211930,1.541
1747852118389898494,1.848
1747852118397585058,0.9400000000000001
1747852118405271622,-0.455
1747852118412958186,-0.654
1747852118420644750,-0.135
1747852118428331314,-0.164
1747852118436017878,-0.307
1747852118443704442,-0.177
1747852118451391006,-0.14200000000000002
1747852118459077570,-0.192
1747852118466764134,-0.15
1747852118474450698,-0.108
1747852118482137262,-0.113
1747852118489823826,-0.093
1747852118497510390,-0.061
1747852118505196954,-0.046
1747852118512883518,-0.029
1747852118520570082,-0.002
1747852118528256646,0.019
1747852118535943210,0.044
1747852118543629774,0.078
1747852118551316338,0.12
1747852118559002902,0.155
1747852118566689466,0.187
1747852118574376030,0.211
1747852118582062594,0.219
1747852118589749158,0.20600000000000002
1747852118597435722,0.192
1747852118605122286,0.179
1747852118612808850,0.162
1747852118620495414,0.128
1747852118628181978,0.073
1747852118635868542,0.002
1747852118643555106,-0.081
1747852118651241670,-0.145
1747852118658928271,-0.189,86,716
1747852118666614696,-0.228
1747852118674301121,-0.256
1747852118681987546,-0.26
1747852118689673971,-0.263
1747852118697360396,-0.268
1747852118705046821,-0.263
1747852118712733246,-0.248
1747852118720419671,-0.23800000000000002
1747852118728106096,-0.231
1747852118735792521,-0.224
1747852118743478946,-0.216
1747852118751165371,-0.209
1747852118758851796,-0.201
1747852118766538221,-0.192
1747852118774224646,-0.182
1747852118781911071,-0.17400000000000002
1747852118789597496,-0.17200000000000001
1747852118797283921,-0.177
1747852118804970346,-0.187
1747852118812656771,-0.184
1747852118820343196,-0.17200000000000001
1747852118828029621,-0.169
1747852118835716046,-0.164
1747852118843402471,-0.157
1747852118851088896,-0.152
1747852118858775321,-0.152
1747852118866461746,-0.147
1747852118874148171,-0.147
1747852118881834596,-0.145
1747852118889521021,-0.14200000000000002
1747852118897207446,-0.14
1747852118904893871,-0.14
1747852118912580296,-0.137
1747852118920266721,-0.135
1747852118927953146,-0.132
1747852118935639571,-0.125
1747852118943325996,-0.12
1747852118951012421,-0.11800000000000001
1747852118958698846,-0.11800000000000001
1747852118966385271,-0.115
1747852118974071696,-0.11
1747852118981758121,-0.11
1747852118989444546,-0.115
1747852118997130971,-0.11
1747852119004817396,-0.096
1747852119012503821,-0.07100000000000001
1747852119020190246,-0.056
1747852119027876671,-0.059000000000000004
1747852119035563096,-0.059000000000000004
1747852119043249521,-0.068
1747852119050935946,-0.10300000000000001
1747852119058622371,-0.128
1747852119066308796,-0.12
1747852119073995221,-0.11
1747852119081681646,-0.113
1747852119089368071,-0.11
1747852119097054496,-0.105
1747852119104740921,-0.1
1747852119112427346,-0.108
1747852119120113771,-0.135
1747852119127800196,-0.201
1747852119135486621,-0.228
1747852119143173046,0.039
1747852119150859471,0.743
1747852119158545896,1.568
1747852119166232321,1.836
1747852119173918746,0.871
1747852119181605171,-0.497
1747852119189291596,-0.625
1747852119196978021,-0.108
1747852119204664446,-0.167
1747852119212350871,-0.3
1747852119220037302,-0.17400000000000002
1747852119227723587,-0.15
1747852119235409872,-0.194
1747852119243096157,-0.147
1747852119250782442,-0.11
1747852119258468727,-0.11800000000000001
1747852119266155012,-0.098
1747852119273841297,-0.068
1747852119281527582,-0.056
1747852119289213867,-0.039
1747852119296900152,-0.009000000000000001
1747852119304586437,0.017
1747852119312272722,0.044
1747852119319959007,0.076
1747852119327645292,0.11
1747852119335331577,0.147
1747852119343017862,0.182
1747852119350704147,0.209
1747852119358390432,0.226
1747852119366076717,0.226
1747852119373763002,0.216
1747852119381449287,0.196
1747852119389135572,0.167
1747852119396821857,0.128
1747852119404508142,0.073
1747852119412194427,0.002
1747852119419880712,-0.068
1747852119427566997,-0.14
1747852119435253282,-0.199
1747852119442939567,-0.23600000000000002
1747852119450625852,-0.256
1747852119458312137,-0.27
1747852119465998422,-0.268
1747852119473684707,-0.258
1747852119481370992,-0.243
1747852119489057277,-0.228
1747852119496743562,-0.216
1747852119504429847,-0.201
1747852119512116132,-0.189
1747852119519802417,-0.179
1747852119527488702,-0.17200000000000001
1747852119535174987,-0.164
1747852119542861272,-0.162
1747852119550547557,-0.16
1747852119558233842,-0.16
1747852119565920127,-0.16
1747852119573606412,-0.157
1747852119581292697,-0.155
1747852119588978982,-0.155
1747852119596665267,-0.155
1747852119604351552,-0.157
1747852119612037837,-0.157
1747852119619724122,-0.155
1747852119627410407,-0.152
1747852119635096692,-0.15
1747852119642782977,-0.15
1747852119650469262,-0.147
1747852119658155547,-0.14
1747852119665841832,-0.135
1747852119673528117,-0.132
1747852119681214402,-0.128
1747852119688900687,-0.123
1747852119696586972,-0.12
1747852119704273257,-0.11800000000000001
1747852119711959542,-0.113
1747852119719645827,-0.108
1747852119727332112,-0.108
1747852119735018397,-0.108
1747852119742704682,-0.10300000000000001
1747852119750390967,-0.10300000000000001
1747852119758077252,-0.10300000000000001
1747852119765763537,-0.098
1747852119773449822,-0.088
1747852119781136163,-0.07100000000000001,85,742
1747852119788822448,-0.054
1747852119796508733,-0.046
1747852119804195018,-0.049
1747852119811881303,-0.049
1747852119819567588,-0.07100000000000001
1747852119827253873,-0.105
1747852119834940158,-0.113
1747852119842626443,-0.098
1747852119850312728,-0.096
1747852119857999013,-0.1
1747852119865685298,-0.096
1747852119873371583,-0.091
1747852119881057868,-0.091
1747852119888744153,-0.108
1747852119896430438,-0.155
1747852119904116723,-0.224
1747852119911803008,-0.152
1747852119919489293,0.339
1747852119927175578,1.169
1747852119934861863,1.821
1747852119942548148,1.5110000000000001
1747852119950234433,0.125
1747852119957920718,-0.74
1747852119965607003,-0.34400000000000003
1747852119973293288,-0.064
1747852119980979573,-0.265
1747852119988665858,-0.243
1747852119996352143,-0.128
1747852120004038428,-0.164
1747852120011724713,-0.167
1747852120019410998,-0.108
1747852120027097283,-0.098
1747852120034783568,-0.093
1747852120042469853,-0.061
1747852120050156138,-0.039
1747852120057842423,-0.019
1747852120065528708,0.007
1747852120073214993,0.032
1747852120080901278,0.064
1747852120088587563,0.098
1747852120096273848,0.132
1747852120103960133,0.167
1747852120111646418,0.20400000000000001
1747852120119332703,0.231
1747852120127018988,0.251
1747852120134705273,0.258
1747852120142391558,0.253
1747852120150077843,0.23600000000000002
1747852120157764128,0.214
1747852120165450413,0.184
1747852120173136698,0.14
1747852120180822983,0.078
1747852120188509268,0.009000000000000001
1747852120196195553,-0.059000000000000004
1747852120203881838,-0.123
1747852120211568123,-0.17200000000000001
1747852120219254408,-0.20600000000000002
1747852120226940693,-0.224
1747852120234626978,-0.228
1747852120242313263,-0.226
1747852120249999548,-0.221
1747852120257685833,-0.214
1747852120265372118,-0.20400000000000001
1747852120273058403,-0.199
1747852120280744688,-0.189
1747852120288430973,-0.182
1747852120296117258,-0.17200000000000001
1747852120303803543,-0.167
1747852120311489828,-0.164
1747852120319176113,-0.16
1747852120326862398,-0.157
1747852120334548683,-0.155
1747852120342235028,-0.155
1747852120349921313,-0.15
1747852120357607598,-0.147
1747852120365293883,-0.145
1747852120372980168,-0.14200000000000002
1747852120380666453,-0.14
1747852120388352738,-0.135
1747852120396039023,-0.135
1747852120403725308,-0.135
1747852120411411593,-0.135
1747852120419097878,-0.128
1747852120426784163,-0.128
1747852120434470448,-0.137
1747852120442156733,-0.14200000000000002
1747852120449843018,-0.137
1747852120457529303,-0.13
1747852120465215588,-0.128
1747852120472901873,-0.12
1747852120480588158,-0.108
1747852120488274443,-0.10300000000000001
1747852120495960728,-0.10300000000000001
1747852120503647013,-0.1
1747852120511333298,-0.096
1747852120519019583,-0.088
1747852120526705868,-0.093
1747852120534392153,-0.1
1747852120542078438,-0.093
1747852120549764723,-0.068
1747852120557451008,-0.049
1747852120565137293,-0.044
1747852120572823578,-0.049
1747852120580509863,-0.049
1747852120588196148,-0.064
1747852120595882433,-0.105
1747852120603568718,-0.125
1747852120611255003,-0.11
1747852120618941288,-0.098
1747852120626627573,-0.10300000000000001
1747852120634313858,-0.105
1747852120642000143,-0.1
1747852120649686428,-0.098
1747852120657372713,-0.11
1747852120665058998,-0.14200000000000002
1747852120672745283,-0.20600000000000002
1747852120680431568,-0.199
1747852120688117853,0.152
1747852120695804138,0.913
1747852120703490423,1.688
1747852120711176708,1.747
1747852120718862993,0.578
1747852120726549278,-0.635
1747852120734235563,-0.514
1747852120741921848,-0.066
1747852120749608133,-0.209
1747852120757294418,-0.28800000000000003
1747852120764980703,-0.16
1747852120772666988,-0.167
1747852120780353273,-0.194
1747852120788039558,-0.14
1747852120795725843,-0.12
1747852120803412128,-0.12
1747852120811098413,-0.088
1747852120818784698,-0.061
1747852120826470983,-0.049
1747852120834157268,-0.024
1747852120841843553,0.002
1747852120849529838,0.029
1747852120857216123,0.059000000000000004
1747852120864902408,0.093
1747852120872588693,0.13
1747852120880274978,0.164
1747852120887961263,0.196
1747852120895647548,0.224
1747852120903333889,0.23600000000000002,84,752
1747852120911020174,0.23600000000000002,,776
1747852120918706459,0.226
1747852120926392744,0.201
1747852120934079029,0.167
1747852120941765314,0.13
1747852120949451599,0.081
1747852120957137884,0.017
1747852120964824169,-0.059000000000000004
1747852120972510454,-0.128
1747852120980196739,-0.182
1747852120987883024,-0.216
1747852120995569309,-0.23800000000000002
1747852121003255594,-0.253
1747852121010941879,-0.256
1747852121018628164,-0.251
1747852121026314449,-0.23800000000000002
1747852121034000734,-0.224
1747852121041687019,-0.216
1747852121049373304,-0.209
1747852121057059589,-0.187
1747852121064745874,-0.177
1747852121072432159,-0.179
1747852121080118444,-0.169
1747852121087804729,-0.155
1747852121095491014,-0.15
1747852121103177299,-0.155
1747852121110863584,-0.157
1747852121118549869,-0.15
1747852121126236154,-0.14200000000000002
1747852121133922439,-0.14200000000000002
1747852121141608724,-0.147
1747852121149295009,-0.152
1747852121156981294,-0.152
1747852121164667579,-0.145
1747852121172353864,-0.14200000000000002
1747852121180040149,-0.14
1747852121187726434,-0.137
1747852121195412719,-0.137
1747852121203099004,-0.137
1747852121210785289,-0.14200000000000002
1747852121218471574,-0.145
1747852121226157859,-0.14
1747852121233844144,-0.132
1747852121241530429,-0.128
1747852121249216714,-0.13
1747852121256902999,-0.13
1747852121264589284,-0.125
1747852121272275569,-0.12
1747852121279961854,-0.12
1747852121287648139,-0.123
1747852121295334424,-0.11800000000000001
1747852121303020709,-0.1
1747852121310706994,-0.073
1747852121318393279,-0.059000000000000004
1747852121326079564,-0.068
1747852121333765849,-0.07100000000000001
1747852121341452134,-0.068
1747852121349138419,-0.088
1747852121356824704,-0.13
1747852121364510989,-0.137
1747852121372197274,-0.105
1747852121379883559,-0.096
1747852121387569844,-0.11800000000000001
1747852121395256129,-0.115
1747852121402942414,-0.098
1747852121410628699,-0.11
1747852121418314984,-0.135
1747852121426001269,-0.177
1747852121433687554,-0.224
1747852121441373839,-0.032
1747852121449060124,0.62
1747852121456746409,1.454
1747852121464432750,1.821
1747852121472119035,1.046
1747852121479805320,-0.34400000000000003
1747852121487491605,-0.669
1747852121495177890,-0.155
1747852121502864175,-0.125
1747852121510550460,-0.28
1747852121518236745,-0.16
1747852121525923030,-0.10300000000000001
1747852121533609315,-0.16
1747852121541295600,-0.135
1747852121548981885,-0.091
1747852121556668170,-0.081
1747852121564354455,-0.068
1747852121572040740,-0.044
1747852121579727025,-0.024
1747852121587413310,0.0
1747852121595099595,0.032
1747852121602785880,0.061
1747852121610472165,0.083
1747852121618158450,0.105
1747852121625844735,0.145
1747852121633531020,0.187
1747852121641217305,0.216
1747852121648903590,0.248
1747852121656589875,0.278
1747852121664276160,0.275
1747852121671962445,0.26
1747852121679648730,0.248
1747852121687335015,0.216
1747852121695021300,0.17400000000000002
1747852121702707585,0.13
1747852121710393870,0.061
1747852121718080155,-0.027
1747852121725766440,-0.1
1747852121733452725,-0.157
1747852121741139010,-0.20400000000000001
1747852121748825295,-0.23600000000000002
1747852121756511580,-0.246
1747852121764197865,-0.246
1747852121771884150,-0.248
1747852121779570435,-0.23800000000000002
1747852121787256720,-0.221
1747852121794943005,-0.209
1747852121802629290,-0.196
1747852121810315575,-0.189
1747852121818001860,-0.187
1747852121825688145,-0.177
1747852121833374430,-0.17400000000000002
1747852121841060715,-0.177
1747852121848747000,-0.17200000000000001
1747852121856433285,-0.164
1747852121864119570,-0.157
1747852121871805855,-0.152
1747852121879492140,-0.157
1747852121887178425,-0.16
1747852121894864710,-0.16
1747852121902550995,-0.162
1747852121910237280,-0.162
1747852121917923565,-0.164
1747852121925609850,-0.164
1747852121933296135,-0.16
1747852121940982420,-0.157
1747852121948668705,-0.152
1747852121956354990,-0.147
1747852121964041275,-0.145
1747852121971727560,-0.147
1747852121979413845,-0.14
1747852121987100130,-0.135
1747852121994786415,-0.137
1747852122002472700,-0.14
1747852122010158985,-0.14
1747852122017845270,-0.137
1747852122025531611,-0.14,84,772
1747852122033217896,-0.132
1747852122040904181,-0.11800000000000001
1747852122048590466,-0.098
1747852122056276751,-0.081
1747852122063963036,-0.078
1747852122071649321,-0.078
1747852122079335606,-0.083
1747852122087021891,-0.11800000000000001
1747852122094708176,-0.147
1747852122102394461,-0.14200000000000002
1747852122110080746,-0.128
1747852122117767031,-0.125
1747852122125453316,-0.123
1747852122133139601,-0.11800000000000001
1747852122140825886,-0.11800000000000001
1747852122148512171,-0.128
1747852122156198456,-0.15
1747852122163884741,-0.211
1747852122171571026,-0.241
1747852122179257311,0.041
1747852122186943596,0.763
1747852122194629881,1.553
1747852122202316166,1.752
1747852122210002451,0.763
1747852122217688736,-0.556
1747852122225375021,-0.625
1747852122233061306,-0.12
1747852122240747591,-0.194
1747852122248433876,-0.31
1747852122256120161,-0.179
1747852122263806446,-0.162
1747852122271492731,-0.201
1747852122279179016,-0.152
1747852122286865301,-0.12
1747852122294551586,-0.125
1747852122302237871,-0.10300000000000001
1747852122309924156,-0.073
1747852122317610441,-0.064
1747852122325296726,-0.041
1747852122332983011,-0.012
1747852122340669296,0.009000000000000001
1747852122348355581,0.036000000000000004
1747852122356041866,0.068
1747852122363728151,0.10300000000000001
1747852122371414436,0.137
1747852122379100721,0.17200000000000001
1747852122386787006,0.199
1747852122394473291,0.211
1747852122402159576,0.211
1747852122409845861,0.199
1747852122417532146,0.177
1747852122425218431,0.145
1747852122432904716,0.11
1747852122440591001,0.061
1747852122448277286,-0.007
1747852122455963571,-0.078
1747852122463649856,-0.14200000000000002
1747852122471336141,-0.199
1747852122479022426,-0.23800000000000002
1747852122486708711,-0.26
1747852122494394996,-0.27
1747852122502081281,-0.273
1747852122509767566,-0.27
1747852122517453851,-0.26
1747852122525140136,-0.248
1747852122532826421,-0.23600000000000002
1747852122540512706,-0.226
1747852122548198991,-0.216
1747852122555885276,-0.20600000000000002
1747852122563571561,-0.201
1747852122571257846,-0.194
1747852122578944131,-0.189
1747852122586630472,-0.184
1747852122594316757,-0.179
1747852122602003042,-0.177
1747852122609689327,-0.179
1747852122617375612,-0.179
1747852122625061897,-0.177
1747852122632748182,-0.17200000000000001
1747852122640434467,-0.17200000000000001
1747852122648120752,-0.169
1747852122655807037,-0.167
1747852122663493322,-0.167
1747852122671179607,-0.164
1747852122678865892,-0.162
1747852122686552177,-0.16
1747852122694238462,-0.155
1747852122701924747,-0.152
1747852122709611032,-0.152
1747852122717297317,-0.152
1747852122724983602,-0.15
1747852122732669887,-0.147
1747852122740356172,-0.14200000000000002
1747852122748042457,-0.14
1747852122755728742,-0.14
1747852122763415027,-0.14
1747852122771101312,-0.13
1747852122778787597,-0.11
1747852122786473882,-0.088
1747852122794160167,-0.078
1747852122801846452,-0.078
1747852122809532737,-0.076
1747852122817219022,-0.083
1747852122824905307,-0.12
1747852122832591592,-0.14200000000000002
1747852122840277877,-0.132
1747852122847964162,-0.125
1747852122855650447,-0.125
1747852122863336732,-0.12
1747852122871023017,-0.11800000000000001
1747852122878709302,-0.11800000000000001
1747852122886395587,-0.128
1747852122894081872,-0.155
1747852122901768157,-0.216
1747852122909454442,-0.224
1747852122917140727,0.093
1747852122924827012,0.8220000000000001
1747852122932513297,1.614
1747852122940199582,1.782
1747852122947885867,0.716
1747852122955572152,-0.6
1747852122963258437,-0.603
1747852122970944722,-0.096
1747852122978631007,-0.199
1747852122986317292,-0.315
1747852122994003577,-0.179
1747852123001689862,-0.17400000000000002
1747852123009376147,-0.224
1747852123017062432,-0.17200000000000001
1747852123024748717,-0.14
1747852123032435002,-0.145
1747852123040121287,-0.123
1747852123047807572,-0.096
1747852123055493857,-0.081
1747852123063180142,-0.064
1747852123070866427,-0.041
1747852123078552712,-0.017
1747852123086238997,0.007
1747852123093925282,0.041
1747852123101611567,0.078
1747852123109297852,0.113
1747852123116984137,0.145
1747852123124670422,0.177
1747852123132356707,0.199
1747852123140042992,0.196
1747852123147729333,0.169,83,771
1747852123155415688,0.145
1747852123163102043,0.128
1747852123170788398,0.098
1747852123178474753,0.046
1747852123186161108,-0.019
1747852123193847463,-0.088
1747852123201533818,-0.152
1747852123209220173,-0.209
1747852123216906528,-0.248
1747852123224592883,-0.263
1747852123232279238,-0.26
1747852123239965593,-0.256
1747852123247651948,-0.251
1747852123255338303,-0.23800000000000002
1747852123263024658,-0.224
1747852123270711013,-0.214
1747852123278397368,-0.201
1747852123286083723,-0.189
1747852123293770078,-0.184
1747852123301456433,-0.179
1747852123309142788,-0.17400000000000002
1747852123316829143,-0.17200000000000001
1747852123324515498,-0.17200000000000001
1747852123332201853,-0.169
1747852123339888208,-0.164
1747852123347574563,-0.164
1747852123355260918,-0.167
1747852123362947273,-0.17200000000000001
1747852123370633628,-0.17400000000000002
1747852123378319983,-0.17400000000000002
1747852123386006338,-0.177
1747852123393692693,-0.179
1747852123401379048,-0.182
1747852123409065403,-0.179
1747852123416751758,-0.177
1747852123424438113,-0.17200000000000001
1747852123432124468,-0.169
1747852123439810823,-0.164
1747852123447497178,-0.16
1747852123455183533,-0.157
1747852123462869888,-0.157
1747852123470556243,-0.157
1747852123478242598,-0.15
1747852123485928953,-0.14200000000000002
1747852123493615308,-0.14200000000000002
1747852123501301663,-0.147
1747852123508988018,-0.14200000000000002
1747852123516674373,-0.125
1747852123524360728,-0.10300000000000001
1747852123532047083,-0.091
1747852123539733438,-0.088
1747852123547419793,-0.081
1747852123555106148,-0.083
1747852123562792503,-0.115
1747852123570478858,-0.14
1747852123578165213,-0.132
1747852123585851568,-0.12
1747852123593537923,-0.12
1747852123601224278,-0.12
1747852123608910633,-0.115
1747852123616596988,-0.115
1747852123624283343,-0.115
1747852123631969698,-0.13
1747852123639656053,-0.184
1747852123647342408,-0.243
1747852123655028763,-0.073
1747852123662715118,0.536
1747852123670401473,1.371
1747852123678087828,1.851
1747852123685774183,1.213
1747852123693460538,-0.241
1747852123701146893,-0.743
1747852123708833285,-0.216,82,756
1747852123716519919,-0.11,,736
1747852123724206553,-0.31
1747852123731893187,-0.219
1747852123739579821,-0.14
1747852123747266455,-0.196
1747852123754953089,-0.17200000000000001
1747852123762639723,-0.11800000000000001
1747852123770326357,-0.12
1747852123778012991,-0.108
1747852123785699625,-0.073
1747852123793386259,-0.056
1747852123801072893,-0.041
1747852123808759527,-0.014
1747852123816446161,0.009000000000000001
1747852123824132795,0.036000000000000004
1747852123831819429,0.068
1747852123839506063,0.10300000000000001
1747852123847192697,0.135
1747852123854879331,0.17200000000000001
1747852123862565965,0.20400000000000001
1747852123870252599,0.221
1747852123877939233,0.226
1747852123885625867,0.216
1747852123893312501,0.196
1747852123900999135,0.169
1747852123908685769,0.14
1747852123916372403,0.096
1747852123924059037,0.029
1747852123931745671,-0.046
1747852123939432305,-0.115
1747852123947118939,-0.17200000000000001
