time,ecg,hr,rr,marker
1747852561969497361,-0.041,85,682
1747852561977184064,-0.054
1747852561984870767,-0.017
1747852561992557470,0.019
1747852562000244173,0.032
1747852562007930876,0.036000000000000004
1747852562015617579,0.029
1747852562023304282,-0.024
1747852562030990985,-0.093
1747852562038677688,0.056
1747852562046364391,0.637
1747852562054051094,1.467
1747852562061737797,2.028
1747852562069424500,1.486
1747852562077111203,0.014
1747852562084797906,-0.5760000000000001
1747852562092484609,-0.066
1747852562100171312,0.083
1747852562107858015,-0.105
1747852562115544718,-0.034
1747852562123231421,0.046
1747852562130918124,0.002
1747852562138604827,0.024
1747852562146291530,0.066
1747852562153978233,0.036000000000000004
1747852562161664936,0.004
1747852562169351639,0.024
1747852562177038342,0.07100000000000001
1747852562184725045,0.135
1747852562192411748,0.201
1747852562200098451,0.233
1747852562207785154,0.214
1747852562215471857,0.194
1747852562223158560,0.20600000000000002
1747852562230845263,0.246
1747852562238531966,0.297
1747852562246218669,0.356
1747852562253905372,0.391
1747852562261592075,0.381
1747852562269278778,0.354
1747852562276965481,0.342
1747852562284652184,0.32
1747852562292338887,0.28800000000000003
1747852562300025590,0.268
1747852562307712293,0.219
1747852562315398996,0.155
1747852562323085699,0.113
1747852562330772402,0.019
1747852562338459105,-0.096
1747852562346145808,-0.11800000000000001
1747852562353832511,-0.125
1747852562361519214,-0.17200000000000001
1747852562369205917,-0.17200000000000001
1747852562376892620,-0.132
1747852562384579323,-0.125
1747852562392266026,-0.123
1747852562399952729,-0.115
1747852562407639432,-0.115
1747852562415326135,-0.105
1747852562423012838,-0.088
1747852562430699541,-0.078
1747852562438386244,-0.076
1747852562446072947,-0.066
1747852562453759650,-0.044
1747852562461446353,-0.034
1747852562469133056,-0.036000000000000004
1747852562476819759,-0.034
1747852562484506462,-0.044
1747852562492193165,-0.044
1747852562499879868,-0.022
1747852562507566571,-0.012
1747852562515253274,-0.036000000000000004
1747852562522939977,-0.068
1747852562530626740,-0.078,86,685
1747852562538313443,-0.059000000000000004,,699
1747852562546000146,-0.049
1747852562553686849,-0.044
1747852562561373552,-0.009000000000000001
1747852562569060255,0.024
1747852562576746958,0.041
1747852562584433661,0.059000000000000004
1747852562592120364,0.078
1747852562599807067,0.1
1747852562607493770,0.096
1747852562615180473,0.061
1747852562622867176,0.034
1747852562630553879,0.029
1747852562638240582,0.036000000000000004
1747852562645927285,0.049
1747852562653613988,0.054
1747852562661300691,0.064
1747852562668987394,0.068
1747852562676674097,0.039
1747852562684360800,-0.012
1747852562692047503,-0.081
1747852562699734206,-0.145
1747852562707420909,0.068
1747852562715107612,0.777
1747852562722794315,1.6540000000000001
1747852562730481018,2.0180000000000002
1747852562738167721,1.174
1747852562745854424,-0.26
1747852562753541127,-0.551
1747852562761227830,-0.029
1747852562768914533,-0.022
1747852562776601236,-0.167
1747852562784287939,-0.049
1747852562791974642,-0.009000000000000001
1747852562799661345,-0.051000000000000004
1747852562807348048,-0.012
1747852562815034751,0.029
1747852562822721454,0.039
1747852562830408157,0.068
1747852562838094860,0.11800000000000001
1747852562845781563,0.162
1747852562853468266,0.201
1747852562861154969,0.23600000000000002
1747852562868841672,0.275
1747852562876528375,0.322
1747852562884215078,0.369
1747852562891901781,0.406
1747852562899588484,0.423
1747852562907275187,0.438
1747852562914961890,0.47700000000000004
1747852562922648593,0.504
1747852562930335296,0.497
1747852562938021999,0.48
1747852562945708702,0.462
1747852562953395405,0.42
1747852562961082108,0.356
1747852562968768811,0.295
1747852562976455514,0.226
1747852562984142217,0.152
1747852562991828920,0.073
1747852562999515623,0.004
1747852563007202326,-0.036000000000000004
1747852563014889029,-0.076
1747852563022575732,-0.113
1747852563030262435,-0.13
1747852563037949138,-0.132
1747852563045635841,-0.145
1747852563053322544,-0.152
1747852563061009247,-0.145
1747852563068695950,-0.135
1747852563076382653,-0.128
1747852563084069356,-0.113
1747852563091756119,-0.105
1747852563099442822,-0.115
1747852563107129525,-0.132
1747852563114816228,-0.123
1747852563122502931,-0.105
1747852563130189634,-0.105
1747852563137876337,-0.11
1747852563145563040,-0.10300000000000001
1747852563153249743,-0.091
1747852563160936446,-0.083
1747852563168623149,-0.096
1747852563176309852,-0.128
1747852563183996555,-0.15
1747852563191683258,-0.169
1747852563199369961,-0.199
1747852563207056664,-0.189
1747852563214743367,-0.147
1747852563222430070,-0.125
1747852563230116773,-0.11800000000000001
1747852563237803476,-0.093
1747852563245490179,-0.044
1747852563253176882,0.004
1747852563260863585,0.044
1747852563268550288,0.078
1747852563276236991,0.115
1747852563283923694,0.128
1747852563291610397,0.044
1747852563299297100,-0.064
1747852563306983803,-0.08600000000000001
1747852563314670506,-0.091
1747852563322357209,-0.123
1747852563330043912,-0.11800000000000001
1747852563337730615,-0.12
1747852563345417318,-0.16
1747852563353104021,-0.169
1747852563360790724,-0.128
1747852563368477427,-0.113
1747852563376164130,-0.155
1747852563383850833,-0.061
1747852563391537536,0.425
1747852563399224239,1.213
1747852563406910942,1.8800000000000001
1747852563414597645,1.6460000000000001
1747852563422284348,0.268
1747852563429971051,-0.644
1747852563437657754,-0.253
1747852563445344457,0.066
1747852563453031160,-0.098
1747852563460717863,-0.068
1747852563468404566,0.034
1747852563476091269,-0.012
1747852563483777972,-0.017
1747852563491464675,0.032
1747852563499151378,0.044
1747852563506838081,0.07100000000000001
1747852563514524784,0.108
1747852563522211487,0.128
1747852563529898190,0.15
1747852563537584893,0.164
1747852563545271596,0.164
1747852563552958299,0.196
1747852563560645002,0.27
1747852563568331705,0.334
1747852563576018408,0.359
1747852563583705111,0.359
1747852563591391814,0.342
1747852563599078517,0.334
1747852563606765220,0.359
1747852563614451923,0.391
1747852563622138626,0.423
1747852563629825329,0.45
1747852563637512032,0.44
1747852563645198735,0.396
1747852563652885502,0.324,86,701
1747852563660572205,0.23800000000000002
1747852563668258908,0.157
1747852563675945611,0.078
1747852563683632314,0.017
1747852563691319017,-0.007
1747852563699005720,-0.019
1747852563706692423,-0.039
1747852563714379126,-0.049
1747852563722065829,-0.049
1747852563729752532,-0.054
1747852563737439235,-0.056
1747852563745125938,-0.061
1747852563752812641,-0.066
1747852563760499344,-0.066
1747852563768186047,-0.066
1747852563775872750,-0.064
1747852563783559453,-0.064
1747852563791246156,-0.061
1747852563798932859,-0.039
1747852563806619562,-0.024
1747852563814306265,-0.024
1747852563821992968,-0.024
1747852563829679671,-0.024
1747852563837366374,-0.027
1747852563845053077,-0.024
1747852563852739780,-0.027
1747852563860426483,-0.032
1747852563868113186,-0.024
1747852563875799889,0.002
1747852563883486592,0.022
1747852563891173295,0.024
1747852563898859998,0.022
1747852563906546701,0.022
1747852563914233404,0.024
1747852563921920107,0.027
1747852563929606810,0.019
1747852563937293513,0.009000000000000001
1747852563944980216,0.007
1747852563952666919,0.009000000000000001
1747852563960353622,0.012
1747852563968040325,0.012
1747852563975727028,0.024
1747852563983413731,0.044
1747852563991100434,0.034
1747852563998787137,-0.004
1747852564006473840,-0.029
1747852564014160543,-0.032
1747852564021847246,-0.034
1747852564029533949,-0.044
1747852564037220652,-0.049
1747852564044907355,-0.039
1747852564052594058,-0.032
1747852564060280761,-0.049
1747852564067967464,-0.088
1747852564075654167,-0.157
1747852564083340870,-0.13
1747852564091027573,0.273
1747852564098714276,1.043
1747852564106400979,1.809
1747852564114087682,1.819
1747852564121774385,0.553
1747852564129461088,-0.642
1747852564137147791,-0.435
1747852564144834494,0.0
1747852564152521197,-0.164
1747852564160207900,-0.20600000000000002
1747852564167894603,-0.059000000000000004
1747852564175581306,-0.076
1747852564183268009,-0.10300000000000001
1747852564190954712,-0.041
1747852564198641415,-0.019
1747852564206328118,-0.022
1747852564214014881,0.009000000000000001
1747852564221701584,0.036000000000000004
1747852564229388287,0.051000000000000004
1747852564237074990,0.068
1747852564244761693,0.088
1747852564252448396,0.113
1747852564260135099,0.15
1747852564267821802,0.187
1747852564275508505,0.221
1747852564283195208,0.258
1747852564290881911,0.292
1747852564298568614,0.32
1747852564306255317,0.332
1747852564313942020,0.329
1747852564321628723,0.312
1747852564329315426,0.29
1747852564337002129,0.268
1747852564344688832,0.228
1747852564352375535,0.169
1747852564360062238,0.10300000000000001
1747852564367748941,0.029
1747852564375435644,-0.049
1747852564383122347,-0.12
1747852564390809050,-0.169
1747852564398495753,-0.194
1747852564406182456,-0.20600000000000002
1747852564413869159,-0.20600000000000002
1747852564421555862,-0.194
1747852564429242565,-0.184
1747852564436929268,-0.169
1747852564444615971,-0.147
1747852564452302674,-0.13
1747852564459989377,-0.11800000000000001
1747852564467676080,-0.105
1747852564475362783,-0.098
1747852564483049486,-0.093
1747852564490736189,-0.088
1747852564498422892,-0.083
1747852564506109595,-0.081
1747852564513796298,-0.073
1747852564521483001,-0.068
1747852564529169704,-0.07100000000000001
1747852564536856407,-0.07100000000000001
1747852564544543110,-0.068
1747852564552229813,-0.073
1747852564559916516,-0.073
1747852564567603219,-0.066
1747852564575289922,-0.066
1747852564582976625,-0.068
1747852564590663328,-0.068
1747852564598350031,-0.064
1747852564606036734,-0.056
1747852564613723437,-0.056
1747852564621410140,-0.054
1747852564629096843,-0.051000000000000004
1747852564636783546,-0.059000000000000004
1747852564644470249,-0.066
1747852564652156952,-0.061
1747852564659843655,-0.049
1747852564667530358,-0.034
1747852564675217061,-0.019
1747852564682903764,-0.009000000000000001
1747852564690590467,-0.007
1747852564698277170,-0.009000000000000001
1747852564705963873,-0.032
1747852564713650576,-0.054
1747852564721337279,-0.051000000000000004
1747852564729023982,-0.044
1747852564736710685,-0.049
1747852564744397388,-0.049
1747852564752084091,-0.046
1747852564759770794,-0.051000000000000004
1747852564767457497,-0.061
1747852564775144260,-0.08600000000000001,86,667
1747852564782830824,-0.152,,680
1747852564790517388,-0.179
1747852564798203952,0.07100000000000001
1747852564805890516,0.733
1747852564813577080,1.568
1747852564821263644,1.969
1747852564828950208,1.12
1747852564836636772,-0.34400000000000003
1747852564844323336,-0.61
1747852564852009900,-0.07100000000000001
1747852564859696464,-0.08600000000000001
1747852564867383028,-0.251
1747852564875069592,-0.13
1747852564882756156,-0.088
1747852564890442720,-0.14
1747852564898129284,-0.10300000000000001
1747852564905815848,-0.064
1747852564913502412,-0.068
1747852564921188976,-0.054
1747852564928875540,-0.022
1747852564936562104,-0.009000000000000001
1747852564944248668,0.004
1747852564951935232,0.036000000000000004
1747852564959621796,0.061
1747852564967308360,0.081
1747852564974994924,0.108
1747852564982681488,0.145
1747852564990368052,0.182
1747852564998054616,0.221
1747852565005741180,0.253
1747852565013427744,0.27
1747852565021114308,0.28
1747852565028800872,0.28
1747852565036487436,0.26
1747852565044174000,0.233
1747852565051860564,0.201
1747852565059547128,0.155
1747852565067233692,0.091
1747852565074920256,0.014
1747852565082606820,-0.064
1747852565090293384,-0.125
1747852565097979948,-0.17400000000000002
1747852565105666512,-0.214
1747852565113353076,-0.231
1747852565121039640,-0.228
1747852565128726204,-0.226
1747852565136412768,-0.228
1747852565144099332,-0.216
1747852565151785896,-0.199
1747852565159472460,-0.187
1747852565167159024,-0.177
1747852565174845588,-0.162
1747852565182532152,-0.152
1747852565190218716,-0.145
1747852565197905280,-0.132
1747852565205591844,-0.128
1747852565213278408,-0.13
1747852565220964972,-0.128
1747852565228651536,-0.123
1747852565236338100,-0.12
1747852565244024664,-0.12
1747852565251711228,-0.115
1747852565259397792,-0.113
1747852565267084356,-0.11
1747852565274770920,-0.11
1747852565282457484,-0.115
1747852565290144048,-0.12
1747852565297830612,-0.123
1747852565305517176,-0.12
1747852565313203740,-0.125
1747852565320890304,-0.128
1747852565328576868,-0.123
1747852565336263469,-0.113
1747852565343949894,-0.108
1747852565351636319,-0.11
1747852565359322744,-0.11
1747852565367009169,-0.108
1747852565374695594,-0.1
1747852565382382019,-0.083
1747852565390068444,-0.064
1747852565397754869,-0.051000000000000004
1747852565405441294,-0.046
1747852565413127719,-0.046
1747852565420814144,-0.061
1747852565428500569,-0.088
1747852565436186994,-0.1
1747852565443873419,-0.088
1747852565451559844,-0.081
1747852565459246269,-0.083
1747852565466932694,-0.076
1747852565474619119,-0.066
1747852565482305544,-0.066
1747852565489991969,-0.078
1747852565497678394,-0.125
1747852565505364819,-0.20400000000000001
1747852565513051244,-0.155
1747852565520737669,0.275
1747852565528424094,1.043
1747852565536110519,1.782
1747852565543796944,1.75
1747852565551483369,0.462
1747852565559169794,-0.662
1747852565566856219,-0.396
1747852565574542644,-0.002
1747852565582229069,-0.201
1747852565589915494,-0.23800000000000002
1747852565597601919,-0.098
1747852565605288344,-0.12
1747852565612974769,-0.137
1747852565620661194,-0.083
1747852565628347619,-0.073
1747852565636034044,-0.076
1747852565643720469,-0.049
1747852565651406894,-0.024
1747852565659093319,0.0
1747852565666779744,0.032
1747852565674466169,0.059000000000000004
1747852565682152594,0.081
1747852565689839019,0.105
1747852565697525444,0.14
1747852565705211869,0.177
1747852565712898294,0.214
1747852565720584719,0.248
1747852565728271144,0.275
1747852565735957569,0.28500000000000003
1747852565743643994,0.28300000000000003
1747852565751330419,0.273
1747852565759016844,0.253
1747852565766703269,0.228
1747852565774389694,0.199
1747852565782076119,0.15
1747852565789762544,0.073
1747852565797448969,0.0
1747852565805135394,-0.068
1747852565812821819,-0.137
1747852565820508244,-0.189
1747852565828194669,-0.216
1747852565835881094,-0.231
1747852565843567519,-0.231
1747852565851253944,-0.214
1747852565858940369,-0.20600000000000002
1747852565866626794,-0.20600000000000002
1747852565874313219,-0.199
1747852565881999644,-0.179
1747852565889686069,-0.162
1747852565897372500,-0.147,87,701
1747852565905059203,-0.14
1747852565912745906,-0.135
1747852565920432609,-0.132
1747852565928119312,-0.132
1747852565935806015,-0.132
1747852565943492718,-0.125
1747852565951179421,-0.123
1747852565958866124,-0.12
1747852565966552827,-0.12
1747852565974239530,-0.13
1747852565981926233,-0.128
1747852565989612936,-0.11800000000000001
1747852565997299639,-0.11800000000000001
1747852566004986342,-0.115
1747852566012673045,-0.108
1747852566020359748,-0.108
1747852566028046451,-0.11
1747852566035733154,-0.11
1747852566043419857,-0.105
1747852566051106560,-0.098
1747852566058793263,-0.105
1747852566066479966,-0.105
1747852566074166669,-0.1
1747852566081853372,-0.093
1747852566089540075,-0.073
1747852566097226778,-0.056
1747852566104913481,-0.049
1747852566112600184,-0.039
1747852566120286887,-0.032
1747852566127973590,-0.051000000000000004
1747852566135660293,-0.083
1747852566143346996,-0.093
1747852566151033699,-0.081
1747852566158720402,-0.081
1747852566166407105,-0.08600000000000001
1747852566174093808,-0.073
1747852566181780511,-0.07100000000000001
1747852566189467214,-0.078
1747852566197153917,-0.088
1747852566204840620,-0.123
1747852566212527323,-0.192
1747852566220214026,-0.1
1747852566227900729,0.433
1747852566235587432,1.272
1747852566243274135,1.893
1747852566250960838,1.526
1747852566258647541,0.11800000000000001
1747852566266334244,-0.681
1747852566274020947,-0.26
1747852566281707650,-0.032
1747852566289394353,-0.219
1747852566297081056,-0.157
1747852566304767759,-0.061
1747852566312454462,-0.11800000000000001
1747852566320141165,-0.11
1747852566327827868,-0.056
1747852566335514571,-0.054
1747852566343201274,-0.044
1747852566350887977,-0.012
1747852566358574680,0.012
1747852566366261383,0.032
1747852566373948086,0.056
1747852566381634789,0.083
1747852566389321492,0.113
1747852566397008195,0.15
1747852566404694898,0.189
1747852566412381601,0.214
1747852566420068304,0.251
1747852566427755007,0.292
1747852566435441710,0.312
1747852566443128413,0.315
1747852566450815116,0.317
1747852566458501879,0.305
1747852566466188582,0.275
1747852566473875285,0.23800000000000002
1747852566481561988,0.194
1747852566489248691,0.14
1747852566496935394,0.059000000000000004
1747852566504622097,-0.027
1747852566512308800,-0.091
1747852566519995503,-0.152
1747852566527682206,-0.201
1747852566535368909,-0.224
1747852566543055612,-0.23600000000000002
1747852566550742315,-0.241
1747852566558429018,-0.231
1747852566566115721,-0.216
1747852566573802424,-0.211
1747852566581489127,-0.20400000000000001
1747852566589175830,-0.192
1747852566596862533,-0.177
1747852566604549236,-0.164
1747852566612235939,-0.155
1747852566619922642,-0.157
1747852566627609345,-0.162
1747852566635296048,-0.147
1747852566642982751,-0.135
1747852566650669454,-0.14
1747852566658356157,-0.14200000000000002
1747852566666042860,-0.137
1747852566673729563,-0.14
1747852566681416266,-0.145
1747852566689102969,-0.14
1747852566696789672,-0.135
1747852566704476375,-0.137
1747852566712163078,-0.135
1747852566719849781,-0.13
1747852566727536484,-0.13
1747852566735223187,-0.137
1747852566742909890,-0.137
1747852566750596593,-0.135
1747852566758283296,-0.125
1747852566765969999,-0.105
1747852566773656702,-0.093
1747852566781343405,-0.08600000000000001
1747852566789030108,-0.073
1747852566796716811,-0.068
1747852566804403514,-0.096
1747852566812090217,-0.128
1747852566819776920,-0.13
1747852566827463623,-0.11800000000000001
1747852566835150326,-0.115
1747852566842837029,-0.11
1747852566850523732,-0.105
1747852566858210435,-0.10300000000000001
1747852566865897138,-0.108
1747852566873583841,-0.128
1747852566881270544,-0.177
1747852566888957247,-0.251
1747852566896643950,-0.157
1747852566904330653,0.381
1747852566912017356,1.233
1747852566919704059,1.843
1747852566927390762,1.425
1747852566935077465,-0.002
1747852566942764168,-0.743
1747852566950450871,-0.292
1747852566958137574,-0.08600000000000001
1747852566965824277,-0.28
1747852566973510980,-0.214
1747852566981197683,-0.123
1747852566988884386,-0.17400000000000002
1747852566996571089,-0.162
1747852567004257792,-0.108
1747852567011944495,-0.108
1747852567019631262,-0.098,87,710
1747852567027317965,-0.068
1747852567035004668,-0.051000000000000004
1747852567042691371,-0.036000000000000004
1747852567050378074,-0.009000000000000001
1747852567058064777,0.014
1747852567065751480,0.041
1747852567073438183,0.07100000000000001
1747852567081124886,0.10300000000000001
1747852567088811589,0.137
1747852567096498292,0.17200000000000001
1747852567104184995,0.20400000000000001
1747852567111871698,0.226
1747852567119558401,0.228
1747852567127245104,0.219
1747852567134931807,0.201
1747852567142618510,0.179
1747852567150305213,0.147
1747852567157991916,0.1
1747852567165678619,0.036000000000000004
1747852567173365322,-0.039
1747852567181052025,-0.113
1747852567188738728,-0.177
1747852567196425431,-0.224
1747852567204112134,-0.258
1747852567211798837,-0.28
1747852567219485540,-0.28800000000000003
1747852567227172243,-0.28800000000000003
1747852567234858946,-0.278
1747852567242545649,-0.265
1747852567250232352,-0.256
1747852567257919055,-0.243
1747852567265605758,-0.233
1747852567273292461,-0.228
1747852567280979164,-0.221
1747852567288665867,-0.209
1747852567296352570,-0.199
1747852567304039273,-0.199
1747852567311725976,-0.199
1747852567319412679,-0.196
1747852567327099382,-0.192
1747852567334786085,-0.187
1747852567342472788,-0.184
1747852567350159491,-0.187
1747852567357846194,-0.187
1747852567365532897,-0.184
1747852567373219600,-0.187
1747852567380906303,-0.187
1747852567388593006,-0.184
1747852567396279709,-0.179
1747852567403966412,-0.17400000000000002
1747852567411653115,-0.169
1747852567419339818,-0.167
1747852567427026521,-0.164
1747852567434713224,-0.162
1747852567442399927,-0.167
1747852567450086630,-0.17200000000000001
1747852567457773333,-0.162
1747852567465460036,-0.14
1747852567473146739,-0.12
1747852567480833442,-0.11800000000000001
1747852567488520145,-0.108
1747852567496206848,-0.093
1747852567503893551,-0.11
1747852567511580254,-0.14200000000000002
1747852567519266957,-0.15
1747852567526953660,-0.14200000000000002
1747852567534640363,-0.14200000000000002
1747852567542327066,-0.137
1747852567550013769,-0.125
1747852567557700472,-0.12
1747852567565387175,-0.125
1747852567573073878,-0.137
1747852567580760641,-0.184,86,720
1747852567588447135,-0.251,,705
1747852567596133629,-0.167
1747852567603820123,0.302
1747852567611506617,1.093
1747852567619193111,1.809
1747852567626879605,1.649
1747852567634566099,0.263
1747852567642252593,-0.748
1747852567649939087,-0.379
1747852567657625581,-0.044
1747852567665312075,-0.268
1747852567672998569,-0.275
1747852567680685063,-0.145
1747852567688371557,-0.182
1747852567696058051,-0.194
1747852567703744545,-0.135
1747852567711431039,-0.12
1747852567719117533,-0.115
1747852567726804027,-0.083
1747852567734490521,-0.061
1747852567742177015,-0.049
1747852567749863509,-0.019
1747852567757550003,0.012
1747852567765236497,0.036000000000000004
1747852567772922991,0.068
1747852567780609485,0.10300000000000001
1747852567788295979,0.135
1747852567795982473,0.17200000000000001
1747852567803668967,0.20600000000000002
1747852567811355461,0.233
1747852567819041955,0.246
1747852567826728449,0.243
1747852567834414943,0.228
1747852567842101437,0.209
1747852567849787931,0.184
1747852567857474425,0.145
1747852567865160919,0.088
1747852567872847413,0.017
1747852567880533907,-0.064
1747852567888220401,-0.137
1747852567895906895,-0.194
1747852567903593389,-0.233
1747852567911279883,-0.258
1747852567918966377,-0.268
1747852567926652871,-0.268
1747852567934339365,-0.265
1747852567942025859,-0.256
1747852567949712353,-0.241
1747852567957398847,-0.228
1747852567965085341,-0.216
1747852567972771835,-0.20600000000000002
1747852567980458329,-0.196
1747852567988144823,-0.192
1747852567995831317,-0.187
1747852568003517811,-0.184
1747852568011204305,-0.184
1747852568018890799,-0.182
1747852568026577293,-0.177
1747852568034263787,-0.17400000000000002
1747852568041950281,-0.17400000000000002
1747852568049636775,-0.17400000000000002
1747852568057323269,-0.17400000000000002
1747852568065009763,-0.17400000000000002
1747852568072696257,-0.17200000000000001
1747852568080382751,-0.169
1747852568088069245,-0.167
1747852568095755739,-0.167
1747852568103442233,-0.167
1747852568111128727,-0.162
1747852568118815221,-0.155
1747852568126501715,-0.152
1747852568134188209,-0.152
1747852568141874763,-0.147
1747852568149561257,-0.15
1747852568157247751,-0.155
1747852568164934245,-0.147
1747852568172620739,-0.13
1747852568180307233,-0.113
1747852568187993727,-0.1
1747852568195680221,-0.091
1747852568203366715,-0.088
1747852568211053209,-0.10300000000000001
1747852568218739703,-0.132
1747852568226426197,-0.15
1747852568234112691,-0.14
1747852568241799185,-0.13
1747852568249485679,-0.13
1747852568257172173,-0.128
1747852568264858667,-0.125
1747852568272545161,-0.123
1747852568280231655,-0.13
1747852568287918149,-0.167
1747852568295604643,-0.23800000000000002
1747852568303291137,-0.219
1747852568310977631,0.152
1747852568318664125,0.893
1747852568326350619,1.676
1747852568334037113,1.794
1747852568341723607,0.622
1747852568349410101,-0.644
1747852568357096595,-0.521
1747852568364783089,-0.059000000000000004
1747852568372469583,-0.221
1747852568380156077,-0.302
1747852568387842571,-0.157
1747852568395529065,-0.167
1747852568403215559,-0.20400000000000001
1747852568410902053,-0.147
1747852568418588547,-0.12
1747852568426275041,-0.123
1747852568433961535,-0.098
1747852568441648029,-0.07100000000000001
1747852568449334523,-0.054
1747852568457021017,-0.022
1747852568464707511,0.004
1747852568472394005,0.027
1747852568480080499,0.054
1747852568487766993,0.091
1747852568495453487,0.128
1747852568503139981,0.16
1747852568510826475,0.192
1747852568518512969,0.216
1747852568526199463,0.233
1747852568533885957,0.23600000000000002
1747852568541572451,0.224
1747852568549258945,0.209
1747852568556945439,0.187
1747852568564631933,0.152
1747852568572318427,0.1
1747852568580004921,0.032
1747852568587691415,-0.044
1747852568595377909,-0.113
1747852568603064403,-0.169
1747852568610750897,-0.214
1747852568618437391,-0.243
1747852568626123885,-0.256
1747852568633810379,-0.258
1747852568641496873,-0.253
1747852568649183367,-0.246
1747852568656869861,-0.233
1747852568664556355,-0.219
1747852568672242849,-0.20600000000000002
1747852568679929343,-0.196
1747852568687615837,-0.189
1747852568695302331,-0.182
1747852568702988881,-0.177,86,676
1747852568710675584,-0.17200000000000001
1747852568718362287,-0.169
1747852568726048990,-0.164
1747852568733735693,-0.16
1747852568741422396,-0.16
1747852568749109099,-0.16
1747852568756795802,-0.157
1747852568764482505,-0.157
1747852568772169208,-0.157
1747852568779855911,-0.157
1747852568787542614,-0.155
1747852568795229317,-0.152
1747852568802916020,-0.15
1747852568810602723,-0.15
1747852568818289426,-0.14200000000000002
1747852568825976129,-0.14
1747852568833662832,-0.14
1747852568841349535,-0.132
1747852568849036238,-0.125
1747852568856722941,-0.123
1747852568864409644,-0.123
1747852568872096347,-0.12
1747852568879783050,-0.12
1747852568887469753,-0.11800000000000001
1747852568895156456,-0.11
1747852568902843159,-0.091
1747852568910529862,-0.068
1747852568918216565,-0.059000000000000004
1747852568925903268,-0.061
1747852568933589971,-0.059000000000000004
1747852568941276674,-0.073
1747852568948963377,-0.11
1747852568956650080,-0.125
1747852568964336783,-0.11
1747852568972023486,-0.1
1747852568979710189,-0.10300000000000001
1747852568987396892,-0.1
1747852568995083595,-0.098
1747852569002770298,-0.096
1747852569010457001,-0.1
1747852569018143704,-0.123
1747852569025830407,-0.189
1747852569033517110,-0.231
1747852569041203813,-0.012
1747852569048890516,0.612
1747852569056577219,1.435
1747852569064263922,1.9020000000000001
1747852569071950625,1.181
1747852569079637328,-0.28300000000000003
1747852569087324031,-0.669
1747852569095010734,-0.145
1747852569102697437,-0.11
1747852569110384140,-0.29
1747852569118070843,-0.184
1747852569125757546,-0.13
1747852569133444249,-0.179
1747852569141130952,-0.145
1747852569148817655,-0.1
1747852569156504358,-0.10300000000000001
1747852569164191061,-0.08600000000000001
1747852569171877764,-0.054
1747852569179564467,-0.039
1747852569187251170,-0.019
1747852569194937873,0.009000000000000001
1747852569202624576,0.034
1747852569210311279,0.059000000000000004
1747852569217997982,0.088
1747852569225684685,0.123
1747852569233371388,0.155
1747852569241058091,0.189
1747852569248744794,0.219
1747852569256431497,0.233
1747852569264118260,0.241
1747852569271804963,0.23600000000000002
1747852569279491666,0.221
1747852569287178369,0.196
1747852569294865072,0.167
1747852569302551775,0.132
1747852569310238478,0.076
1747852569317925181,0.004
1747852569325611884,-0.066
1747852569333298587,-0.13
1747852569340985290,-0.179
1747852569348671993,-0.214
1747852569356358696,-0.23600000000000002
1747852569364045399,-0.251
1747852569371732102,-0.248
1747852569379418805,-0.233
1747852569387105508,-0.219
1747852569394792211,-0.214
1747852569402478914,-0.20600000000000002
1747852569410165617,-0.189
1747852569417852320,-0.177
1747852569425539023,-0.17200000000000001
1747852569433225726,-0.167
1747852569440912429,-0.162
1747852569448599132,-0.162
1747852569456285835,-0.16
1747852569463972538,-0.157
1747852569471659241,-0.155
1747852569479345944,-0.152
1747852569487032647,-0.152
1747852569494719350,-0.152
1747852569502406053,-0.15
1747852569510092756,-0.147
1747852569517779459,-0.145
1747852569525466162,-0.147
1747852569533152865,-0.152
1747852569540839568,-0.15
1747852569548526271,-0.14
1747852569556212974,-0.132
1747852569563899677,-0.132
1747852569571586380,-0.13
1747852569579273083,-0.13
1747852569586959786,-0.132
1747852569594646489,-0.12
1747852569602333192,-0.113
1747852569610019895,-0.123
1747852569617706598,-0.125
1747852569625393301,-0.11
1747852569633080004,-0.091
1747852569640766707,-0.073
1747852569648453410,-0.061
1747852569656140113,-0.056
1747852569663826816,-0.049
1747852569671513519,-0.056
1747852569679200222,-0.091
1747852569686886925,-0.113
1747852569694573628,-0.105
1747852569702260331,-0.1
1747852569709947034,-0.1
1747852569717633737,-0.096
1747852569725320440,-0.093
1747852569733007143,-0.088
1747852569740693846,-0.083
1747852569748380549,-0.10300000000000001
1747852569756067252,-0.152
1747852569763753955,-0.224
1747852569771440658,-0.152
1747852569779127361,0.317
1747852569786814064,1.122
1747852569794500767,1.814
1747852569802187470,1.6320000000000001
1747852569809874173,0.29
1747852569817560876,-0.6940000000000001
1747852569825247643,-0.364,86,701
1747852569832933998,-0.039,,709
1747852569840620353,-0.233
1747852569848306708,-0.224
1747852569855993063,-0.10300000000000001
1747852569863679418,-0.147
1747852569871365773,-0.155
1747852569879052128,-0.08600000000000001
1747852569886738483,-0.07100000000000001
1747852569894424838,-0.073
1747852569902111193,-0.041
1747852569909797548,-0.019
1747852569917483903,-0.007
1747852569925170258,0.019
1747852569932856613,0.051000000000000004
1747852569940542968,0.078
1747852569948229323,0.108
1747852569955915678,0.14200000000000002
1747852569963602033,0.17400000000000002
1747852569971288388,0.214
1747852569978974743,0.253
1747852569986661098,0.275
1747852569994347453,0.275
1747852570002033808,0.273
1747852570009720163,0.268
1747852570017406518,0.251
1747852570025092873,0.228
1747852570032779228,0.192
1747852570040465583,0.135
1747852570048151938,0.066
1747852570055838293,-0.007
1747852570063524648,-0.083
1747852570071211003,-0.14
1747852570078897358,-0.182
1747852570086583713,-0.219
1747852570094270068,-0.23600000000000002
1747852570101956423,-0.23600000000000002
1747852570109642778,-0.231
1747852570117329133,-0.216
1747852570125015488,-0.20400000000000001
1747852570132701843,-0.201
1747852570140388198,-0.194
1747852570148074553,-0.17400000000000002
1747852570155760908,-0.164
1747852570163447263,-0.162
1747852570171133618,-0.152
1747852570178819973,-0.147
1747852570186506328,-0.145
1747852570194192683,-0.137
1747852570201879038,-0.132
1747852570209565393,-0.135
1747852570217251748,-0.137
1747852570224938103,-0.13
1747852570232624458,-0.12
1747852570240310813,-0.128
1747852570247997168,-0.135
1747852570255683523,-0.13
1747852570263369878,-0.123
1747852570271056233,-0.12
1747852570278742588,-0.11800000000000001
1747852570286428943,-0.12
1747852570294115298,-0.11800000000000001
1747852570301801653,-0.115
1747852570309488008,-0.11
1747852570317174363,-0.105
1747852570324860718,-0.108
1747852570332547073,-0.108
1747852570340233428,-0.093
1747852570347919783,-0.068
1747852570355606138,-0.054
1747852570363292493,-0.049
1747852570370978848,-0.046
1747852570378665203,-0.051000000000000004
1747852570386351591,-0.078
1747852570394038225,-0.11
1747852570401724859,-0.105
1747852570409411493,-0.08600000000000001
1747852570417098127,-0.081
1747852570424784761,-0.083
1747852570432471395,-0.091
1747852570440158029,-0.088
1747852570447844663,-0.081
1747852570455531297,-0.10300000000000001
1747852570463217931,-0.16
1747852570470904565,-0.219
1747852570478591199,-0.07100000000000001
1747852570486277833,0.539
1747852570493964467,1.393
1747852570501651101,1.8900000000000001
1747852570509337735,1.289
1747852570517024369,-0.147
1747852570524711003,-0.684
1747852570532397637,-0.184
1747852570540084271,-0.073
1747852570547770905,-0.248
1747852570555457539,-0.145
1747852570563144173,-0.076
1747852570570830807,-0.132
1747852570578517441,-0.105
1747852570586204075,-0.056
1747852570593890709,-0.059000000000000004
1747852570601577343,-0.046
1747852570609263977,-0.017
1747852570616950611,0.0
1747852570624637245,0.014
1747852570632323879,0.041
1747852570640010513,0.07100000000000001
1747852570647697147,0.1
1747852570655383781,0.132
1747852570663070415,0.169
1747852570670757049,0.20400000000000001
1747852570678443683,0.23600000000000002
1747852570686130317,0.265
1747852570693816951,0.28800000000000003
1747852570701503585,0.295
1747852570709190219,0.28300000000000003
1747852570716876853,0.265
1747852570724563487,0.241
1747852570732250121,0.20600000000000002
1747852570739936755,0.16
1747852570747623389,0.096
1747852570755310023,0.014
1747852570762996657,-0.064
1747852570770683291,-0.132
1747852570778369925,-0.187
1747852570786056559,-0.219
1747852570793743193,-0.241
1747852570801429827,-0.253
1747852570809116461,-0.253
1747852570816803095,-0.246
1747852570824489729,-0.23600000000000002
1747852570832176363,-0.226
1747852570839862997,-0.219
1747852570847549631,-0.20400000000000001
1747852570855236265,-0.187
1747852570862922899,-0.179
1747852570870609533,-0.179
1747852570878296167,-0.17200000000000001
1747852570885982801,-0.162
1747852570893669435,-0.16
1747852570901356069,-0.16
1747852570909042703,-0.157
1747852570916729337,-0.152
1747852570924415971,-0.15
1747852570932102605,-0.15
1747852570939789239,-0.147
1747852570947475883,-0.147,86,733
1747852570955162586,-0.15
1747852570962849289,-0.147
1747852570970535992,-0.145
1747852570978222695,-0.147
1747852570985909398,-0.145
1747852570993596101,-0.14200000000000002
1747852571001282804,-0.14200000000000002
1747852571008969507,-0.137
1747852571016656210,-0.132
1747852571024342913,-0.128
1747852571032029616,-0.13
1747852571039716319,-0.135
1747852571047403022,-0.137
1747852571055089725,-0.128
1747852571062776428,-0.11
1747852571070463131,-0.096
1747852571078149834,-0.083
1747852571085836537,-0.073
1747852571093523240,-0.07100000000000001
1747852571101209943,-0.08600000000000001
1747852571108896646,-0.115
1747852571116583349,-0.13
1747852571124270052,-0.123
1747852571131956755,-0.115
1747852571139643458,-0.115
1747852571147330161,-0.11
1747852571155016864,-0.105
1747852571162703567,-0.105
1747852571170390270,-0.11800000000000001
1747852571178076973,-0.155
1747852571185763676,-0.224
1747852571193450379,-0.194
1747852571201137082,0.214
1747852571208823785,0.992
1747852571216510488,1.76
1747852571224197191,1.7650000000000001
1747852571231883894,0.494
1747852571239570597,-0.686
1747852571247257300,-0.46
1747852571254944003,-0.039
1747852571262630706,-0.224
1747852571270317409,-0.268
1747852571278004112,-0.128
1747852571285690815,-0.157
1747852571293377518,-0.187
1747852571301064221,-0.125
1747852571308750924,-0.10300000000000001
1747852571316437627,-0.105
1747852571324124330,-0.078
1747852571331811033,-0.051000000000000004
1747852571339497736,-0.041
1747852571347184439,-0.022
1747852571354871142,0.004
1747852571362557845,0.024
1747852571370244548,0.046
1747852571377931251,0.083
1747852571385617954,0.12
1747852571393304657,0.147
1747852571400991360,0.179
1747852571408678063,0.20400000000000001
1747852571416364766,0.209
1747852571424051469,0.20400000000000001
1747852571431738172,0.199
1747852571439424875,0.17400000000000002
1747852571447111578,0.145
1747852571454798281,0.12
1747852571462484984,0.073
1747852571470171687,0.004
1747852571477858390,-0.081
1747852571485545093,-0.169
1747852571493231796,-0.228
1747852571500918499,-0.256
1747852571508605262,-0.28300000000000003,86,733
1747852571516291826,-0.307
1747852571523978390,-0.317
1747852571531664954,-0.305
1747852571539351518,-0.29
1747852571547038082,-0.29
1747852571554724646,-0.265
1747852571562411210,-0.233
1747852571570097774,-0.241
1747852571577784338,-0.241
1747852571585470902,-0.221
1747852571593157466,-0.23600000000000002
1747852571600844030,-0.23800000000000002
1747852571608530594,-0.199
1747852571616217158,-0.216
1747852571623903722,-0.256
1747852571631590286,-0.23600000000000002
1747852571639276850,-0.199
1747852571646963414,-0.184
1747852571654649978,-0.196
1747852571662336542,-0.219
1747852571670023106,-0.211
1747852571677709670,-0.20600000000000002
1747852571685396234,-0.219
1747852571693082798,-0.187
1747852571700769362,-0.167
1747852571708455926,-0.201
1747852571716142490,-0.226
1747852571723829054,-0.20600000000000002
1747852571731515618,-0.169
1747852571739202182,-0.177
1747852571746888746,-0.196
1747852571754575310,-0.169
1747852571762261874,-0.14
1747852571769948438,-0.16
1747852571777635002,-0.189
1747852571785321566,-0.17200000000000001
1747852571793008130,-0.145
1747852571800694694,-0.147
1747852571808381258,-0.13
1747852571816067822,-0.083
1747852571823754386,-0.10300000000000001
1747852571831440950,-0.157
1747852571839127514,-0.15
1747852571846814078,-0.132
1747852571854500642,-0.145
1747852571862187206,-0.128
1747852571869873770,-0.11
1747852571877560334,-0.135
1747852571885246898,-0.152
1747852571892933462,-0.132
1747852571900620026,-0.123
1747852571908306590,-0.152
1747852571915993154,-0.216
1747852571923679718,-0.137
1747852571931366282,0.315
1747852571939052846,1.063
1747852571946739410,1.696
1747852571954425974,1.425
1747852571962112538,0.11
1747852571969799102,-0.664
1747852571977485666,-0.292
1747852571985172230,-0.1
1747852571992858794,-0.29
1747852572000545358,-0.224
1747852572008231922,-0.11800000000000001
1747852572015918486,-0.177
1747852572023605050,-0.167
1747852572031291614,-0.093
1747852572038978178,-0.1
1747852572046664742,-0.125
1747852572054351306,-0.078
1747852572062037870,-0.034
1747852572069724471,-0.029
1747852572077410896,-0.007
1747852572085097321,0.024
1747852572092783746,0.049
1747852572100470171,0.068
1747852572108156596,0.096
1747852572115843021,0.137
1747852572123529446,0.17200000000000001
1747852572131215871,0.179
1747852572138902296,0.199
1747852572146588721,0.231
1747852572154275146,0.233
1747852572161961571,0.209
1747852572169647996,0.192
1747852572177334421,0.179
1747852572185020846,0.152
1747852572192707271,0.105
1747852572200393696,0.032
1747852572208080121,-0.041
1747852572215766546,-0.1
1747852572223452971,-0.152
1747852572231139396,-0.194
1747852572238825821,-0.224
1747852572246512246,-0.246
1747852572254198671,-0.256
1747852572261885096,-0.241
1747852572269571521,-0.226
1747852572277257946,-0.231
1747852572284944371,-0.224
1747852572292630796,-0.196
1747852572300317221,-0.182
1747852572308003646,-0.187
1747852572315690071,-0.194
1747852572323376496,-0.177
1747852572331062921,-0.164
1747852572338749346,-0.169
1747852572346435771,-0.167
1747852572354122196,-0.155
1747852572361808621,-0.164
1747852572369495046,-0.177
1747852572377181471,-0.16
1747852572384867896,-0.152
1747852572392554321,-0.169
1747852572400240746,-0.164
1747852572407927171,-0.14
1747852572415613596,-0.14200000000000002
1747852572423300021,-0.164
1747852572430986446,-0.167
1747852572438672871,-0.147
1747852572446359296,-0.14200000000000002
1747852572454045721,-0.15
1747852572461732146,-0.15
1747852572469418571,-0.145
1747852572477104996,-0.14200000000000002
1747852572484791421,-0.132
1747852572492477846,-0.113
1747852572500164271,-0.10300000000000001
1747852572507850696,-0.098
1747852572515537121,-0.078
1747852572523223546,-0.083
1747852572530909971,-0.11800000000000001
1747852572538596396,-0.135
1747852572546282821,-0.128
1747852572553969246,-0.123
1747852572561655671,-0.11
1747852572569342096,-0.098
1747852572577028521,-0.1
1747852572584714946,-0.10300000000000001
1747852572592401371,-0.098
1747852572600087796,-0.115
1747852572607774221,-0.169
1747852572615460646,-0.194
1747852572623147071,0.022
1747852572630833502,0.617,85,704
1747852572638520205,1.403,,719
1747852572646206908,1.853
1747852572653893611,1.154
1747852572661580314,-0.253
1747852572669267017,-0.612
1747852572676953720,-0.13
1747852572684640423,-0.108
1747852572692327126,-0.243
1747852572700013829,-0.132
1747852572707700532,-0.091
1747852572715387235,-0.132
1747852572723073938,-0.098
1747852572730760641,-0.064
1747852572738447344,-0.056
1747852572746134047,-0.032
1747852572753820750,-0.007
1747852572761507453,0.012
1747852572769194156,0.039
1747852572776880859,0.068
1747852572784567562,0.091
1747852572792254265,0.115
1747852572799940968,0.145
1747852572807627671,0.182
1747852572815314374,0.224
1747852572823001077,0.265
1747852572830687780,0.297
1747852572838374483,0.317
1747852572846061186,0.327
1747852572853747889,0.324
1747852572861434592,0.307
1747852572869121295,0.28
1747852572876807998,0.248
1747852572884494701,0.201
1747852572892181404,0.132
1747852572899868107,0.049
1747852572907554810,-0.024
1747852572915241513,-0.08600000000000001
1747852572922928216,-0.14
1747852572930614919,-0.177
1747852572938301622,-0.199
1747852572945988325,-0.211
1747852572953675028,-0.211
1747852572961361731,-0.201
1747852572969048434,-0.189
1747852572976735137,-0.179
1747852572984421840,-0.167
1747852572992108543,-0.16
1747852572999795246,-0.152
1747852573007481949,-0.14
1747852573015168652,-0.128
1747852573022855355,-0.12
1747852573030542058,-0.115
1747852573038228761,-0.11800000000000001
1747852573045915464,-0.11800000000000001
1747852573053602167,-0.11
1747852573061288870,-0.105
1747852573068975573,-0.108
1747852573076662276,-0.113
1747852573084348979,-0.115
1747852573092035682,-0.115
1747852573099722385,-0.115
1747852573107409088,-0.108
1747852573115095791,-0.11
1747852573122782494,-0.115
1747852573130469197,-0.108
1747852573138155900,-0.098
1747852573145842603,-0.1
1747852573153529306,-0.10300000000000001
1747852573161216009,-0.098
1747852573168902712,-0.10300000000000001
1747852573176589415,-0.108
1747852573184276118,-0.1
1747852573191962881,-0.083
1747852573199649584,-0.061
1747852573207336287,-0.049
1747852573215022990,-0.049
1747852573222709693,-0.049
1747852573230396396,-0.051000000000000004
1747852573238083099,-0.078
1747852573245769802,-0.098
1747852573253456505,-0.091
1747852573261143208,-0.081
1747852573268829911,-0.078
1747852573276516614,-0.078
1747852573284203317,-0.081
1747852573291890020,-0.078
1747852573299576723,-0.088
1747852573307263426,-0.128
1747852573314950129,-0.199
1747852573322636832,-0.169
1747852573330323535,0.246
1747852573338010238,1.048
1747852573345696941,1.797
1747852573353383644,1.7570000000000001
1747852573361070347,0.514
1747852573368757050,-0.632
1747852573376443753,-0.445
1747852573384130456,-0.034
1747852573391817159,-0.192
1747852573399503862,-0.243
1747852573407190565,-0.115
1747852573414877268,-0.13
1747852573422563971,-0.152
1747852573430250674,-0.098
1747852573437937377,-0.078
1747852573445624080,-0.076
1747852573453310783,-0.046
1747852573460997486,-0.027
1747852573468684189,-0.017
1747852573476370892,0.012
1747852573484057595,0.041
1747852573491744298,0.066
1747852573499431001,0.091
1747852573507117704,0.125
1747852573514804407,0.167
1747852573522491110,0.20400000000000001
1747852573530177813,0.23600000000000002
1747852573537864516,0.268
1747852573545551219,0.28800000000000003
1747852573553237922,0.28800000000000003
1747852573560924625,0.275
1747852573568611328,0.256
1747852573576298031,0.228
1747852573583984734,0.189
1747852573591671437,0.128
1747852573599358140,0.044
1747852573607044843,-0.054
1747852573614731546,-0.14
1747852573622418249,-0.187
1747852573630104952,-0.211
1747852573637791655,-0.246
1747852573645478358,-0.28
1747852573653165061,-0.3
1747852573660851764,-0.295
1747852573668538467,-0.258
1747852573676225170,-0.226
1747852573683911873,-0.228
1747852573691598576,-0.228
1747852573699285279,-0.216
1747852573706971982,-0.209
1747852573714658685,-0.201
1747852573722345388,-0.194
1747852573730032091,-0.192
1747852573737718794,-0.182
1747852573745405497,-0.17400000000000002
1747852573753092264,-0.184,85,729
1747852573760778967,-0.187
1747852573768465670,-0.179
1747852573776152373,-0.177
1747852573783839076,-0.177
1747852573791525779,-0.177
1747852573799212482,-0.182
1747852573806899185,-0.179
1747852573814585888,-0.17200000000000001
1747852573822272591,-0.17200000000000001
1747852573829959294,-0.182
1747852573837645997,-0.182
1747852573845332700,-0.17200000000000001
1747852573853019403,-0.167
1747852573860706106,-0.177
1747852573868392809,-0.179
1747852573876079512,-0.162
1747852573883766215,-0.145
1747852573891452918,-0.132
1747852573899139621,-0.123
1747852573906826324,-0.113
1747852573914513027,-0.11
1747852573922199730,-0.135
1747852573929886433,-0.169
1747852573937573136,-0.164
1747852573945259839,-0.14200000000000002
1747852573952946542,-0.14200000000000002
1747852573960633245,-0.147
1747852573968319948,-0.132
1747852573976006651,-0.128
1747852573983693354,-0.137
1747852573991380057,-0.157
1747852573999066760,-0.20600000000000002
1747852574006753463,-0.28
1747852574014440166,-0.17200000000000001
1747852574022126869,0.364
1747852574029813572,1.201
1747852574037500275,1.846
1747852574045186978,1.504
1747852574052873681,0.061
1747852574060560384,-0.785
1747852574068247087,-0.332
1747852574075933790,-0.066
1747852574083620493,-0.3
1747852574091307196,-0.27
1747852574098993899,-0.147
1747852574106680602,-0.196
1747852574114367305,-0.20400000000000001
1747852574122054008,-0.14
1747852574129740711,-0.128
1747852574137427414,-0.13
1747852574145114117,-0.1
1747852574152800820,-0.081
1747852574160487523,-0.061
1747852574168174226,-0.029
1747852574175860929,-0.002
1747852574183547632,0.019
1747852574191234335,0.051000000000000004
1747852574198921038,0.088
1747852574206607741,0.123
1747852574214294444,0.16
1747852574221981147,0.196
1747852574229667850,0.228
1747852574237354553,0.23800000000000002
1747852574245041256,0.23600000000000002
1747852574252727959,0.226
1747852574260414662,0.20600000000000002
1747852574268101365,0.17400000000000002
1747852574275788068,0.128
1747852574283474771,0.064
1747852574291161474,-0.009000000000000001
1747852574298848177,-0.088
1747852574306534880,-0.167
1747852574314221643,-0.228
1747852574321908137,-0.265
1747852574329594631,-0.28800000000000003
1747852574337281125,-0.3
1747852574344967619,-0.297
1747852574352654113,-0.28800000000000003
1747852574360340607,-0.275
1747852574368027101,-0.263
1747852574375713595,-0.253
1747852574383400089,-0.241
1747852574391086583,-0.224
1747852574398773077,-0.214
1747852574406459571,-0.20600000000000002
1747852574414146065,-0.201
1747852574421832559,-0.194
1747852574429519053,-0.192
1747852574437205547,-0.192
1747852574444892041,-0.187
1747852574452578535,-0.184
1747852574460265029,-0.187
1747852574467951523,-0.179
1747852574475638017,-0.177
1747852574483324511,-0.177
1747852574491011005,-0.17400000000000002
1747852574498697499,-0.169
1747852574506383993,-0.17200000000000001
1747852574514070487,-0.17200000000000001
1747852574521756981,-0.169
1747852574529443475,-0.167
1747852574537129969,-0.16
1747852574544816463,-0.15
1747852574552502957,-0.15
1747852574560189451,-0.15
1747852574567875945,-0.152
1747852574575562439,-0.157
1747852574583248933,-0.152
1747852574590935427,-0.132
1747852574598621921,-0.11800000000000001
1747852574606308415,-0.113
1747852574613994909,-0.108
1747852574621681403,-0.091
1747852574629367897,-0.088
1747852574637054391,-0.11800000000000001
1747852574644740885,-0.137
1747852574652427379,-0.132
1747852574660113873,-0.125
1747852574667800367,-0.12
1747852574675486861,-0.113
1747852574683173355,-0.11
1747852574690859849,-0.113
1747852574698546343,-0.113
1747852574706232837,-0.13
1747852574713919331,-0.194
1747852574721605825,-0.243
1747852574729292319,-0.034
1747852574736978813,0.598
1747852574744665307,1.437
1747852574752351801,1.922
1747852574760038295,1.208
1747852574767724789,-0.28500000000000003
1747852574775411283,-0.6910000000000001
1747852574783097777,-0.147
1747852574790784271,-0.105
1747852574798470765,-0.3
1747852574806157259,-0.187
1747852574813843753,-0.128
1747852574821530247,-0.187
1747852574829216741,-0.152
1747852574836903235,-0.10300000000000001
1747852574844589729,-0.113
1747852574852276223,-0.10300000000000001
1747852574859962717,-0.061
1747852574867649211,-0.034
1747852574875335765,-0.022,85,697
1747852574883022259,0.002,,703
1747852574890708753,0.032
1747852574898395247,0.059000000000000004
1747852574906081741,0.08600000000000001
1747852574913768235,0.123
1747852574921454729,0.157
1747852574929141223,0.189
1747852574936827717,0.219
1747852574944514211,0.246
1747852574952200705,0.258
1747852574959887199,0.256
1747852574967573693,0.241
1747852574975260187,0.219
1747852574982946681,0.187
1747852574990633175,0.147
1747852574998319669,0.088
1747852575006006163,0.007
1747852575013692657,-0.073
1747852575021379151,-0.14
1747852575029065645,-0.192
1747852575036752139,-0.231
1747852575044438633,-0.248
1747852575052125127,-0.253
1747852575059811621,-0.251
1747852575067498115,-0.243
1747852575075184609,-0.231
1747852575082871103,-0.224
1747852575090557597,-0.214
1747852575098244091,-0.199
1747852575105930585,-0.184
1747852575113617079,-0.177
1747852575121303573,-0.17400000000000002
1747852575128990067,-0.167
1747852575136676561,-0.164
1747852575144363055,-0.164
1747852575152049549,-0.167
1747852575159736043,-0.164
1747852575167422537,-0.157
1747852575175109031,-0.152
1747852575182795525,-0.152
1747852575190482019,-0.152
1747852575198168513,-0.152
1747852575205855007,-0.155
1747852575213541501,-0.155
1747852575221227995,-0.15
1747852575228914489,-0.145
1747852575236600983,-0.14200000000000002
1747852575244287477,-0.14200000000000002
1747852575251973971,-0.135
1747852575259660465,-0.13
1747852575267346959,-0.13
1747852575275033453,-0.128
1747852575282719947,-0.12
1747852575290406441,-0.115
1747852575298092935,-0.12
1747852575305779429,-0.123
1747852575313465923,-0.12
1747852575321152417,-0.115
1747852575328838911,-0.096
1747852575336525405,-0.078
1747852575344211899,-0.07100000000000001
1747852575351898393,-0.064
1747852575359584887,-0.064
1747852575367271381,-0.08600000000000001
1747852575374957875,-0.113
1747852575382644369,-0.11
1747852575390330863,-0.10300000000000001
1747852575398017357,-0.1
1747852575405703851,-0.096
1747852575413390345,-0.088
1747852575421076839,-0.088
1747852575428763333,-0.098
1747852575436449883,-0.12
1747852575444136586,-0.17200000000000001
1747852575451823289,-0.224
1747852575459509992,-0.059000000000000004
1747852575467196695,0.529
1747852575474883398,1.368
1747852575482570101,1.9120000000000001
1747852575490256804,1.319
1747852575497943507,-0.157
1747852575505630210,-0.6990000000000001
1747852575513316913,-0.184
1747852575521003616,-0.078
1747852575528690319,-0.275
1747852575536377022,-0.182
1747852575544063725,-0.108
1747852575551750428,-0.177
1747852575559437131,-0.162
1747852575567123834,-0.1
1747852575574810537,-0.096
1747852575582497240,-0.08600000000000001
1747852575590183943,-0.049
1747852575597870646,-0.032
1747852575605557349,-0.017
1747852575613244052,0.014
1747852575620930755,0.039
1747852575628617458,0.059000000000000004
1747852575636304161,0.091
1747852575643990864,0.135
1747852575651677567,0.169
1747852575659364270,0.189
1747852575667050973,0.226
1747852575674737676,0.258
1747852575682424379,0.265
1747852575690111082,0.253
1747852575697797785,0.23800000000000002
1747852575705484488,0.224
1747852575713171191,0.199
1747852575720857894,0.157
1747852575728544597,0.10300000000000001
1747852575736231300,0.032
1747852575743918003,-0.051000000000000004
1747852575751604706,-0.11800000000000001
1747852575759291409,-0.167
1747852575766978112,-0.209
1747852575774664815,-0.233
1747852575782351518,-0.23800000000000002
1747852575790038221,-0.233
1747852575797724924,-0.241
1747852575805411627,-0.23800000000000002
1747852575813098330,-0.216
1747852575820785033,-0.199
1747852575828471736,-0.187
1747852575836158439,-0.177
1747852575843845142,-0.167
1747852575851531845,-0.16
1747852575859218548,-0.155
1747852575866905251,-0.157
1747852575874591954,-0.155
1747852575882278657,-0.152
1747852575889965360,-0.15
1747852575897652063,-0.145
1747852575905338766,-0.14200000000000002
1747852575913025469,-0.14200000000000002
1747852575920712172,-0.14200000000000002
1747852575928398875,-0.14200000000000002
1747852575936085578,-0.14200000000000002
1747852575943772281,-0.137
1747852575951458984,-0.128
1747852575959145687,-0.128
1747852575966832390,-0.132
1747852575974519093,-0.137
1747852575982205796,-0.137
1747852575989892499,-0.11800000000000001
1747852575997579262,-0.105,85,689
1747852576005265965,-0.115
1747852576012952668,-0.12
1747852576020639371,-0.113
1747852576028326074,-0.10300000000000001
1747852576036012777,-0.088
1747852576043699480,-0.078
1747852576051386183,-0.076
1747852576059072886,-0.056
1747852576066759589,-0.044
1747852576074446292,-0.07100000000000001
1747852576082132995,-0.1
1747852576089819698,-0.098
1747852576097506401,-0.091
1747852576105193104,-0.093
1747852576112879807,-0.091
1747852576120566510,-0.08600000000000001
1747852576128253213,-0.076
1747852576135939916,-0.076
1747852576143626619,-0.096
1747852576151313322,-0.135
1747852576159000025,-0.209
1747852576166686728,-0.14200000000000002
1747852576174373431,0.366
1747852576182060134,1.223
1747852576189746837,1.8800000000000001
1747852576197433540,1.545
1747852576205120243,0.14
1747852576212806946,-0.6990000000000001
1747852576220493649,-0.295
1747852576228180352,-0.051000000000000004
1747852576235867055,-0.23800000000000002
1747852576243553758,-0.184
1747852576251240461,-0.083
1747852576258927164,-0.135
1747852576266613867,-0.13
1747852576274300570,-0.078
1747852576281987273,-0.078
1747852576289673976,-0.066
1747852576297360679,-0.019
1747852576305047382,0.004
1747852576312734085,0.012
1747852576320420788,0.036000000000000004
1747852576328107491,0.068
1747852576335794194,0.098
1747852576343480897,0.123
1747852576351167600,0.15
1747852576358854303,0.187
1747852576366541006,0.23800000000000002
1747852576374227709,0.27
1747852576381914412,0.275
1747852576389601115,0.295
1747852576397287818,0.307
1747852576404974521,0.28
1747852576412661224,0.248
1747852576420347927,0.228
1747852576428034630,0.189
1747852576435721333,0.125
1747852576443408036,0.049
1747852576451094739,-0.034
1747852576458781442,-0.11
1747852576466468145,-0.164
1747852576474154848,-0.209
1747852576481841551,-0.246
1747852576489528254,-0.26
1747852576497214957,-0.251
1747852576504901660,-0.241
1747852576512588363,-0.228
1747852576520275066,-0.221
1747852576527961769,-0.214
1747852576535648472,-0.201
1747852576543335175,-0.192
1747852576551021878,-0.187
1747852576558708645,-0.179,85,713
1747852576566395000,-0.169
1747852576574081355,-0.162
1747852576581767710,-0.162
1747852576589454065,-0.16
1747852576597140420,-0.155
1747852576604826775,-0.15
1747852576612513130,-0.15
1747852576620199485,-0.157
1747852576627885840,-0.162
1747852576635572195,-0.155
1747852576643258550,-0.14200000000000002
1747852576650944905,-0.14200000000000002
1747852576658631260,-0.152
1747852576666317615,-0.15
1747852576674003970,-0.14200000000000002
1747852576681690325,-0.145
1747852576689376680,-0.145
1747852576697063035,-0.145
1747852576704749390,-0.147
1747852576712435745,-0.14200000000000002
1747852576720122100,-0.12
1747852576727808455,-0.1
1747852576735494810,-0.098
1747852576743181165,-0.093
1747852576750867520,-0.083
1747852576758553875,-0.10300000000000001
1747852576766240230,-0.135
1747852576773926585,-0.14
1747852576781612940,-0.13
1747852576789299295,-0.128
1747852576796985650,-0.123
1747852576804672005,-0.11800000000000001
1747852576812358360,-0.115
1747852576820044715,-0.113
1747852576827731070,-0.125
1747852576835417425,-0.17200000000000001
1747852576843103780,-0.251
1747852576850790135,-0.201
1747852576858476490,0.263
1747852576866162845,1.085
1747852576873849200,1.7770000000000001
1747852576881535555,1.585
1747852576889221910,0.251
1747852576896908265,-0.726
1747852576904594620,-0.396
1747852576912280975,-0.07100000000000001
1747852576919967330,-0.26
1747852576927653685,-0.248
1747852576935340040,-0.13
1747852576943026395,-0.169
1747852576950712750,-0.177
1747852576958399105,-0.12
1747852576966085460,-0.113
1747852576973771815,-0.113
1747852576981458170,-0.081
1747852576989144525,-0.056
1747852576996830880,-0.041
1747852577004517235,-0.019
1747852577012203590,0.004
1747852577019889945,0.029
1747852577027576300,0.061
1747852577035262655,0.098
1747852577042949010,0.132
1747852577050635365,0.164
1747852577058321720,0.194
1747852577066008075,0.219
1747852577073694430,0.231
1747852577081380785,0.228
1747852577089067140,0.216
1747852577096753495,0.196
1747852577104439850,0.164
1747852577112126205,0.12
1747852577119812593,0.061
1747852577127499227,-0.014
1747852577135185861,-0.091
1747852577142872495,-0.15
1747852577150559129,-0.20600000000000002
1747852577158245763,-0.256
1747852577165932397,-0.27
1747852577173619031,-0.273
1747852577181305665,-0.28300000000000003
1747852577188992299,-0.28
1747852577196678933,-0.265
1747852577204365567,-0.251
1747852577212052201,-0.23800000000000002
1747852577219738835,-0.228
1747852577227425469,-0.219
1747852577235112103,-0.209
1747852577242798737,-0.201
1747852577250485371,-0.196
1747852577258172005,-0.187
1747852577265858639,-0.184
1747852577273545273,-0.184
1747852577281231907,-0.182
1747852577288918541,-0.17400000000000002
1747852577296605175,-0.17200000000000001
1747852577304291809,-0.17200000000000001
1747852577311978443,-0.167
1747852577319665077,-0.169
1747852577327351711,-0.17200000000000001
1747852577335038345,-0.169
1747852577342724979,-0.162
1747852577350411613,-0.164
1747852577358098247,-0.164
1747852577365784881,-0.16
1747852577373471515,-0.155
1747852577381158149,-0.152
1747852577388844783,-0.145
1747852577396531417,-0.14200000000000002
1747852577404218051,-0.147
1747852577411904685,-0.15
1747852577419591319,-0.147
1747852577427277953,-0.14
1747852577434964587,-0.123
1747852577442651221,-0.108
1747852577450337855,-0.098
1747852577458024489,-0.088
1747852577465711123,-0.076
1747852577473397757,-0.088
1747852577481084391,-0.123
1747852577488771025,-0.137
1747852577496457659,-0.13
1747852577504144293,-0.11800000000000001
1747852577511830927,-0.113
1747852577519517561,-0.11
1747852577527204195,-0.108
1747852577534890829,-0.105
1747852577542577463,-0.12
1747852577550264097,-0.164
1747852577557950731,-0.231
1747852577565637365,-0.164
1747852577573323999,0.292
1747852577581010633,1.09
1747852577588697267,1.814
1747852577596383901,1.683
1747852577604070535,0.332
1747852577611757169,-0.711
1747852577619443803,-0.386
1747852577627130437,-0.036000000000000004
1747852577634817071,-0.253
1747852577642503705,-0.275
1747852577650190339,-0.14
1747852577657876973,-0.167
1747852577665563607,-0.184
1747852577673250241,-0.128
1747852577680936885,-0.113,85,730
1747852577688623588,-0.113,,709
1747852577696310291,-0.083
1747852577703996994,-0.061
1747852577711683697,-0.044
1747852577719370400,-0.012
1747852577727057103,0.009000000000000001
1747852577734743806,0.032
1747852577742430509,0.064
1747852577750117212,0.1
1747852577757803915,0.132
1747852577765490618,0.167
1747852577773177321,0.199
1747852577780864024,0.228
1747852577788550727,0.251
1747852577796237430,0.253
1747852577803924133,0.241
1747852577811610836,0.224
1747852577819297539,0.199
1747852577826984242,0.16
1747852577834670945,0.108
1747852577842357648,0.034
1747852577850044351,-0.044
1747852577857731054,-0.113
1747852577865417757,-0.17200000000000001
1747852577873104460,-0.221
1747852577880791163,-0.248
1747852577888477866,-0.258
1747852577896164569,-0.256
1747852577903851272,-0.251
1747852577911537975,-0.243
1747852577919224678,-0.231
1747852577926911381,-0.216
1747852577934598084,-0.209
1747852577942284787,-0.196
1747852577949971490,-0.182
1747852577957658193,-0.17200000000000001
1747852577965344896,-0.167
1747852577973031599,-0.167
1747852577980718302,-0.162
1747852577988405005,-0.16
1747852577996091708,-0.157
1747852578003778411,-0.157
1747852578011465114,-0.152
1747852578019151817,-0.152
1747852578026838520,-0.152
1747852578034525223,-0.155
1747852578042211926,-0.155
1747852578049898629,-0.152
1747852578057585332,-0.145
1747852578065272035,-0.14200000000000002
1747852578072958738,-0.14
1747852578080645441,-0.14
1747852578088332144,-0.14
1747852578096018847,-0.132
1747852578103705550,-0.13
1747852578111392253,-0.128
1747852578119078956,-0.125
1747852578126765659,-0.125
1747852578134452362,-0.132
1747852578142139065,-0.13
1747852578149825768,-0.113
1747852578157512471,-0.096
1747852578165199174,-0.08600000000000001
1747852578172885877,-0.076
1747852578180572580,-0.066
1747852578188259283,-0.068
1747852578195945986,-0.088
1747852578203632689,-0.113
1747852578211319392,-0.11800000000000001
1747852578219006095,-0.11
1747852578226692798,-0.105
1747852578234379501,-0.10300000000000001
1747852578242066264,-0.098
1747852578249752828,-0.093
1747852578257439392,-0.098
1747852578265125956,-0.12
1747852578272812520,-0.182
1747852578280499084,-0.23600000000000002
1747852578288185648,-0.059000000000000004
1747852578295872212,0.536
1747852578303558776,1.361
1747852578311245340,1.907
1747852578318931904,1.346
1747852578326618468,-0.135
1747852578334305032,-0.716
1747852578341991596,-0.196
1747852578349678160,-0.073
1747852578357364724,-0.28800000000000003
1747852578365051288,-0.211
1747852578372737852,-0.128
1747852578380424416,-0.184
1747852578388110980,-0.167
1747852578395797544,-0.11
1747852578403484108,-0.108
1747852578411170672,-0.1
1747852578418857236,-0.068
1747852578426543800,-0.049
1747852578434230364,-0.029
1747852578441916928,-0.004
1747852578449603492,0.022
1747852578457290056,0.049
1747852578464976620,0.078
1747852578472663184,0.11
1747852578480349748,0.14200000000000002
1747852578488036312,0.177
1747852578495722876,0.211
1747852578503409440,0.23600000000000002
1747852578511096004,0.243
1747852578518782568,0.246
1747852578526469132,0.233
1747852578534155696,0.209
1747852578541842260,0.179
1747852578549528824,0.137
1747852578557215388,0.076
1747852578564901952,0.002
1747852578572588516,-0.07100000000000001
1747852578580275080,-0.145
1747852578587961644,-0.20400000000000001
1747852578595648208,-0.241
1747852578603334772,-0.256
1747852578611021336,-0.263
1747852578618707900,-0.268
1747852578626394464,-0.26
1747852578634081028,-0.251
1747852578641767592,-0.23800000000000002
1747852578649454156,-0.226
1747852578657140720,-0.216
1747852578664827284,-0.209
1747852578672513848,-0.199
1747852578680200412,-0.189
1747852578687886976,-0.184
1747852578695573540,-0.182
1747852578703260104,-0.179
1747852578710946668,-0.177
1747852578718633232,-0.17400000000000002
1747852578726319796,-0.17200000000000001
1747852578734006360,-0.17400000000000002
1747852578741692924,-0.177
1747852578749379488,-0.17400000000000002
1747852578757066052,-0.17200000000000001
1747852578764752616,-0.169
1747852578772439180,-0.164
1747852578780125744,-0.162
1747852578787812308,-0.162
1747852578795498872,-0.162
1747852578803185473,-0.162,85,685
1747852578810871898,-0.16
1747852578818558323,-0.155
1747852578826244748,-0.147
1747852578833931173,-0.14
1747852578841617598,-0.14200000000000002
1747852578849304023,-0.152
1747852578856990448,-0.152
1747852578864676873,-0.14
1747852578872363298,-0.125
1747852578880049723,-0.113
1747852578887736148,-0.098
1747852578895422573,-0.083
1747852578903108998,-0.073
1747852578910795423,-0.078
1747852578918481848,-0.113
1747852578926168273,-0.137
1747852578933854698,-0.13
1747852578941541123,-0.115
1747852578949227548,-0.11800000000000001
1747852578956913973,-0.11800000000000001
1747852578964600398,-0.115
1747852578972286823,-0.11
1747852578979973248,-0.105
1747852578987659673,-0.13
1747852578995346098,-0.199
1747852579003032523,-0.243
1747852579010718948,-0.029
1747852579018405373,0.6
1747852579026091798,1.425
1747852579033778223,1.893
1747852579041464648,1.184
1747852579049151073,-0.278
1747852579056837498,-0.681
1747852579064523923,-0.16
1747852579072210348,-0.115
1747852579079896773,-0.29
1747852579087583198,-0.187
1747852579095269623,-0.13
1747852579102956048,-0.187
1747852579110642473,-0.15
1747852579118328898,-0.1
1747852579126015323,-0.11
1747852579133701748,-0.093
1747852579141388173,-0.054
1747852579149074598,-0.044
1747852579156761023,-0.034
1747852579164447448,0.002
1747852579172133873,0.036000000000000004
1747852579179820298,0.061
1747852579187506723,0.091
1747852579195193148,0.132
1747852579202879573,0.17200000000000001
1747852579210565998,0.20400000000000001
1747852579218252423,0.233
1747852579225938848,0.256
1747852579233625273,0.263
1747852579241311698,0.258
1747852579248998123,0.241
1747852579256684548,0.226
1747852579264370973,0.20600000000000002
1747852579272057398,0.16
1747852579279743823,0.091
1747852579287430248,0.017
1747852579295116673,-0.061
1747852579302803098,-0.14
1747852579310489523,-0.199
1747852579318175948,-0.228
1747852579325862373,-0.243
1747852579333548798,-0.26
1747852579341235223,-0.27
1747852579348921648,-0.253
1747852579356608073,-0.231
1747852579364294504,-0.226
1747852579371981207,-0.216
1747852579379667910,-0.199
1747852579387354613,-0.194
1747852579395041316,-0.189
1747852579402728019,-0.177
1747852579410414722,-0.167
1747852579418101425,-0.169
1747852579425788128,-0.17200000000000001
1747852579433474831,-0.16
1747852579441161534,-0.152
1747852579448848237,-0.162
1747852579456534940,-0.164
1747852579464221643,-0.155
1747852579471908346,-0.16
1747852579479595049,-0.167
1747852579487281752,-0.155
1747852579494968455,-0.145
1747852579502655158,-0.147
1747852579510341861,-0.145
1747852579518028564,-0.14200000000000002
1747852579525715267,-0.14200000000000002
1747852579533401970,-0.14200000000000002
1747852579541088673,-0.13
1747852579548775376,-0.128
1747852579556462079,-0.145
1747852579564148782,-0.147
1747852579571835485,-0.125
1747852579579522188,-0.105
1747852579587208891,-0.093
1747852579594895594,-0.088
1747852579602582297,-0.076
1747852579610269000,-0.066
1747852579617955703,-0.073
1747852579625642406,-0.10300000000000001
1747852579633329109,-0.13
1747852579641015812,-0.132
1747852579648702515,-0.11
1747852579656389218,-0.098
1747852579664075921,-0.10300000000000001
1747852579671762624,-0.1
1747852579679449327,-0.096
1747852579687136030,-0.105
1747852579694822733,-0.128
1747852579702509436,-0.194
1747852579710196139,-0.243
1747852579717882842,0.0
1747852579725569545,0.6960000000000001
1747852579733256248,1.5310000000000001
1747852579740942951,1.875
1747852579748629654,1.024
1747852579756316357,-0.391
1747852579764003060,-0.642
1747852579771689763,-0.13
1747852579779376466,-0.145
1747852579787063169,-0.27
1747852579794749872,-0.145
1747852579802436575,-0.123
1747852579810123278,-0.164
1747852579817809981,-0.115
1747852579825496684,-0.081
1747852579833183387,-0.088
1747852579840870090,-0.066
1747852579848556793,-0.032
1747852579856243496,-0.022
1747852579863930199,-0.009000000000000001
1747852579871616902,0.027
1747852579879303605,0.061
1747852579886990308,0.091
1747852579894677011,0.128
1747852579902363714,0.169
1747852579910050417,0.199
1747852579917737120,0.231
1747852579925423883,0.263,85,715
1747852579933110586,0.273,,720
1747852579940797289,0.273
1747852579948483992,0.275
1747852579956170695,0.27
1747852579963857398,0.243
1747852579971544101,0.196
1747852579979230804,0.14200000000000002
1747852579986917507,0.081
1747852579994604210,-0.004
1747852580002290913,-0.098
1747852580009977616,-0.169
1747852580017664319,-0.211
1747852580025351022,-0.243
1747852580033037725,-0.27
1747852580040724428,-0.278
1747852580048411131,-0.265
1747852580056097834,-0.258
1747852580063784537,-0.253
1747852580071471240,-0.241
1747852580079157943,-0.228
1747852580086844646,-0.224
1747852580094531349,-0.209
1747852580102218052,-0.196
1747852580109904755,-0.196
1747852580117591458,-0.194
1747852580125278161,-0.184
1747852580132964864,-0.179
1747852580140651567,-0.182
1747852580148338270,-0.179
1747852580156024973,-0.17400000000000002
1747852580163711676,-0.17400000000000002
1747852580171398379,-0.177
1747852580179085082,-0.17400000000000002
1747852580186771785,-0.169
1747852580194458488,-0.17200000000000001
1747852580202145191,-0.17400000000000002
1747852580209831894,-0.17400000000000002
1747852580217518597,-0.17200000000000001
1747852580225205300,-0.162
1747852580232892003,-0.16
1747852580240578706,-0.162
1747852580248265409,-0.162
1747852580255952112,-0.16
1747852580263638815,-0.162
1747852580271325518,-0.16
1747852580279012221,-0.145
1747852580286698924,-0.125
1747852580294385627,-0.115
1747852580302072330,-0.11
1747852580309759033,-0.096
1747852580317445736,-0.1
1747852580325132439,-0.135
1747852580332819142,-0.155
1747852580340505845,-0.145
1747852580348192548,-0.137
1747852580355879251,-0.14
1747852580363565954,-0.135
1747852580371252657,-0.125
1747852580378939360,-0.12
1747852580386626063,-0.132
1747852580394312766,-0.162
1747852580401999469,-0.226
1747852580409686172,-0.268
1747852580417372875,-0.027
1747852580425059578,0.657
1747852580432746281,1.518
1747852580440432984,1.907
1747852580448119687,1.038
1747852580455806390,-0.425
1747852580463493093,-0.681
1747852580471179796,-0.145
1747852580478866499,-0.162
1747852580486553266,-0.317
1747852580494239969,-0.189
1747852580501926672,-0.155
1747852580509613375,-0.209
1747852580517300078,-0.164
1747852580524986781,-0.12
1747852580532673484,-0.125
1747852580540360187,-0.108
1747852580548046890,-0.076
1747852580555733593,-0.064
1747852580563420296,-0.044
1747852580571106999,-0.017
1747852580578793702,0.009000000000000001
1747852580586480405,0.041
1747852580594167108,0.073
1747852580601853811,0.108
1747852580609540514,0.14200000000000002
1747852580617227217,0.179
1747852580624913920,0.216
1747852580632600623,0.241
1747852580640287326,0.241
1747852580647974029,0.233
1747852580655660732,0.221
1747852580663347435,0.194
1747852580671034138,0.157
1747852580678720841,0.113
1747852580686407544,0.044
1747852580694094247,-0.041
1747852580701780950,-0.12
1747852580709467653,-0.182
1747852580717154356,-0.231
1747852580724841059,-0.263
1747852580732527762,-0.28300000000000003
1747852580740214465,-0.292
1747852580747901168,-0.29
1747852580755587871,-0.275
1747852580763274574,-0.26
1747852580770961277,-0.253
1747852580778647980,-0.243
1747852580786334683,-0.226
1747852580794021386,-0.211
1747852580801708089,-0.20400000000000001
1747852580809394792,-0.201
1747852580817081495,-0.192
1747852580824768198,-0.184
1747852580832454901,-0.184
1747852580840141604,-0.182
1747852580847828307,-0.177
1747852580855515010,-0.177
1747852580863201713,-0.177
1747852580870888416,-0.17400000000000002
1747852580878575119,-0.17200000000000001
1747852580886261822,-0.17200000000000001
1747852580893948525,-0.17200000000000001
1747852580901635228,-0.169
1747852580909321931,-0.17200000000000001
1747852580917008634,-0.167
1747852580924695337,-0.16
1747852580932382040,-0.157
1747852580940068743,-0.155
1747852580947755446,-0.15
1747852580955442149,-0.145
1747852580963128852,-0.14200000000000002
1747852580970815555,-0.14
1747852580978502258,-0.14200000000000002
1747852580986188961,-0.145
1747852580993875664,-0.14200000000000002
1747852581001562367,-0.128
1747852581009249070,-0.113
1747852581016935773,-0.098
1747852581024622476,-0.083
1747852581032309179,-0.07100000000000001
1747852581039995882,-0.076
1747852581047682645,-0.1,85,722
1747852581055369348,-0.125
1747852581063056051,-0.123
1747852581070742754,-0.115
1747852581078429457,-0.115
1747852581086116160,-0.11
1747852581093802863,-0.108
1747852581101489566,-0.108
1747852581109176269,-0.108
1747852581116862972,-0.128
1747852581124549675,-0.182
1747852581132236378,-0.231
1747852581139923081,-0.07100000000000001
1747852581147609784,0.494
1747852581155296487,1.317
1747852581162983190,1.905
1747852581170669893,1.395
1747852581178356596,-0.093
1747852581186043299,-0.731
1747852581193730002,-0.219
1747852581201416705,-0.07100000000000001
1747852581209103408,-0.297
1747852581216790111,-0.224
1747852581224476814,-0.128
1747852581232163517,-0.182
1747852581239850220,-0.167
1747852581247536923,-0.113
1747852581255223626,-0.11
1747852581262910329,-0.1
1747852581270597032,-0.068
1747852581278283735,-0.051000000000000004
1747852581285970438,-0.032
1747852581293657141,-0.002
1747852581301343844,0.024
1747852581309030547,0.049
1747852581316717250,0.081
1747852581324403953,0.113
1747852581332090656,0.15
1747852581339777359,0.189
1747852581347464062,0.224
1747852581355150765,0.248
1747852581362837468,0.263
1747852581370524171,0.263
1747852581378210874,0.251
1747852581385897577,0.231
1747852581393584280,0.20400000000000001
1747852581401270983,0.164
1747852581408957686,0.10300000000000001
1747852581416644389,0.024
1747852581424331092,-0.059000000000000004
1747852581432017795,-0.13
1747852581439704498,-0.187
1747852581447391201,-0.224
1747852581455077904,-0.241
1747852581462764607,-0.253
1747852581470451310,-0.256
1747852581478138013,-0.248
1747852581485824716,-0.23600000000000002
1747852581493511419,-0.226
1747852581501198122,-0.216
1747852581508884825,-0.201
1747852581516571528,-0.189
1747852581524258231,-0.179
1747852581531944934,-0.17400000000000002
1747852581539631637,-0.169
1747852581547318340,-0.162
1747852581555005043,-0.16
1747852581562691746,-0.16
1747852581570378449,-0.16
1747852581578065152,-0.155
1747852581585751855,-0.147
1747852581593438558,-0.152
1747852581601125261,-0.155
1747852581608812024,-0.152,85,706
1747852581616498588,-0.147
1747852581624185152,-0.147
1747852581631871716,-0.145
1747852581639558280,-0.14200000000000002
1747852581647244844,-0.14200000000000002
1747852581654931408,-0.14200000000000002
1747852581662617972,-0.137
1747852581670304536,-0.132
1747852581677991100,-0.128
1747852581685677664,-0.125
1747852581693364228,-0.125
1747852581701050792,-0.125
1747852581708737356,-0.125
1747852581716423920,-0.123
1747852581724110484,-0.12
1747852581731797048,-0.11
1747852581739483612,-0.088
1747852581747170176,-0.068
1747852581754856740,-0.064
1747852581762543304,-0.061
1747852581770229868,-0.061
1747852581777916432,-0.08600000000000001
1747852581785602996,-0.113
1747852581793289560,-0.11
1747852581800976124,-0.096
1747852581808662688,-0.096
1747852581816349252,-0.096
1747852581824035816,-0.088
1747852581831722380,-0.08600000000000001
1747852581839408944,-0.091
1747852581847095508,-0.108
1747852581854782072,-0.157
1747852581862468636,-0.219
1747852581870155200,-0.11
1747852581877841764,0.384
1747852581885528328,1.181
1747852581893214892,1.861
1747852581900901456,1.582
1747852581908588020,0.164
1747852581916274584,-0.706
1747852581923961148,-0.297
1747852581931647712,-0.044
1747852581939334276,-0.26
1747852581947020840,-0.226
1747852581954707404,-0.115
1747852581962393968,-0.164
1747852581970080532,-0.164
1747852581977767096,-0.105
1747852581985453660,-0.1
1747852581993140224,-0.096
1747852582000826788,-0.056
1747852582008513352,-0.039
1747852582016199916,-0.029
1747852582023886480,0.0
1747852582031573044,0.032
1747852582039259608,0.054
1747852582046946172,0.083
1747852582054632736,0.11800000000000001
1747852582062319300,0.15
1747852582070005864,0.187
1747852582077692428,0.219
1747852582085378992,0.241
1747852582093065556,0.256
1747852582100752120,0.268
1747852582108438684,0.258
1747852582116125248,0.231
1747852582123811812,0.20400000000000001
1747852582131498376,0.17200000000000001
1747852582139184940,0.115
1747852582146871504,0.039
1747852582154558068,-0.044
1747852582162244632,-0.115
1747852582169931233,-0.164
1747852582177617658,-0.209
1747852582185304083,-0.243
1747852582192990508,-0.251
1747852582200676933,-0.248
1747852582208363358,-0.251
1747852582216049783,-0.23800000000000002
1747852582223736208,-0.228
1747852582231422633,-0.221
1747852582239109058,-0.20400000000000001
1747852582246795483,-0.192
1747852582254481908,-0.184
1747852582262168333,-0.177
1747852582269854758,-0.169
1747852582277541183,-0.164
1747852582285227608,-0.16
1747852582292914033,-0.16
1747852582300600458,-0.164
1747852582308286883,-0.167
1747852582315973308,-0.16
1747852582323659733,-0.152
1747852582331346158,-0.152
1747852582339032583,-0.147
1747852582346719008,-0.145
1747852582354405433,-0.152
1747852582362091858,-0.15
1747852582369778283,-0.137
1747852582377464708,-0.14
1747852582385151133,-0.15
1747852582392837558,-0.14
1747852582400523983,-0.128
1747852582408210408,-0.128
1747852582415896833,-0.135
1747852582423583258,-0.123
1747852582431269683,-0.11
1747852582438956108,-0.115
1747852582446642533,-0.12
1747852582454328958,-0.12
1747852582462015383,-0.113
1747852582469701808,-0.091
1747852582477388233,-0.07100000000000001
1747852582485074658,-0.061
1747852582492761083,-0.056
1747852582500447508,-0.056
1747852582508133933,-0.068
1747852582515820358,-0.096
1747852582523506783,-0.108
1747852582531193208,-0.098
1747852582538879633,-0.088
1747852582546566058,-0.091
1747852582554252483,-0.093
1747852582561938908,-0.08600000000000001
1747852582569625333,-0.078
1747852582577311758,-0.091
1747852582584998183,-0.135
1747852582592684608,-0.20400000000000001
1747852582600371033,-0.157
1747852582608057458,0.28
1747852582615743883,1.078
1747852582623430308,1.799
1747852582631116733,1.696
1747852582638803158,0.401
1747852582646489583,-0.659
1747852582654176008,-0.388
1747852582661862433,-0.029
1747852582669548858,-0.216
1747852582677235283,-0.231
1747852582684921708,-0.1
1747852582692608133,-0.137
1747852582700294558,-0.164
1747852582707980983,-0.10300000000000001
1747852582715667408,-0.076
1747852582723353833,-0.076
1747852582731040264,-0.046,85,699
1747852582738726967,-0.019,,725
1747852582746413670,-0.004
1747852582754100373,0.014
1747852582761787076,0.039
1747852582769473779,0.066
1747852582777160482,0.105
1747852582784847185,0.135
1747852582792533888,0.164
1747852582800220591,0.209
1747852582807907294,0.243
1747852582815593997,0.265
1747852582823280700,0.292
1747852582830967403,0.297
1747852582838654106,0.28
1747852582846340809,0.263
1747852582854027512,0.23600000000000002
1747852582861714215,0.199
1747852582869400918,0.145
1747852582877087621,0.066
1747852582884774324,-0.022
1747852582892461027,-0.093
1747852582900147730,-0.152
1747852582907834433,-0.20600000000000002
1747852582915521136,-0.241
1747852582923207839,-0.246
1747852582930894542,-0.246
1747852582938581245,-0.251
1747852582946267948,-0.256
1747852582953954651,-0.246
1747852582961641354,-0.226
1747852582969328057,-0.20600000000000002
1747852582977014760,-0.194
1747852582984701463,-0.192
1747852582992388166,-0.187
1747852583000074869,-0.17200000000000001
1747852583007761572,-0.167
1747852583015448275,-0.164
1747852583023134978,-0.164
1747852583030821681,-0.162
1747852583038508384,-0.15
1747852583046195087,-0.147
1747852583053881790,-0.155
1747852583061568493,-0.16
1747852583069255196,-0.16
1747852583076941899,-0.155
1747852583084628602,-0.14
1747852583092315305,-0.145
1747852583100002008,-0.157
1747852583107688711,-0.147
1747852583115375414,-0.145
1747852583123062117,-0.155
1747852583130748820,-0.15
1747852583138435523,-0.14200000000000002
1747852583146122226,-0.14200000000000002
1747852583153808929,-0.132
1747852583161495632,-0.12
1747852583169182335,-0.115
1747852583176869038,-0.10300000000000001
1747852583184555741,-0.08600000000000001
1747852583192242444,-0.083
1747852583199929147,-0.10300000000000001
1747852583207615850,-0.123
1747852583215302553,-0.135
1747852583222989256,-0.137
1747852583230675959,-0.13
1747852583238362662,-0.11800000000000001
1747852583246049365,-0.11800000000000001
1747852583253736068,-0.115
1747852583261422771,-0.108
1747852583269109474,-0.12
1747852583276796177,-0.16
1747852583284482880,-0.228
1747852583292169643,-0.219
1747852583299856346,0.157
1747852583307543049,0.9500000000000001
1747852583315229752,1.708
1747852583322916455,1.701
1747852583330603158,0.497
1747852583338289861,-0.659
1747852583345976564,-0.484
1747852583353663267,-0.066
1747852583361349970,-0.231
1747852583369036673,-0.268
1747852583376723376,-0.125
1747852583384410079,-0.147
1747852583392096782,-0.17400000000000002
1747852583399783485,-0.11800000000000001
1747852583407470188,-0.10300000000000001
1747852583415156891,-0.10300000000000001
1747852583422843594,-0.064
1747852583430530297,-0.041
1747852583438217000,-0.039
1747852583445903703,-0.014
1747852583453590406,0.022
1747852583461277109,0.049
1747852583468963812,0.081
1747852583476650515,0.115
1747852583484337218,0.15
1747852583492023921,0.189
1747852583499710624,0.226
1747852583507397327,0.251
1747852583515084030,0.268
1747852583522770733,0.273
1747852583530457436,0.258
1747852583538144139,0.231
1747852583545830842,0.201
1747852583553517545,0.164
1747852583561204248,0.098
1747852583568890951,0.014
1747852583576577654,-0.064
1747852583584264357,-0.135
1747852583591951060,-0.201
1747852583599637763,-0.253
1747852583607324466,-0.28300000000000003
1747852583615011169,-0.295
1747852583622697872,-0.295
1747852583630384575,-0.29
1747852583638071278,-0.28
1747852583645757981,-0.27
1747852583653444684,-0.263
1747852583661131387,-0.243
1747852583668818090,-0.224
1747852583676504793,-0.219
1747852583684191496,-0.216
1747852583691878199,-0.20600000000000002
1747852583699564902,-0.201
1747852583707251605,-0.199
1747852583714938308,-0.192
1747852583722625011,-0.189
1747852583730311714,-0.192
1747852583737998417,-0.189
1747852583745685120,-0.182
1747852583753371823,-0.179
1747852583761058526,-0.182
1747852583768745229,-0.184
1747852583776431932,-0.182
1747852583784118635,-0.177
1747852583791805338,-0.17400000000000002
1747852583799492041,-0.177
1747852583807178744,-0.17400000000000002
1747852583814865447,-0.169
1747852583822552150,-0.167
1747852583830238853,-0.16
1747852583837925556,-0.155
1747852583845612259,-0.157
1747852583853299026,-0.162,85,731
1747852583860985451,-0.162
1747852583868671876,-0.157
1747852583876358301,-0.14200000000000002
1747852583884044726,-0.123
1747852583891731151,-0.11800000000000001
1747852583899417576,-0.105
1747852583907104001,-0.091
1747852583914790426,-0.105
1747852583922476851,-0.137
1747852583930163276,-0.15
1747852583937849701,-0.145
1747852583945536126,-0.137
1747852583953222551,-0.132
1747852583960908976,-0.13
1747852583968595401,-0.13
1747852583976281826,-0.132
1747852583983968251,-0.14200000000000002
1747852583991654676,-0.17200000000000001
1747852583999341101,-0.243
1747852584007027526,-0.20600000000000002
1747852584014713951,0.209
1747852584022400376,0.979
1747852584030086801,1.73
1747852584037773226,1.72
1747852584045459651,0.45
1747852584053146076,-0.708
1747852584060832501,-0.47500000000000003
1747852584068518926,-0.066
1747852584076205351,-0.248
1747852584083891776,-0.28800000000000003
1747852584091578201,-0.155
1747852584099264626,-0.184
1747852584106951051,-0.20400000000000001
1747852584114637476,-0.145
1747852584122323901,-0.13
1747852584130010326,-0.13
1747852584137696751,-0.098
1747852584145383176,-0.073
1747852584153069601,-0.064
1747852584160756026,-0.039
1747852584168442451,-0.009000000000000001
1747852584176128876,0.014
1747852584183815301,0.044
1747852584191501726,0.083
1747852584199188151,0.11800000000000001
1747852584206874576,0.152
1747852584214561001,0.189
1747852584222247426,0.221
1747852584229933851,0.23600000000000002
1747852584237620276,0.241
1747852584245306701,0.233
1747852584252993126,0.211
1747852584260679551,0.189
1747852584268365976,0.16
1747852584276052401,0.1
1747852584283738826,0.019
1747852584291425251,-0.061
1747852584299111676,-0.14
1747852584306798101,-0.201
1747852584314484526,-0.246
1747852584322170951,-0.275
1747852584329857376,-0.292
1747852584337543801,-0.295
1747852584345230226,-0.29
1747852584352916651,-0.28
1747852584360603076,-0.265
1747852584368289501,-0.253
1747852584375975926,-0.246
1747852584383662351,-0.231
1747852584391348776,-0.219
1747852584399035201,-0.214
1747852584406721626,-0.209
1747852584414408061,-0.199
1747852584422094625,-0.196
1747852584429781189,-0.199
1747852584437467753,-0.194
1747852584445154317,-0.192
1747852584452840881,-0.184
1747852584460527445,-0.182
1747852584468214009,-0.187
1747852584475900573,-0.187
1747852584483587137,-0.184
1747852584491273701,-0.182
1747852584498960265,-0.182
1747852584506646829,-0.182
1747852584514333393,-0.179
1747852584522019957,-0.17400000000000002
1747852584529706521,-0.17200000000000001
1747852584537393085,-0.169
1747852584545079649,-0.16
1747852584552766213,-0.157
1747852584560452777,-0.157
1747852584568139341,-0.162
1747852584575825905,-0.162
1747852584583512469,-0.157
1747852584591199033,-0.147
1747852584598885597,-0.135
1747852584606572161,-0.12
1747852584614258725,-0.108
1747852584621945289,-0.091
1747852584629631853,-0.093
1747852584637318417,-0.123
1747852584645004981,-0.145
1747852584652691545,-0.145
1747852584660378109,-0.137
1747852584668064673,-0.132
1747852584675751237,-0.128
1747852584683437801,-0.125
1747852584691124365,-0.12
1747852584698810929,-0.123
1747852584706497493,-0.145
1747852584714184057,-0.20600000000000002
1747852584721870621,-0.256
1747852584729557185,-0.07100000000000001
1747852584737243749,0.524
1747852584744930313,1.349
1747852584752616877,1.8880000000000001
1747852584760303441,1.299
1747852584767990005,-0.184
1747852584775676569,-0.731
1747852584783363133,-0.20600000000000002
1747852584791049697,-0.105
1747852584798736261,-0.32
1747852584806422825,-0.228
1747852584814109389,-0.145
1747852584821795953,-0.20600000000000002
1747852584829482517,-0.187
1747852584837169081,-0.13
1747852584844855645,-0.128
1747852584852542209,-0.123
1747852584860228773,-0.091
1747852584867915337,-0.068
1747852584875601901,-0.049
1747852584883288465,-0.019
1747852584890975029,0.007
1747852584898661593,0.034
1747852584906348157,0.064
1747852584914034721,0.098
1747852584921721285,0.135
1747852584929407849,0.167
1747852584937094413,0.20400000000000001
1747852584944780977,0.23600000000000002
1747852584952467541,0.248
1747852584960154105,0.243
1747852584967840669,0.228
1747852584975527266,0.211,84,731
1747852584983213969,0.182,,692
1747852584990900672,0.14
1747852584998587375,0.073
1747852585006274078,-0.004
1747852585013960781,-0.091
1747852585021647484,-0.164
1747852585029334187,-0.216
1747852585037020890,-0.253
1747852585044707593,-0.278
1747852585052394296,-0.29
1747852585060080999,-0.28800000000000003
1747852585067767702,-0.278
1747852585075454405,-0.265
1747852585083141108,-0.256
1747852585090827811,-0.246
1747852585098514514,-0.233
1747852585106201217,-0.224
1747852585113887920,-0.214
1747852585121574623,-0.201
1747852585129261326,-0.196
1747852585136948029,-0.194
1747852585144634732,-0.192
1747852585152321435,-0.189
1747852585160008138,-0.192
1747852585167694841,-0.187
1747852585175381544,-0.179
1747852585183068247,-0.179
1747852585190754950,-0.184
1747852585198441653,-0.179
1747852585206128356,-0.177
1747852585213815059,-0.17400000000000002
1747852585221501762,-0.177
1747852585229188465,-0.17400000000000002
1747852585236875168,-0.17200000000000001
1747852585244561871,-0.167
1747852585252248574,-0.162
1747852585259935277,-0.16
1747852585267621980,-0.157
1747852585275308683,-0.155
1747852585282995386,-0.15
1747852585290682089,-0.152
1747852585298368792,-0.155
1747852585306055495,-0.155
1747852585313742198,-0.14
1747852585321428901,-0.12
1747852585329115604,-0.11
1747852585336802307,-0.10300000000000001
1747852585344489010,-0.088
1747852585352175713,-0.083
1747852585359862416,-0.108
1747852585367549119,-0.137
1747852585375235822,-0.137
1747852585382922525,-0.125
1747852585390609228,-0.123
1747852585398295931,-0.12
1747852585405982634,-0.113
1747852585413669337,-0.11
1747852585421356040,-0.113
1747852585429042743,-0.128
1747852585436729446,-0.17400000000000002
1747852585444416149,-0.246
1747852585452102852,-0.167
1747852585459789555,0.295
1747852585467476258,1.075
1747852585475162961,1.7890000000000001
1747852585482849664,1.649
1747852585490536367,0.297
1747852585498223070,-0.711
1747852585505909773,-0.379
1747852585513596476,-0.056
1747852585521283179,-0.265
1747852585528969882,-0.268
1747852585536656645,-0.14,84,715
1747852585544343348,-0.177
1747852585552030051,-0.189
1747852585559716754,-0.13
1747852585567403457,-0.11800000000000001
1747852585575090160,-0.12
1747852585582776863,-0.091
1747852585590463566,-0.066
1747852585598150269,-0.049
1747852585605836972,-0.017
1747852585613523675,0.009000000000000001
1747852585621210378,0.029
1747852585628897081,0.059000000000000004
1747852585636583784,0.096
1747852585644270487,0.132
1747852585651957190,0.169
1747852585659643893,0.201
1747852585667330596,0.231
1747852585675017299,0.248
1747852585682704002,0.253
1747852585690390705,0.246
1747852585698077408,0.228
1747852585705764111,0.20400000000000001
1747852585713450814,0.162
1747852585721137517,0.105
1747852585728824220,0.029
1747852585736510923,-0.051000000000000004
1747852585744197626,-0.123
1747852585751884329,-0.184
1747852585759571032,-0.233
1747852585767257735,-0.256
1747852585774944438,-0.265
1747852585782631141,-0.273
1747852585790317844,-0.27
1747852585798004547,-0.258
1747852585805691250,-0.246
1747852585813377953,-0.233
1747852585821064656,-0.221
1747852585828751359,-0.20600000000000002
1747852585836438062,-0.199
1747852585844124765,-0.196
1747852585851811468,-0.189
1747852585859498171,-0.179
1747852585867184874,-0.179
1747852585874871577,-0.177
1747852585882558280,-0.169
1747852585890244983,-0.164
1747852585897931686,-0.169
1747852585905618389,-0.17200000000000001
1747852585913305092,-0.164
1747852585920991795,-0.16
1747852585928678498,-0.162
1747852585936365201,-0.167
1747852585944051904,-0.167
1747852585951738607,-0.157
1747852585959425310,-0.147
1747852585967112013,-0.147
1747852585974798716,-0.152
1747852585982485419,-0.15
1747852585990172122,-0.14
1747852585997858825,-0.135
1747852586005545528,-0.135
1747852586013232231,-0.128
1747852586020918934,-0.128
1747852586028605637,-0.14
1747852586036292340,-0.137
1747852586043979043,-0.113
1747852586051665746,-0.1
1747852586059352449,-0.096
1747852586067039152,-0.078
1747852586074725855,-0.061
1747852586082412558,-0.066
1747852586090099261,-0.093
1747852586097786024,-0.12
1747852586105472727,-0.12
1747852586113159430,-0.108
1747852586120846133,-0.098
1747852586128532836,-0.093
1747852586136219539,-0.096
1747852586143906242,-0.093
1747852586151592945,-0.093
1747852586159279648,-0.11800000000000001
1747852586166966351,-0.17200000000000001
1747852586174653054,-0.226
1747852586182339757,-0.096
1747852586190026460,0.452
1747852586197713163,1.282
1747852586205399866,1.8780000000000001
1747852586213086569,1.427
1747852586220773272,-0.014
1747852586228459975,-0.706
1747852586236146678,-0.241
1747852586243833381,-0.066
1747852586251520084,-0.268
1747852586259206787,-0.201
1747852586266893490,-0.113
1747852586274580193,-0.167
1747852586282266896,-0.152
1747852586289953599,-0.098
1747852586297640302,-0.093
1747852586305327005,-0.078
1747852586313013708,-0.049
1747852586320700411,-0.029
1747852586328387114,-0.004
1747852586336073817,0.017
1747852586343760520,0.034
1747852586351447223,0.066
1747852586359133926,0.108
1747852586366820629,0.14200000000000002
1747852586374507332,0.179
1747852586382194035,0.221
1747852586389880738,0.256
1747852586397567441,0.278
1747852586405254144,0.29
1747852586412940847,0.28800000000000003
1747852586420627550,0.278
1747852586428314253,0.265
1747852586436000956,0.23800000000000002
1747852586443687659,0.187
1747852586451374362,0.11800000000000001
1747852586459061065,0.041
1747852586466747768,-0.032
1747852586474434471,-0.113
1747852586482121174,-0.184
1747852586489807877,-0.228
1747852586497494580,-0.246
1747852586505181283,-0.258
1747852586512867986,-0.275
1747852586520554689,-0.27
1747852586528241392,-0.241
1747852586535928095,-0.231
1747852586543614798,-0.231
1747852586551301501,-0.214
1747852586558988204,-0.199
1747852586566674907,-0.196
1747852586574361610,-0.192
1747852586582048313,-0.182
1747852586589735016,-0.17200000000000001
1747852586597421719,-0.162
1747852586605108422,-0.162
1747852586612795125,-0.169
1747852586620481828,-0.169
1747852586628168531,-0.169
1747852586635855234,-0.162
1747852586643541937,-0.15
1747852586651228640,-0.152
1747852586658915407,-0.162,84,719
1747852586666601762,-0.162
1747852586674288117,-0.155
1747852586681974472,-0.152
1747852586689660827,-0.16
1747852586697347182,-0.16
1747852586705033537,-0.147
1747852586712719892,-0.145
1747852586720406247,-0.14
1747852586728092602,-0.132
1747852586735778957,-0.14
1747852586743465312,-0.14200000000000002
1747852586751151667,-0.135
1747852586758838022,-0.123
1747852586766524377,-0.10300000000000001
1747852586774210732,-0.08600000000000001
1747852586781897087,-0.07100000000000001
1747852586789583442,-0.064
1747852586797269797,-0.08600000000000001
1747852586804956152,-0.123
1747852586812642507,-0.13
1747852586820328862,-0.11800000000000001
1747852586828015217,-0.11800000000000001
1747852586835701572,-0.11800000000000001
1747852586843387927,-0.108
1747852586851074282,-0.1
1747852586858760637,-0.10300000000000001
1747852586866446992,-0.11800000000000001
1747852586874133347,-0.152
1747852586881819702,-0.221
1747852586889506057,-0.214
1747852586897192412,0.177
1747852586904878767,0.969
1747852586912565122,1.723
1747852586920251477,1.713
1747852586927937832,0.487
1747852586935624187,-0.672
1747852586943310542,-0.47200000000000003
1747852586950996897,-0.056
1747852586958683252,-0.221
1747852586966369607,-0.253
1747852586974055962,-0.115
1747852586981742317,-0.147
1747852586989428672,-0.169
1747852586997115027,-0.098
1747852587004801382,-0.078
1747852587012487737,-0.093
1747852587020174092,-0.061
1747852587027860447,-0.032
1747852587035546802,-0.019
1747852587043233157,0.004
1747852587050919512,0.032
1747852587058605867,0.051000000000000004
1747852587066292222,0.081
1747852587073978577,0.128
1747852587081664932,0.17200000000000001
1747852587089351287,0.196
1747852587097037642,0.228
1747852587104723997,0.27
1747852587112410352,0.29
1747852587120096707,0.28500000000000003
1747852587127783062,0.28
1747852587135469417,0.27
1747852587143155772,0.23800000000000002
1747852587150842127,0.184
1747852587158528482,0.125
1747852587166214837,0.049
1747852587173901192,-0.044
1747852587181587547,-0.123
1747852587189273902,-0.189
1747852587196960257,-0.246
1747852587204646612,-0.28
1747852587212332967,-0.29
1747852587220019355,-0.292
1747852587227705989,-0.29
1747852587235392623,-0.28300000000000003
1747852587243079257,-0.27
1747852587250765891,-0.258
1747852587258452525,-0.253
1747852587266139159,-0.241
1747852587273825793,-0.224
1747852587281512427,-0.214
1747852587289199061,-0.214
1747852587296885695,-0.214
1747852587304572329,-0.20600000000000002
1747852587312258963,-0.201
1747852587319945597,-0.199
1747852587327632231,-0.192
1747852587335318865,-0.189
1747852587343005499,-0.196
1747852587350692133,-0.194
1747852587358378767,-0.187
1747852587366065401,-0.187
1747852587373752035,-0.189
1747852587381438669,-0.189
1747852587389125303,-0.189
1747852587396811937,-0.187
1747852587404498571,-0.179
1747852587412185205,-0.17200000000000001
1747852587419871839,-0.17200000000000001
1747852587427558473,-0.169
1747852587435245107,-0.164
1747852587442931741,-0.164
1747852587450618375,-0.169
1747852587458305009,-0.169
1747852587465991643,-0.162
1747852587473678277,-0.145
1747852587481364911,-0.125
1747852587489051545,-0.115
1747852587496738179,-0.105
1747852587504424813,-0.1
1747852587512111447,-0.11800000000000001
1747852587519798081,-0.145
1747852587527484715,-0.155
1747852587535171349,-0.15
1747852587542857983,-0.14200000000000002
1747852587550544617,-0.137
1747852587558231251,-0.132
1747852587565917885,-0.135
1747852587573604519,-0.137
1747852587581291153,-0.15
1747852587588977787,-0.184
1747852587596664421,-0.253
1747852587604351055,-0.221
1747852587612037689,0.184
1747852587619724323,0.967
1747852587627410957,1.735
1747852587635097591,1.725
1747852587642784225,0.448
1747852587650470859,-0.718
1747852587658157493,-0.487
1747852587665844127,-0.073
1747852587673530761,-0.258
1747852587681217395,-0.3
1747852587688904029,-0.162
1747852587696590663,-0.187
1747852587704277297,-0.209
1747852587711963931,-0.147
1747852587719650565,-0.13
1747852587727337199,-0.132
1747852587735023833,-0.105
1747852587742710467,-0.083
1747852587750397101,-0.07100000000000001
1747852587758083735,-0.044
1747852587765770369,-0.012
1747852587773457003,0.012
1747852587781143647,0.039,84,726
1747852587788830350,0.078,,729
1747852587796517053,0.115
1747852587804203756,0.152
1747852587811890459,0.194
1747852587819577162,0.226
1747852587827263865,0.243
1747852587834950568,0.251
1747852587842637271,0.246
1747852587850323974,0.226
1747852587858010677,0.196
1747852587865697380,0.162
1747852587873384083,0.105
1747852587881070786,0.027
1747852587888757489,-0.059000000000000004
1747852587896444192,-0.14
1747852587904130895,-0.209
1747852587911817598,-0.256
1747852587919504301,-0.28300000000000003
1747852587927191004,-0.297
1747852587934877707,-0.3
1747852587942564410,-0.297
1747852587950251113,-0.292
1747852587957937816,-0.278
1747852587965624519,-0.263
1747852587973311222,-0.253
1747852587980997925,-0.241
1747852587988684628,-0.224
1747852587996371331,-0.216
1747852588004058034,-0.211
1747852588011744737,-0.209
1747852588019431440,-0.201
1747852588027118143,-0.194
1747852588034804846,-0.192
1747852588042491549,-0.192
1747852588050178252,-0.189
1747852588057864955,-0.189
1747852588065551658,-0.187
1747852588073238361,-0.187
1747852588080925064,-0.187
1747852588088611767,-0.184
1747852588096298470,-0.179
1747852588103985173,-0.177
1747852588111671876,-0.177
1747852588119358579,-0.17200000000000001
1747852588127045282,-0.167
1747852588134731985,-0.167
1747852588142418688,-0.164
1747852588150105391,-0.16
1747852588157792094,-0.155
1747852588165478797,-0.15
1747852588173165500,-0.15
1747852588180852203,-0.155
1747852588188538906,-0.152
1747852588196225609,-0.147
1747852588203912312,-0.135
1747852588211599015,-0.115
1747852588219285718,-0.105
1747852588226972421,-0.1
1747852588234659124,-0.088
1747852588242345827,-0.088
1747852588250032530,-0.11800000000000001
1747852588257719233,-0.14200000000000002
1747852588265405936,-0.135
1747852588273092639,-0.125
1747852588280779342,-0.128
1747852588288466045,-0.125
1747852588296152748,-0.11800000000000001
1747852588303839451,-0.115
1747852588311526154,-0.123
1747852588319212857,-0.147
1747852588326899560,-0.20600000000000002
1747852588334586263,-0.233
1747852588342273026,-0.014
1747852588349959729,0.603
1747852588357646432,1.42
1747852588365333135,1.9000000000000001
1747852588373019838,1.181
1747852588380706541,-0.305
1747852588388393244,-0.704
1747852588396079947,-0.162
1747852588403766650,-0.125
1747852588411453353,-0.32
1747852588419140056,-0.214
1747852588426826759,-0.152
1747852588434513462,-0.20600000000000002
1747852588442200165,-0.17400000000000002
1747852588449886868,-0.125
1747852588457573571,-0.125
1747852588465260274,-0.108
1747852588472946977,-0.076
1747852588480633680,-0.061
1747852588488320383,-0.044
1747852588496007086,-0.012
1747852588503693789,0.017
1747852588511380492,0.041
1747852588519067195,0.068
1747852588526753898,0.108
1747852588534440601,0.152
1747852588542127304,0.192
1747852588549814007,0.224
1747852588557500710,0.251
1747852588565187413,0.263
1747852588572874116,0.263
1747852588580560819,0.256
1747852588588247522,0.23800000000000002
1747852588595934225,0.20400000000000001
1747852588603620928,0.16
1747852588611307631,0.096
1747852588618994334,0.007
1747852588626681037,-0.076
1747852588634367740,-0.147
1747852588642054443,-0.209
1747852588649741146,-0.251
1747852588657427849,-0.273
1747852588665114552,-0.28300000000000003
1747852588672801255,-0.28500000000000003
1747852588680487958,-0.278
1747852588688174661,-0.268
1747852588695861364,-0.256
1747852588703548067,-0.241
1747852588711234770,-0.231
1747852588718921473,-0.219
1747852588726608176,-0.209
1747852588734294879,-0.20400000000000001
1747852588741981582,-0.201
1747852588749668285,-0.189
1747852588757354988,-0.182
1747852588765041691,-0.184
1747852588772728394,-0.184
1747852588780415097,-0.182
1747852588788101800,-0.179
1747852588795788503,-0.177
1747852588803475206,-0.17400000000000002
1747852588811161909,-0.17400000000000002
1747852588818848612,-0.177
1747852588826535315,-0.177
1747852588834222018,-0.17200000000000001
1747852588841908721,-0.167
1747852588849595424,-0.16
1747852588857282127,-0.162
1747852588864968830,-0.16
1747852588872655533,-0.155
1747852588880342236,-0.15
1747852588888028939,-0.15
1747852588895715642,-0.15
1747852588903402405,-0.145,84,710
1747852588911089039,-0.132
1747852588918775673,-0.125
1747852588926462307,-0.13
1747852588934148941,-0.137
1747852588941835575,-0.13
1747852588949522209,-0.11
1747852588957208843,-0.091
1747852588964895477,-0.078
1747852588972582111,-0.07100000000000001
1747852588980268745,-0.07100000000000001
1747852588987955379,-0.083
1747852588995642013,-0.115
1747852589003328647,-0.132
1747852589011015281,-0.115
1747852589018701915,-0.098
1747852589026388549,-0.1
1747852589034075183,-0.10300000000000001
1747852589041761817,-0.098
1747852589049448451,-0.096
1747852589057135085,-0.105
1747852589064821719,-0.132
1747852589072508353,-0.189
1747852589080194987,-0.196
1747852589087881621,0.081
1747852589095568255,0.736
1747852589103254889,1.5310000000000001
1747852589110941523,1.875
1747852589118628157,0.962
1747852589126314791,-0.457
1747852589134001425,-0.615
1747852589141688059,-0.081
1747852589149374693,-0.14
1747852589157061327,-0.28300000000000003
1747852589164747961,-0.15
1747852589172434595,-0.125
1747852589180121229,-0.169
1747852589187807863,-0.123
1747852589195494497,-0.088
1747852589203181131,-0.093
1747852589210867765,-0.078
1747852589218554399,-0.051000000000000004
1747852589226241033,-0.022
1747852589233927667,0.007
1747852589241614301,0.027
1747852589249300935,0.054
1747852589256987569,0.088
1747852589264674203,0.11
1747852589272360837,0.147
1747852589280047471,0.196
1747852589287734105,0.233
1747852589295420739,0.263
1747852589303107373,0.292
1747852589310794007,0.31
1747852589318480641,0.31
1747852589326167275,0.3
1747852589333853909,0.278
1747852589341540543,0.23600000000000002
1747852589349227177,0.189
1747852589356913811,0.128
1747852589364600445,0.041
1747852589372287079,-0.046
1747852589379973713,-0.125
1747852589387660347,-0.189
1747852589395346981,-0.231
1747852589403033615,-0.243
1747852589410720249,-0.253
1747852589418406883,-0.258
1747852589426093517,-0.246
1747852589433780151,-0.231
1747852589441466785,-0.231
1747852589449153419,-0.226
1747852589456840053,-0.20600000000000002
1747852589464526701,-0.182
1747852589472213056,-0.169
1747852589479899411,-0.164
1747852589487585766,-0.164
1747852589495272121,-0.162
1747852589502958476,-0.157
1747852589510644831,-0.155
1747852589518331186,-0.152
1747852589526017541,-0.147
1747852589533703896,-0.15
1747852589541390251,-0.152
1747852589549076606,-0.15
1747852589556762961,-0.14200000000000002
1747852589564449316,-0.137
1747852589572135671,-0.145
1747852589579822026,-0.147
1747852589587508381,-0.132
1747852589595194736,-0.13
1747852589602881091,-0.135
1747852589610567446,-0.128
1747852589618253801,-0.123
1747852589625940156,-0.128
1747852589633626511,-0.12
1747852589641312866,-0.115
1747852589648999221,-0.125
1747852589656685576,-0.115
1747852589664371931,-0.08600000000000001
1747852589672058286,-0.073
1747852589679744641,-0.078
1747852589687430996,-0.059000000000000004
1747852589695117351,-0.036000000000000004
1747852589702803706,-0.064
1747852589710490061,-0.10300000000000001
1747852589718176416,-0.108
1747852589725862771,-0.10300000000000001
1747852589733549126,-0.108
1747852589741235481,-0.08600000000000001
1747852589748921836,-0.076
1747852589756608191,-0.088
1747852589764294546,-0.083
1747852589771980901,-0.078
1747852589779667256,-0.113
1747852589787353611,-0.177
1747852589795039966,-0.216
1747852589802726321,-0.009000000000000001
1747852589810412676,0.632
1747852589818099031,1.459
1747852589825785386,1.861
1747852589833471741,1.085
1747852589841158096,-0.339
1747852589848844451,-0.652
1747852589856530806,-0.13
1747852589864217161,-0.12
1747852589871903516,-0.253
1747852589879589871,-0.12
1747852589887276226,-0.098
1747852589894962581,-0.157
1747852589902648936,-0.10300000000000001
1747852589910335291,-0.066
1747852589918021646,-0.076
1747852589925708001,-0.051000000000000004
1747852589933394356,-0.017
1747852589941080711,-0.004
1747852589948767066,0.022
1747852589956453421,0.046
1747852589964139776,0.056
1747852589971826131,0.083
1747852589979512486,0.13
1747852589987198841,0.164
1747852589994885196,0.196
1747852590002571551,0.241
1747852590010257906,0.28500000000000003
1747852590017944261,0.307
1747852590025630645,0.315,84,715
1747852590033317348,0.312,,733
1747852590041004051,0.297
1747852590048690754,0.28
1747852590056377457,0.248
1747852590064064160,0.194
1747852590071750863,0.12
1747852590079437566,0.029
1747852590087124269,-0.059000000000000004
1747852590094810972,-0.135
1747852590102497675,-0.201
1747852590110184378,-0.248
1747852590117871081,-0.265
1747852590125557784,-0.278
1747852590133244487,-0.28500000000000003
1747852590140931190,-0.275
1747852590148617893,-0.26
1747852590156304596,-0.26
1747852590163991299,-0.251
1747852590171678002,-0.224
1747852590179364705,-0.211
1747852590187051408,-0.219
1747852590194738111,-0.219
1747852590202424814,-0.20600000000000002
1747852590210111517,-0.194
1747852590217798220,-0.184
1747852590225484923,-0.187
1747852590233171626,-0.189
1747852590240858329,-0.184
1747852590248545032,-0.187
1747852590256231735,-0.187
1747852590263918438,-0.179
1747852590271605141,-0.177
1747852590279291844,-0.184
1747852590286978547,-0.187
1747852590294665250,-0.179
1747852590302351953,-0.17400000000000002
1747852590310038656,-0.177
1747852590317725359,-0.17400000000000002
1747852590325412062,-0.169
1747852590333098765,-0.164
1747852590340785468,-0.167
1747852590348472171,-0.169
1747852590356158874,-0.167
1747852590363845577,-0.162
1747852590371532280,-0.152
1747852590379218983,-0.132
1747852590386905686,-0.125
1747852590394592389,-0.11800000000000001
1747852590402279092,-0.098
1747852590409965795,-0.1
1747852590417652498,-0.14
1747852590425339201,-0.162
1747852590433025904,-0.147
1747852590440712607,-0.14200000000000002
1747852590448399310,-0.145
1747852590456086013,-0.14
1747852590463772716,-0.13
1747852590471459419,-0.13
1747852590479146122,-0.132
1747852590486832825,-0.15
1747852590494519528,-0.20600000000000002
1747852590502206231,-0.265
1747852590509892934,-0.105
1747852590517579637,0.465
1747852590525266340,1.2650000000000001
1747852590532953043,1.7890000000000001
1747852590540639746,1.23
1747852590548326449,-0.20400000000000001
1747852590556013152,-0.743
1747852590563699855,-0.243
1747852590571386558,-0.128
1747852590579073261,-0.302
1747852590586760028,-0.209,84,744
1747852590594446731,-0.145
1747852590602133434,-0.199
1747852590609820137,-0.169
1747852590617506840,-0.12
1747852590625193543,-0.123
1747852590632880246,-0.11
1747852590640566949,-0.078
1747852590648253652,-0.061
1747852590655940355,-0.044
1747852590663627058,-0.014
1747852590671313761,0.012
1747852590679000464,0.036000000000000004
1747852590686687167,0.066
1747852590694373870,0.10300000000000001
1747852590702060573,0.14
1747852590709747276,0.182
1747852590717433979,0.221
1747852590725120682,0.246
1747852590732807385,0.256
1747852590740494088,0.253
1747852590748180791,0.248
1747852590755867494,0.231
1747852590763554197,0.196
1747852590771240900,0.152
1747852590778927603,0.088
1747852590786614306,0.007
1747852590794301009,-0.083
1747852590801987712,-0.16
1747852590809674415,-0.219
1747852590817361118,-0.26
1747852590825047821,-0.28500000000000003
1747852590832734524,-0.297
1747852590840421227,-0.3
1747852590848107930,-0.292
1747852590855794633,-0.28300000000000003
1747852590863481336,-0.27
1747852590871168039,-0.253
1747852590878854742,-0.243
1747852590886541445,-0.233
1747852590894228148,-0.224
1747852590901914851,-0.214
1747852590909601554,-0.20600000000000002
1747852590917288257,-0.201
1747852590924974960,-0.199
1747852590932661663,-0.196
1747852590940348366,-0.194
1747852590948035069,-0.194
1747852590955721772,-0.192
1747852590963408475,-0.189
1747852590971095178,-0.189
1747852590978781881,-0.192
1747852590986468584,-0.189
1747852590994155287,-0.182
1747852591001841990,-0.182
1747852591009528693,-0.184
1747852591017215396,-0.182
1747852591024902099,-0.179
1747852591032588802,-0.177
1747852591040275505,-0.17200000000000001
1747852591047962208,-0.164
1747852591055648911,-0.164
1747852591063335614,-0.164
1747852591071022317,-0.155
1747852591078709020,-0.147
1747852591086395723,-0.152
1747852591094082426,-0.157
1747852591101769129,-0.155
1747852591109455832,-0.145
1747852591117142535,-0.128
1747852591124829238,-0.113
1747852591132515941,-0.105
1747852591140202644,-0.093
1747852591147889407,-0.083
1747852591155575692,-0.10300000000000001
1747852591163261977,-0.14
1747852591170948262,-0.145
1747852591178634547,-0.132
1747852591186320832,-0.132
1747852591194007117,-0.128
1747852591201693402,-0.123
1747852591209379687,-0.123
1747852591217065972,-0.125
1747852591224752257,-0.132
1747852591232438542,-0.17200000000000001
1747852591240124827,-0.233
1747852591247811112,-0.14
1747852591255497397,0.32
1747852591263183682,1.065
1747852591270869967,1.742
1747852591278556252,1.55
1747852591286242537,0.187
1747852591293928822,-0.738
1747852591301615107,-0.359
1747852591309301392,-0.066
1747852591316987677,-0.275
1747852591324673962,-0.258
1747852591332360247,-0.14200000000000002
1747852591340046532,-0.184
1747852591347732817,-0.189
1747852591355419102,-0.128
1747852591363105387,-0.12
1747852591370791672,-0.11800000000000001
1747852591378477957,-0.081
1747852591386164242,-0.056
1747852591393850527,-0.044
1747852591401536812,-0.019
1747852591409223097,0.007
1747852591416909382,0.032
1747852591424595667,0.061
1747852591432281952,0.1
1747852591439968237,0.135
1747852591447654522,0.169
1747852591455340807,0.214
1747852591463027092,0.251
1747852591470713377,0.268
1747852591478399662,0.268
1747852591486085947,0.26
1747852591493772232,0.248
1747852591501458517,0.228
1747852591509144802,0.192
1747852591516831087,0.135
1747852591524517372,0.059000000000000004
1747852591532203657,-0.024
1747852591539889942,-0.105
1747852591547576227,-0.17400000000000002
1747852591555262512,-0.224
1747852591562948797,-0.256
1747852591570635082,-0.275
1747852591578321367,-0.28300000000000003
1747852591586007652,-0.28
1747852591593693937,-0.268
1747852591601380222,-0.256
1747852591609066507,-0.243
1747852591616752792,-0.23600000000000002
1747852591624439077,-0.226
1747852591632125362,-0.211
1747852591639811647,-0.201
1747852591647497932,-0.199
1747852591655184217,-0.196
1747852591662870502,-0.192
1747852591670556787,-0.189
1747852591678243072,-0.187
1747852591685929357,-0.184
1747852591693615642,-0.184
1747852591701301927,-0.184
1747852591708988268,-0.179,83,716
1747852591716674971,-0.177
1747852591724361674,-0.179
1747852591732048377,-0.17400000000000002
1747852591739735080,-0.17400000000000002
1747852591747421783,-0.177
1747852591755108486,-0.17400000000000002
1747852591762795189,-0.169
1747852591770481892,-0.169
1747852591778168595,-0.169
1747852591785855298,-0.164
1747852591793542001,-0.157
1747852591801228704,-0.155
1747852591808915407,-0.152
1747852591816602110,-0.145
1747852591824288813,-0.14200000000000002
1747852591831975516,-0.147
1747852591839662219,-0.15
1747852591847348922,-0.147
1747852591855035625,-0.135
1747852591862722328,-0.113
1747852591870409031,-0.098
1747852591878095734,-0.091
1747852591885782437,-0.081
1747852591893469140,-0.083
1747852591901155843,-0.108
1747852591908842546,-0.132
1747852591916529249,-0.137
1747852591924215952,-0.132
1747852591931902655,-0.128
1747852591939589358,-0.11800000000000001
1747852591947276061,-0.11
1747852591954962764,-0.113
1747852591962649467,-0.12
1747852591970336170,-0.132
1747852591978022873,-0.169
1747852591985709576,-0.226
1747852591993396279,-0.145
1747852592001082982,0.297
1747852592008769685,1.036
1747852592016456388,1.73
1747852592024143091,1.6
1747852592031829794,0.263
1747852592039516497,-0.731
1747852592047203200,-0.386
1747852592054889903,-0.061
1747852592062576606,-0.273
1747852592070263309,-0.275
1747852592077950012,-0.135
1747852592085636715,-0.167
1747852592093323418,-0.189
1747852592101010121,-0.135
1747852592108696824,-0.11800000000000001
1747852592116383527,-0.125
1747852592124070230,-0.093
1747852592131756933,-0.051000000000000004
1747852592139443636,-0.034
1747852592147130339,-0.022
1747852592154817042,0.0
1747852592162503745,0.034
1747852592170190448,0.068
1747852592177877151,0.093
1747852592185563854,0.132
1747852592193250557,0.187
1747852592200937260,0.228
1747852592208623963,0.256
1747852592216310666,0.27
1747852592223997369,0.275
1747852592231684072,0.278
1747852592239370775,0.263
1747852592247057478,0.23800000000000002
1747852592254744181,0.209
1747852592262430884,0.155
1747852592270117647,0.081
1747852592277804350,0.012
1747852592285491053,-0.066
1747852592293177756,-0.16
1747852592300864459,-0.214
1747852592308551162,-0.226
1747852592316237865,-0.251
1747852592323924568,-0.275
1747852592331611271,-0.263
1747852592339297974,-0.248
1747852592346984677,-0.243
1747852592354671380,-0.231
1747852592362358083,-0.219
1747852592370044786,-0.20400000000000001
1747852592377731489,-0.196
1747852592385418192,-0.194
1747852592393104895,-0.184
1747852592400791598,-0.177
1747852592408478301,-0.17200000000000001
1747852592416165004,-0.164
1747852592423851707,-0.16
1747852592431538410,-0.164
1747852592439225113,-0.169
1747852592446911816,-0.162
1747852592454598519,-0.16
1747852592462285222,-0.167
1747852592469971925,-0.162
1747852592477658628,-0.147
1747852592485345331,-0.145
1747852592493032034,-0.155
1747852592500718737,-0.157
1747852592508405440,-0.15
1747852592516092143,-0.145
1747852592523778846,-0.14
1747852592531465549,-0.135
1747852592539152252,-0.137
1747852592546838955,-0.14
1747852592554525658,-0.135
1747852592562212361,-0.13
1747852592569899064,-0.135
1747852592577585767,-0.132
1747852592585272470,-0.1
1747852592592959173,-0.073
1747852592600645876,-0.083
1747852592608332579,-0.088
1747852592616019282,-0.07100000000000001
1747852592623705985,-0.083
1747852592631392688,-0.115
1747852592639079391,-0.12
1747852592646766094,-0.115
1747852592654452797,-0.11800000000000001
1747852592662139500,-0.113
1747852592669826203,-0.1
1747852592677512906,-0.091
1747852592685199609,-0.10300000000000001
1747852592692886312,-0.12
1747852592700573015,-0.14
1747852592708259718,-0.192
1747852592715946421,-0.187
1747852592723633124,0.145
1747852592731319827,0.851
1747852592739006530,1.585
1747852592746693233,1.693
1747852592754379936,0.608
1747852592762066639,-0.608
1747852592769753342,-0.514
1747852592777440045,-0.056
1747852592785126748,-0.187
1747852592792813451,-0.246
1747852592800500154,-0.11
1747852592808186857,-0.125
1747852592815873560,-0.155
1747852592823560263,-0.096
1747852592831247026,-0.073,83,708
1747852592838933729,-0.081,,740
1747852592846620432,-0.054
1747852592854307135,-0.019
1747852592861993838,-0.004
1747852592869680541,0.017
1747852592877367244,0.041
1747852592885053947,0.064
1747852592892740650,0.1
1747852592900427353,0.132
1747852592908114056,0.169
1747852592915800759,0.216
1747852592923487462,0.248
1747852592931174165,0.28300000000000003
1747852592938860868,0.322
1747852592946547571,0.337
1747852592954234274,0.322
1747852592961920977,0.307
1747852592969607680,0.297
1747852592977294383,0.265
1747852592984981086,0.194
1747852592992667789,0.12
1747852593000354492,0.056
1747852593008041195,-0.019
1747852593015727898,-0.115
1747852593023414601,-0.201
1747852593031101304,-0.228
1747852593038788007,-0.209
1747852593046474710,-0.20400000000000001
1747852593054161413,-0.231
1747852593061848116,-0.251
1747852593069534819,-0.224
1747852593077221522,-0.17400000000000002
1747852593084908225,-0.157
1747852593092594928,-0.16
1747852593100281631,-0.145
1747852593107968334,-0.137
1747852593115655037,-0.14200000000000002
1747852593123341740,-0.128
1747852593131028443,-0.11
1747852593138715146,-0.12
1747852593146401849,-0.13
1747852593154088552,-0.10300000000000001
1747852593161775255,-0.08600000000000001
1747852593169461958,-0.108
1747852593177148661,-0.108
1747852593184835364,-0.105
1747852593192522067,-0.113
1747852593200208770,-0.098
1747852593207895473,-0.08600000000000001
1747852593215582176,-0.1
1747852593223268879,-0.11
1747852593230955582,-0.105
1747852593238642285,-0.10300000000000001
1747852593246328988,-0.098
1747852593254015691,-0.098
1747852593261702394,-0.105
1747852593269389097,-0.113
1747852593277075800,-0.10300000000000001
1747852593284762503,-0.078
1747852593292449206,-0.07100000000000001
1747852593300135909,-0.076
1747852593307822612,-0.07100000000000001
1747852593315509315,-0.064
1747852593323196018,-0.08600000000000001
1747852593330882721,-0.12
1747852593338569424,-0.12
1747852593346256127,-0.1
1747852593353942830,-0.10300000000000001
1747852593361629533,-0.11
1747852593369316236,-0.11
1747852593377002939,-0.105
1747852593384689642,-0.105
1747852593392376409,-0.123
1747852593400062694,-0.167
1747852593407748979,-0.211
1747852593415435264,-0.039
1747852593423121549,0.544
1747852593430807834,1.2650000000000001
1747852593438494119,1.602
1747852593446180404,0.9450000000000001
1747852593453866689,-0.352
1747852593461552974,-0.706
1747852593469239259,-0.20600000000000002
1747852593476925544,-0.14
1747852593484611829,-0.275
1747852593492298114,-0.162
1747852593499984399,-0.125
1747852593507670684,-0.179
1747852593515356969,-0.145
1747852593523043254,-0.1
1747852593530729539,-0.10300000000000001
1747852593538415824,-0.08600000000000001
1747852593546102109,-0.056
1747852593553788394,-0.049
1747852593561474679,-0.036000000000000004
1747852593569160964,-0.002
1747852593576847249,0.024
1747852593584533534,0.039
1747852593592219819,0.066
1747852593599906104,0.10300000000000001
1747852593607592389,0.137
1747852593615278674,0.17200000000000001
1747852593622964959,0.20400000000000001
1747852593630651244,0.221
1747852593638337529,0.231
1747852593646023814,0.231
1747852593653710099,0.211
1747852593661396384,0.184
1747852593669082669,0.152
1747852593676768954,0.105
1747852593684455239,0.049
1747852593692141524,-0.014
1747852593699827809,-0.093
1747852593707514094,-0.167
1747852593715200379,-0.219
1747852593722886664,-0.256
1747852593730572949,-0.28
1747852593738259234,-0.292
1747852593745945519,-0.28800000000000003
1747852593753631804,-0.275
1747852593761318089,-0.263
1747852593769004374,-0.253
1747852593776690659,-0.243
1747852593784376944,-0.233
1747852593792063229,-0.228
1747852593799749514,-0.216
1747852593807435799,-0.20400000000000001
1747852593815122084,-0.201
1747852593822808369,-0.196
1747852593830494654,-0.184
1747852593838180939,-0.182
1747852593845867224,-0.187
1747852593853553509,-0.187
1747852593861239794,-0.182
1747852593868926079,-0.184
1747852593876612364,-0.189
1747852593884298649,-0.187
1747852593891984934,-0.184
1747852593899671219,-0.184
1747852593907357504,-0.182
1747852593915043789,-0.177
1747852593922730074,-0.179
1747852593930416359,-0.177
1747852593938102644,-0.169
1747852593945788929,-0.167
1747852593953475270,-0.164,83,746
1747852593961161973,-0.16
1747852593968848676,-0.157
1747852593976535379,-0.152
1747852593984222082,-0.15
1747852593991908785,-0.15
1747852593999595488,-0.147
1747852594007282191,-0.14200000000000002
1747852594014968894,-0.14
1747852594022655597,-0.135
1747852594030342300,-0.13
1747852594038029003,-0.135
1747852594045715706,-0.14
1747852594053402409,-0.14200000000000002
1747852594061089112,-0.128
1747852594068775815,-0.105
1747852594076462518,-0.1
1747852594084149221,-0.1
1747852594091835924,-0.088
1747852594099522627,-0.076
1747852594107209330,-0.088
1747852594114896033,-0.12
1747852594122582736,-0.135
1747852594130269439,-0.123
1747852594137956142,-0.115
1747852594145642845,-0.115
1747852594153329548,-0.113
1747852594161016251,-0.108
1747852594168702954,-0.108
1747852594176389657,-0.123
1747852594184076360,-0.167
1747852594191763063,-0.209
1747852594199449766,-0.054
1747852594207136469,0.47700000000000004
1747852594214823172,1.216
1747852594222509875,1.698
1747852594230196578,1.221
1747852594237883281,-0.108
1747852594245569984,-0.681
1747852594253256687,-0.196
1747852594260943390,-0.046
1747852594268630093,-0.265
1747852594276316796,-0.209
1747852594284003499,-0.115
