time,ecg,hr,rr,marker
1747250250816958472,-0.396
1747250250824645175,-0.342
1747250250832331878,-0.334
1747250250840018581,-0.315
1747250250847705284,-0.28300000000000003
1747250250855391987,-0.26
1747250250863078690,-0.241
1747250250870765393,-0.209
1747250250878452096,-0.17200000000000001
1747250250886138799,-0.13
1747250250893825502,-0.083
1747250250901512205,-0.024
1747250250909198908,0.029
1747250250916885611,0.076
1747250250924572314,0.12
1747250250932259017,0.14
1747250250939945720,0.132
1747250250947632423,0.113
1747250250955319126,0.076
1747250250963005829,0.024
1747250250970692532,-0.054
1747250250978379235,-0.164
1747250250986065938,-0.28800000000000003
1747250250993752641,-0.393
1747250251001439344,-0.47500000000000003
1747250251009126047,-0.531
1747250251016812750,-0.5660000000000001
1747250251024499453,-0.5680000000000001
1747250251032186156,-0.5660000000000001
1747250251039872859,-0.5680000000000001
1747250251047559562,-0.556
1747250251055246265,-0.536
1747250251062932968,-0.521
1747250251070619671,-0.504
1747250251078306374,-0.487
1747250251085993077,-0.482
1747250251093679780,-0.48
1747250251101366483,-0.465
1747250251109053186,-0.455
1747250251116739889,-0.45
1747250251124426592,-0.45
1747250251132113295,-0.448
1747250251139799998,-0.445
1747250251147486701,-0.443
1747250251155173404,-0.445
1747250251162860107,-0.445
1747250251170546810,-0.443
1747250251178233513,-0.445
1747250251185920216,-0.452
1747250251193606919,-0.455
1747250251201293622,-0.448
1747250251208980325,-0.43
1747250251216667028,-0.40800000000000003
1747250251224353731,-0.398
1747250251232040434,-0.401
1747250251239727137,-0.388
1747250251247413840,-0.388
1747250251255100543,-0.425
1747250251262787246,-0.448
1747250251270473949,-0.435
1747250251278160652,-0.425
1747250251285847355,-0.428
1747250251293534058,-0.423
1747250251301220761,-0.40800000000000003
1747250251308907464,-0.41100000000000003
1747250251316594167,-0.438
1747250251324280870,-0.487
1747250251331967573,-0.541
1747250251339654276,-0.322
1747250251347340979,0.423
1747250251355027682,1.228
1747250251362714385,1.341
1747250251370401088,0.42
1747250251378087851,-0.797,98,640
1747250251385774554,-0.96
1747250251393461257,-0.47200000000000003
1747250251401147960,-0.455
1747250251408834663,-0.5710000000000001
1747250251416521366,-0.462
1747250251424208069,-0.423
1747250251431894772,-0.457
1747250251439581475,-0.41100000000000003
1747250251447268178,-0.371
1747250251454954881,-0.371
1747250251462641584,-0.34900000000000003
1747250251470328287,-0.317
1747250251478014990,-0.295
1747250251485701693,-0.265
1747250251493388396,-0.233
1747250251501075099,-0.196
1747250251508761802,-0.152
1747250251516448505,-0.10300000000000001
1747250251524135208,-0.049
1747250251531821911,0.009000000000000001
1747250251539508614,0.064
1747250251547195317,0.098
1747250251554882020,0.105
1747250251562568723,0.098
1747250251570255426,0.078
1747250251577942129,0.044
1747250251585628832,-0.012
1747250251593315535,-0.10300000000000001
1747250251601002238,-0.226
1747250251608688941,-0.34900000000000003
1747250251616375644,-0.445
1747250251624062347,-0.514
1747250251631749050,-0.556
1747250251639435753,-0.58
1747250251647122456,-0.59
1747250251654809159,-0.588
1747250251662495862,-0.5760000000000001
1747250251670182565,-0.561
1747250251677869268,-0.541
1747250251685555971,-0.524
1747250251693242674,-0.509
1747250251700929377,-0.497
1747250251708616080,-0.489
1747250251716302783,-0.47700000000000004
1747250251723989486,-0.47000000000000003
1747250251731676189,-0.467
1747250251739362892,-0.467
1747250251747049595,-0.462
1747250251754736298,-0.452
1747250251762423001,-0.448
1747250251770109704,-0.452
1747250251777796407,-0.455
1747250251785483110,-0.455
1747250251793169813,-0.452
1747250251800856516,-0.448
1747250251808543219,-0.445
1747250251816229922,-0.448
1747250251823916625,-0.455
1747250251831603328,-0.45
1747250251839290031,-0.423
1747250251846976734,-0.401
1747250251854663437,-0.401
1747250251862350140,-0.393
1747250251870036843,-0.374
1747250251877723546,-0.386
1747250251885410249,-0.42
1747250251893096952,-0.438
1747250251900783655,-0.43
1747250251908470358,-0.428
1747250251916157061,-0.425
1747250251923843764,-0.41600000000000004
1747250251931530467,-0.40800000000000003
1747250251939217230,-0.41100000000000003,97,667
1747250251946903933,-0.428,,637
1747250251954590636,-0.48
1747250251962277339,-0.526
1747250251969964042,-0.292
1747250251977650745,0.425
1747250251985337448,1.216
1747250251993024151,1.395
1747250252000710854,0.502
1747250252008397557,-0.787
1747250252016084260,-0.972
1747250252023770963,-0.438
1747250252031457666,-0.438
1747250252039144369,-0.6
1747250252046831072,-0.47700000000000004
1747250252054517775,-0.423
1747250252062204478,-0.47000000000000003
1747250252069891181,-0.428
1747250252077577884,-0.379
1747250252085264587,-0.381
1747250252092951290,-0.361
1747250252100637993,-0.327
1747250252108324696,-0.312
1747250252116011399,-0.28800000000000003
1747250252123698102,-0.248
1747250252131384805,-0.211
1747250252139071508,-0.167
1747250252146758211,-0.11800000000000001
1747250252154444914,-0.07100000000000001
1747250252162131617,-0.014
1747250252169818320,0.044
1747250252177505023,0.083
1747250252185191726,0.1
1747250252192878429,0.098
1747250252200565132,0.078
1747250252208251835,0.046
1747250252215938538,-0.004
1747250252223625241,-0.081
1747250252231311944,-0.192
1747250252238998647,-0.315
1747250252246685350,-0.42
1747250252254372053,-0.499
1747250252262058756,-0.551
1747250252269745459,-0.5760000000000001
1747250252277432162,-0.58
1747250252285118865,-0.578
1747250252292805568,-0.5680000000000001
1747250252300492271,-0.553
1747250252308178974,-0.536
1747250252315865677,-0.519
1747250252323552380,-0.507
1747250252331239083,-0.492
1747250252338925786,-0.482
1747250252346612489,-0.47500000000000003
1747250252354299192,-0.47500000000000003
1747250252361985895,-0.47000000000000003
1747250252369672598,-0.465
1747250252377359301,-0.465
1747250252385046004,-0.465
1747250252392732707,-0.46
1747250252400419410,-0.457
1747250252408106113,-0.457
1747250252415792816,-0.455
1747250252423479519,-0.452
1747250252431166222,-0.45
1747250252438852925,-0.44
1747250252446539628,-0.438
1747250252454226331,-0.443
1747250252461913034,-0.45
1747250252469599737,-0.45
1747250252477286440,-0.44
1747250252484973143,-0.41300000000000003
1747250252492659846,-0.391
1747250252500346609,-0.391
1747250252508033312,-0.384
1747250252515720015,-0.366
1747250252523406718,-0.374
1747250252531093421,-0.41600000000000004
1747250252538780124,-0.44
1747250252546466827,-0.428
1747250252554153530,-0.418
1747250252561840233,-0.41600000000000004
1747250252569526936,-0.41100000000000003
1747250252577213639,-0.406
1747250252584900342,-0.406
1747250252592587045,-0.42
1747250252600273748,-0.47500000000000003
1747250252607960451,-0.5630000000000001
1747250252615647154,-0.43
1747250252623333857,0.243
1747250252631020560,1.184
1747250252638707263,1.6640000000000001
1747250252646393966,0.96
1747250252654080669,-0.553
1747250252661767372,-1.083
1747250252669454075,-0.524
1747250252677140778,-0.393
1747250252684827481,-0.612
1747250252692514184,-0.519
1747250252700200887,-0.42
1747250252707887590,-0.47700000000000004
1747250252715574293,-0.452
1747250252723260996,-0.388
1747250252730947699,-0.381
1747250252738634402,-0.366
1747250252746321105,-0.327
1747250252754007808,-0.305
1747250252761694511,-0.28300000000000003
1747250252769381214,-0.248
1747250252777067917,-0.209
1747250252784754620,-0.167
1747250252792441323,-0.11800000000000001
1747250252800128026,-0.068
1747250252807814729,-0.009000000000000001
1747250252815501432,0.046
1747250252823188135,0.091
1747250252830874838,0.11800000000000001
1747250252838561541,0.11800000000000001
1747250252846248244,0.1
1747250252853934947,0.076
1747250252861621650,0.034
1747250252869308353,-0.044
1747250252876995056,-0.147
1747250252884681759,-0.265
1747250252892368462,-0.384
1747250252900055165,-0.47500000000000003
1747250252907741868,-0.531
1747250252915428571,-0.5630000000000001
1747250252923115274,-0.578
1747250252930801977,-0.578
1747250252938488680,-0.5660000000000001
1747250252946175383,-0.551
1747250252953862086,-0.536
1747250252961548789,-0.521
1747250252969235492,-0.507
1747250252976922195,-0.492
1747250252984608898,-0.48
1747250252992295601,-0.47500000000000003
1747250252999982304,-0.47200000000000003
1747250253007669007,-0.47000000000000003
1747250253015355710,-0.467
1747250253023042413,-0.467
1747250253030729116,-0.467
1747250253038415819,-0.467
1747250253046102522,-0.46
1747250253053789225,-0.45
1747250253061475992,-0.45,96,621
1747250253069162695,-0.452
1747250253076849398,-0.448
1747250253084536101,-0.443
1747250253092222804,-0.44
1747250253099909507,-0.44
1747250253107596210,-0.438
1747250253115282913,-0.43
1747250253122969616,-0.435
1747250253130656319,-0.445
1747250253138343022,-0.448
1747250253146029725,-0.428
1747250253153716428,-0.393
1747250253161403131,-0.381
1747250253169089834,-0.386
1747250253176776537,-0.371
1747250253184463240,-0.359
1747250253192149943,-0.388
1747250253199836646,-0.423
1747250253207523349,-0.428
1747250253215210052,-0.41600000000000004
1747250253222896755,-0.41100000000000003
1747250253230583458,-0.403
1747250253238270161,-0.398
1747250253245956864,-0.396
1747250253253643567,-0.401
1747250253261330270,-0.425
1747250253269016973,-0.507
1747250253276703676,-0.5630000000000001
1747250253284390379,-0.263
1747250253292077082,0.548
1747250253299763785,1.437
1747250253307450488,1.6320000000000001
1747250253315137191,0.521
1747250253322823894,-0.893
1747250253330510597,-0.923
1747250253338197300,-0.366
1747250253345884003,-0.47200000000000003
1747250253353570706,-0.612
1747250253361257409,-0.452
1747250253368944112,-0.423
1747250253376630815,-0.47200000000000003
1747250253384317518,-0.42
1747250253392004221,-0.379
1747250253399690924,-0.379
1747250253407377627,-0.34900000000000003
1747250253415064330,-0.31
1747250253422751033,-0.292
1747250253430437736,-0.265
1747250253438124439,-0.226
1747250253445811142,-0.192
1747250253453497845,-0.15
1747250253461184548,-0.096
1747250253468871251,-0.044
1747250253476557954,0.009000000000000001
1747250253484244657,0.064
1747250253491931360,0.1
1747250253499618063,0.11800000000000001
1747250253507304766,0.115
1747250253514991469,0.098
1747250253522678172,0.068
1747250253530364875,0.022
1747250253538051578,-0.056
1747250253545738281,-0.162
1747250253553424984,-0.28300000000000003
1747250253561111687,-0.388
1747250253568798390,-0.467
1747250253576485093,-0.521
1747250253584171796,-0.556
1747250253591858499,-0.5630000000000001
1747250253599545202,-0.558
1747250253607231905,-0.548
1747250253614918608,-0.531
1747250253622605371,-0.516
1747250253630291865,-0.504
1747250253637978359,-0.489
1747250253645664853,-0.482
1747250253653351347,-0.47500000000000003
1747250253661037841,-0.467
1747250253668724335,-0.467
1747250253676410829,-0.462
1747250253684097323,-0.455
1747250253691783817,-0.452
1747250253699470311,-0.455
1747250253707156805,-0.452
1747250253714843299,-0.448
1747250253722529793,-0.443
1747250253730216287,-0.443
1747250253737902781,-0.445
1747250253745589275,-0.443
1747250253753275769,-0.433
1747250253760962263,-0.433
1747250253768648757,-0.43
1747250253776335251,-0.423
1747250253784021745,-0.423
1747250253791708239,-0.418
1747250253799394733,-0.406
1747250253807081227,-0.403
1747250253814767721,-0.41100000000000003
1747250253822454215,-0.41300000000000003
1747250253830140709,-0.41300000000000003
1747250253837827203,-0.406
1747250253845513697,-0.376
1747250253853200191,-0.352
1747250253860886685,-0.352
1747250253868573179,-0.34400000000000003
1747250253876259673,-0.332
1747250253883946167,-0.34700000000000003
1747250253891632661,-0.384
1747250253899319155,-0.401
1747250253907005649,-0.386
1747250253914692143,-0.376
1747250253922378637,-0.379
1747250253930065131,-0.371
1747250253937751625,-0.359
1747250253945438119,-0.364
1747250253953124613,-0.388
1747250253960811107,-0.448
1747250253968497601,-0.534
1747250253976184095,-0.391
1747250253983870589,0.28800000000000003
1747250253991557083,1.208
1747250253999243577,1.6540000000000001
1747250254006930071,0.915
1747250254014616565,-0.5660000000000001
1747250254022303059,-1.0190000000000001
1747250254029989553,-0.455
1747250254037676047,-0.361
1747250254045362541,-0.5660000000000001
1747250254053049035,-0.457
1747250254060735529,-0.369
1747250254068422023,-0.42
1747250254076108517,-0.391
1747250254083795011,-0.334
1747250254091481505,-0.334
1747250254099167999,-0.317
1747250254106854493,-0.275
1747250254114540987,-0.258
1747250254122227481,-0.243
1747250254129913975,-0.211
1747250254137600469,-0.17200000000000001
1747250254145286963,-0.132
1747250254152973457,-0.08600000000000001
1747250254160659951,-0.032
1747250254168346445,0.027
1747250254176032939,0.081
1747250254183719493,0.123,96,631
1747250254191405987,0.147,,647
1747250254199092481,0.15
1747250254206778975,0.135
1747250254214465469,0.11
1747250254222151963,0.07100000000000001
1747250254229838457,0.004
1747250254237524951,-0.088
1747250254245211445,-0.20400000000000001
1747250254252897939,-0.322
1747250254260584433,-0.41600000000000004
1747250254268270927,-0.48
1747250254275957421,-0.519
1747250254283643915,-0.541
1747250254291330409,-0.548
1747250254299016903,-0.534
1747250254306703397,-0.514
1747250254314389891,-0.509
1747250254322076385,-0.502
1747250254329762879,-0.482
1747250254337449373,-0.47000000000000003
1747250254345135867,-0.462
1747250254352822361,-0.455
1747250254360508855,-0.45
1747250254368195349,-0.445
1747250254375881843,-0.443
1747250254383568337,-0.44
1747250254391254831,-0.44
1747250254398941325,-0.435
1747250254406627819,-0.435
1747250254414314313,-0.435
1747250254422000807,-0.433
1747250254429687301,-0.428
1747250254437373795,-0.425
1747250254445060289,-0.425
1747250254452746783,-0.425
1747250254460433277,-0.42
1747250254468119771,-0.41600000000000004
1747250254475806265,-0.41300000000000003
1747250254483492759,-0.41100000000000003
1747250254491179253,-0.41300000000000003
1747250254498865747,-0.425
1747250254506552241,-0.423
1747250254514238735,-0.403
1747250254521925229,-0.376
1747250254529611723,-0.359
1747250254537298217,-0.361
1747250254544984711,-0.359
1747250254552671205,-0.34900000000000003
1747250254560357699,-0.371
1747250254568044193,-0.40800000000000003
1747250254575730687,-0.418
1747250254583417181,-0.406
1747250254591103675,-0.398
1747250254598790169,-0.396
1747250254606476663,-0.391
1747250254614163157,-0.388
1747250254621849651,-0.398
1747250254629536145,-0.425
1747250254637222639,-0.494
1747250254644909133,-0.539
1747250254652595627,-0.219
1747250254660282121,0.595
1747250254667968615,1.356
1747250254675655109,1.336
1747250254683341603,0.211
1747250254691028097,-0.9550000000000001
1747250254698714591,-0.851
1747250254706401085,-0.371
1747250254714087579,-0.47500000000000003
1747250254721774073,-0.551
1747250254729460567,-0.418
1747250254737147061,-0.41300000000000003
1747250254744833611,-0.438
1747250254752520314,-0.379
1747250254760207017,-0.34900000000000003
1747250254767893720,-0.34900000000000003
1747250254775580423,-0.324
1747250254783267126,-0.297
1747250254790953829,-0.28500000000000003
1747250254798640532,-0.258
1747250254806327235,-0.221
1747250254814013938,-0.189
1747250254821700641,-0.152
1747250254829387344,-0.108
1747250254837074047,-0.056
1747250254844760750,-0.002
1747250254852447453,0.044
1747250254860134156,0.073
1747250254867820859,0.076
1747250254875507562,0.064
1747250254883194265,0.049
1747250254890880968,0.017
1747250254898567671,-0.034
1747250254906254374,-0.105
1747250254913941077,-0.201
1747250254921627780,-0.315
1747250254929314483,-0.40800000000000003
1747250254937001186,-0.47500000000000003
1747250254944687889,-0.519
1747250254952374592,-0.551
1747250254960061295,-0.561
1747250254967747998,-0.553
1747250254975434701,-0.544
1747250254983121404,-0.529
1747250254990808107,-0.514
1747250254998494810,-0.499
1747250255006181513,-0.489
1747250255013868216,-0.48
1747250255021554919,-0.467
1747250255029241622,-0.457
1747250255036928325,-0.455
1747250255044615028,-0.45
1747250255052301731,-0.448
1747250255059988434,-0.443
1747250255067675137,-0.44
1747250255075361840,-0.438
1747250255083048543,-0.438
1747250255090735246,-0.435
1747250255098421949,-0.435
1747250255106108652,-0.435
1747250255113795355,-0.433
1747250255121482058,-0.425
1747250255129168761,-0.43
1747250255136855464,-0.433
1747250255144542167,-0.428
1747250255152228870,-0.42
1747250255159915573,-0.418
1747250255167602276,-0.42
1747250255175288979,-0.43
1747250255182975682,-0.418
1747250255190662385,-0.386
1747250255198349088,-0.369
1747250255206035791,-0.374
1747250255213722494,-0.361
1747250255221409197,-0.342
1747250255229095900,-0.359
1747250255236782603,-0.401
1747250255244469306,-0.418
1747250255252156009,-0.403
1747250255259842712,-0.393
1747250255267529415,-0.388
1747250255275216118,-0.379
1747250255282902821,-0.376
1747250255290589524,-0.381
1747250255298276227,-0.398
1747250255305962990,-0.443,95,667
1747250255313649693,-0.499
1747250255321336396,-0.337
1747250255329023099,0.312
1747250255336709802,1.171
1747250255344396505,1.58
1747250255352083208,0.856
1747250255359769911,-0.593
1747250255367456614,-1.014
1747250255375143317,-0.445
1747250255382830020,-0.369
1747250255390516723,-0.583
1747250255398203426,-0.47000000000000003
1747250255405890129,-0.381
1747250255413576832,-0.438
1747250255421263535,-0.406
1747250255428950238,-0.34700000000000003
1747250255436636941,-0.34400000000000003
1747250255444323644,-0.324
1747250255452010347,-0.28800000000000003
1747250255459697050,-0.27
1747250255467383753,-0.246
1747250255475070456,-0.20600000000000002
1747250255482757159,-0.169
1747250255490443862,-0.13
1747250255498130565,-0.073
1747250255505817268,-0.022
1747250255513503971,0.022
1747250255521190674,0.083
1747250255528877377,0.14
1747250255536564080,0.157
1747250255544250783,0.16
1747250255551937486,0.155
1747250255559624189,0.123
1747250255567310892,0.066
1747250255574997595,0.002
1747250255582684298,-0.088
1747250255590371001,-0.221
1747250255598057704,-0.34400000000000003
1747250255605744407,-0.428
1747250255613431110,-0.489
1747250255621117813,-0.536
1747250255628804516,-0.553
1747250255636491219,-0.553
1747250255644177922,-0.544
1747250255651864625,-0.526
1747250255659551328,-0.514
1747250255667238031,-0.502
1747250255674924734,-0.487
1747250255682611437,-0.47000000000000003
1747250255690298140,-0.46
1747250255697984843,-0.46
1747250255705671546,-0.46
1747250255713358249,-0.445
1747250255721044952,-0.44
1747250255728731655,-0.445
1747250255736418358,-0.443
1747250255744105061,-0.435
1747250255751791764,-0.433
1747250255759478467,-0.435
1747250255767165170,-0.43
1747250255774851873,-0.428
1747250255782538576,-0.428
1747250255790225279,-0.425
1747250255797911982,-0.418
1747250255805598685,-0.418
1747250255813285388,-0.418
1747250255820972091,-0.41600000000000004
1747250255828658794,-0.42
1747250255836345497,-0.423
1747250255844032200,-0.418
1747250255851718903,-0.396
1747250255859405606,-0.369
1747250255867092369,-0.361
1747250255874779072,-0.364
1747250255882465775,-0.356
1747250255890152478,-0.359
1747250255897839181,-0.391
1747250255905525884,-0.41300000000000003
1747250255913212587,-0.41300000000000003
1747250255920899290,-0.406
1747250255928585993,-0.398
1747250255936272696,-0.393
1747250255943959399,-0.393
1747250255951646102,-0.386
1747250255959332805,-0.391
1747250255967019508,-0.435
1747250255974706211,-0.524
1747250255982392914,-0.492
1747250255990079617,0.024
1747250255997766320,0.918
1747250256005453023,1.5310000000000001
1747250256013139726,1.157
1747250256020826429,-0.219
1747250256028513132,-1.08
1747250256036199835,-0.662
1747250256043886538,-0.34400000000000003
1747250256051573241,-0.548
1747250256059259944,-0.529
1747250256066946647,-0.401
1747250256074633350,-0.43
1747250256082320053,-0.43
1747250256090006756,-0.369
1747250256097693459,-0.359
1747250256105380162,-0.352
1747250256113066865,-0.315
1747250256120753568,-0.29
1747250256128440271,-0.27
1747250256136126974,-0.23600000000000002
1747250256143813677,-0.20400000000000001
1747250256151500380,-0.17400000000000002
1747250256159187083,-0.125
1747250256166873786,-0.068
1747250256174560489,-0.022
1747250256182247192,0.032
1747250256189933895,0.081
1747250256197620598,0.1
1747250256205307301,0.1
1747250256212994004,0.096
1747250256220680707,0.073
1747250256228367410,0.029
1747250256236054113,-0.029
1747250256243740816,-0.113
1747250256251427519,-0.224
1747250256259114222,-0.339
1747250256266800925,-0.43
1747250256274487628,-0.499
1747250256282174331,-0.536
1747250256289861034,-0.551
1747250256297547737,-0.553
1747250256305234440,-0.546
1747250256312921143,-0.534
1747250256320607846,-0.524
1747250256328294549,-0.512
1747250256335981252,-0.494
1747250256343667955,-0.48
1747250256351354658,-0.47000000000000003
1747250256359041361,-0.46
1747250256366728064,-0.455
1747250256374414767,-0.45
1747250256382101470,-0.443
1747250256389788173,-0.438
1747250256397474876,-0.435
1747250256405161579,-0.433
1747250256412848282,-0.428
1747250256420534985,-0.425
1747250256428221752,-0.428,94,693
1747250256435908177,-0.43,,673
1747250256443594602,-0.43
1747250256451281027,-0.423
1747250256458967452,-0.41300000000000003
1747250256466653877,-0.41300000000000003
1747250256474340302,-0.418
1747250256482026727,-0.42
1747250256489713152,-0.41300000000000003
1747250256497399577,-0.40800000000000003
1747250256505086002,-0.41300000000000003
1747250256512772427,-0.423
1747250256520458852,-0.425
1747250256528145277,-0.40800000000000003
1747250256535831702,-0.376
1747250256543518127,-0.364
1747250256551204552,-0.369
1747250256558890977,-0.354
1747250256566577402,-0.34400000000000003
1747250256574263827,-0.379
1747250256581950252,-0.41600000000000004
1747250256589636677,-0.41600000000000004
1747250256597323102,-0.406
1747250256605009527,-0.401
1747250256612695952,-0.396
1747250256620382377,-0.393
1747250256628068802,-0.386
1747250256635755227,-0.391
1747250256643441652,-0.423
1747250256651128077,-0.499
1747250256658814502,-0.521
1747250256666500927,-0.16
1747250256674187352,0.647
1747250256681873777,1.3980000000000001
1747250256689560202,1.3880000000000001
1747250256697246627,0.216
1747250256704933052,-0.972
1747250256712619477,-0.802
1747250256720305902,-0.32
1747250256727992327,-0.499
1747250256735678752,-0.6
1747250256743365177,-0.438
1747250256751051602,-0.433
1747250256758738027,-0.47500000000000003
1747250256766424452,-0.41100000000000003
1747250256774110877,-0.371
1747250256781797302,-0.381
1747250256789483727,-0.364
1747250256797170152,-0.327
1747250256804856577,-0.302
1747250256812543002,-0.27
1747250256820229427,-0.23600000000000002
1747250256827915852,-0.211
1747250256835602277,-0.17400000000000002
1747250256843288702,-0.12
1747250256850975127,-0.078
1747250256858661552,-0.046
1747250256866347977,-0.002
1747250256874034402,0.036000000000000004
1747250256881720827,0.049
1747250256889407252,0.051000000000000004
1747250256897093677,0.041
1747250256904780102,-0.004
1747250256912466527,-0.059000000000000004
1747250256920152952,-0.11
1747250256927839377,-0.201
1747250256935525802,-0.322
1747250256943212227,-0.41600000000000004
1747250256950898652,-0.47000000000000003
1747250256958585077,-0.516
1747250256966271502,-0.556
1747250256973957927,-0.5660000000000001
1747250256981644352,-0.561
1747250256989330787,-0.548,93,672
1747250256997017351,-0.529
1747250257004703915,-0.519
1747250257012390479,-0.514
1747250257020077043,-0.489
1747250257027763607,-0.47200000000000003
1747250257035450171,-0.48
1747250257043136735,-0.47700000000000004
1747250257050823299,-0.46
1747250257058509863,-0.46
1747250257066196427,-0.465
1747250257073882991,-0.462
1747250257081569555,-0.457
1747250257089256119,-0.455
1747250257096942683,-0.455
1747250257104629247,-0.46
1747250257112315811,-0.462
1747250257120002375,-0.455
1747250257127688939,-0.443
1747250257135375503,-0.445
1747250257143062067,-0.448
1747250257150748631,-0.44
1747250257158435195,-0.445
1747250257166121759,-0.445
1747250257173808323,-0.438
1747250257181494887,-0.445
1747250257189181451,-0.452
1747250257196868015,-0.435
1747250257204554579,-0.398
1747250257212241143,-0.366
1747250257219927707,-0.366
1747250257227614271,-0.374
1747250257235300835,-0.364
1747250257242987399,-0.374
1747250257250673963,-0.40800000000000003
1747250257258360527,-0.42
1747250257266047091,-0.398
1747250257273733655,-0.388
1747250257281420219,-0.386
1747250257289106783,-0.386
1747250257296793347,-0.403
1747250257304479911,-0.406
1747250257312166475,-0.401
1747250257319853039,-0.44
1747250257327539603,-0.536
1747250257335226167,-0.507
1747250257342912731,-0.019
1747250257350599295,0.849
1747250257358285859,1.565
1747250257365972423,1.317
1747250257373658987,-0.10300000000000001
1747250257381345551,-1.041
1747250257389032115,-0.617
1747250257396718679,-0.312
1747250257404405243,-0.5630000000000001
1747250257412091807,-0.551
1747250257419778371,-0.41100000000000003
1747250257427464935,-0.46
1747250257435151499,-0.46
1747250257442838063,-0.379
1747250257450524627,-0.374
1747250257458211191,-0.381
1747250257465897755,-0.339
1747250257473584319,-0.307
1747250257481270883,-0.29
1747250257488957447,-0.258
1747250257496644011,-0.221
1747250257504330575,-0.192
1747250257512017139,-0.157
1747250257519703703,-0.105
1747250257527390267,-0.056
1747250257535076831,-0.012
1747250257542763395,0.029
1747250257550449992,0.056
1747250257558136695,0.066
1747250257565823398,0.059000000000000004
1747250257573510101,0.032
1747250257581196804,-0.002
1747250257588883507,-0.056
1747250257596570210,-0.132
1747250257604256913,-0.219
1747250257611943616,-0.32
1747250257619630319,-0.41600000000000004
1747250257627317022,-0.47500000000000003
1747250257635003725,-0.514
1747250257642690428,-0.548
1747250257650377131,-0.551
1747250257658063834,-0.534
1747250257665750537,-0.524
1747250257673437240,-0.514
1747250257681123943,-0.497
1747250257688810646,-0.482
1747250257696497349,-0.47200000000000003
1747250257704184052,-0.47500000000000003
1747250257711870755,-0.47200000000000003
1747250257719557458,-0.452
1747250257727244161,-0.443
1747250257734930864,-0.448
1747250257742617567,-0.448
1747250257750304270,-0.44
1747250257757990973,-0.438
1747250257765677676,-0.44
1747250257773364379,-0.443
1747250257781051082,-0.435
1747250257788737785,-0.428
1747250257796424488,-0.428
1747250257804111191,-0.425
1747250257811797894,-0.41600000000000004
1747250257819484597,-0.418
1747250257827171300,-0.425
1747250257834858003,-0.423
1747250257842544706,-0.406
1747250257850231409,-0.401
1747250257857918112,-0.40800000000000003
1747250257865604815,-0.41100000000000003
1747250257873291518,-0.41100000000000003
1747250257880978221,-0.40800000000000003
1747250257888664924,-0.398
1747250257896351627,-0.364
1747250257904038330,-0.337
1747250257911725033,-0.334
1747250257919411736,-0.337
1747250257927098439,-0.334
1747250257934785142,-0.356
1747250257942471845,-0.398
1747250257950158548,-0.406
1747250257957845251,-0.384
1747250257965531954,-0.384
1747250257973218657,-0.381
1747250257980905360,-0.371
1747250257988592063,-0.371
1747250257996278766,-0.379
1747250258003965469,-0.401
1747250258011652172,-0.47500000000000003
1747250258019338875,-0.551
1747250258027025578,-0.324
1747250258034712281,0.41100000000000003
1747250258042398984,1.321
1747250258050085687,1.6560000000000001
1747250258057772390,0.662
1747250258065459093,-0.797
1747250258073145796,-0.918
1747250258080832499,-0.359
1747250258088519202,-0.44
1747250258096205905,-0.595
1747250258103892608,-0.452
1747250258111579371,-0.42,92,663
1747250258119266074,-0.462,,679
1747250258126952777,-0.41300000000000003
1747250258134639480,-0.369
1747250258142326183,-0.366
1747250258150012886,-0.354
1747250258157699589,-0.332
1747250258165386292,-0.3
1747250258173072995,-0.265
1747250258180759698,-0.241
1747250258188446401,-0.216
1747250258196133104,-0.17200000000000001
1747250258203819807,-0.128
1747250258211506510,-0.08600000000000001
1747250258219193213,-0.034
1747250258226879916,0.012
1747250258234566619,0.041
1747250258242253322,0.054
1747250258249940025,0.054
1747250258257626728,0.039
1747250258265313431,0.007
1747250258273000134,-0.029
1747250258280686837,-0.076
1747250258288373540,-0.157
1747250258296060243,-0.263
1747250258303746946,-0.356
1747250258311433649,-0.428
1747250258319120352,-0.484
1747250258326807055,-0.516
1747250258334493758,-0.541
1747250258342180461,-0.548
1747250258349867164,-0.529
1747250258357553867,-0.499
1747250258365240570,-0.492
1747250258372927273,-0.492
1747250258380613976,-0.47500000000000003
1747250258388300679,-0.462
1747250258395987382,-0.465
1747250258403674085,-0.457
1747250258411360788,-0.443
1747250258419047491,-0.44
1747250258426734194,-0.44
1747250258434420897,-0.433
1747250258442107600,-0.428
1747250258449794303,-0.438
1747250258457481006,-0.443
1747250258465167709,-0.44
1747250258472854412,-0.425
1747250258480541115,-0.41300000000000003
1747250258488227818,-0.423
1747250258495914521,-0.433
1747250258503601224,-0.41300000000000003
1747250258511287927,-0.396
1747250258518974630,-0.398
1747250258526661333,-0.396
1747250258534348036,-0.391
1747250258542034739,-0.403
1747250258549721442,-0.41600000000000004
1747250258557408145,-0.403
1747250258565094848,-0.352
1747250258572781551,-0.307
1747250258580468254,-0.32
1747250258588154957,-0.332
1747250258595841660,-0.317
1747250258603528363,-0.34400000000000003
1747250258611215066,-0.398
1747250258618901769,-0.396
1747250258626588472,-0.361
1747250258634275175,-0.352
1747250258641961878,-0.364
1747250258649648581,-0.364
1747250258657335284,-0.34700000000000003
1747250258665021987,-0.34900000000000003
1747250258672708750,-0.386
1747250258680395453,-0.46
1747250258688082156,-0.507
1747250258695768859,-0.20600000000000002
1747250258703455562,0.617
1747250258711142265,1.506
1747250258718828968,1.639
1747250258726515671,0.462
1747250258734202374,-0.893
1747250258741889077,-0.846
1747250258749575780,-0.339
1747250258757262483,-0.462
1747250258764949186,-0.536
1747250258772635889,-0.381
1747250258780322592,-0.396
1747250258788009295,-0.43
1747250258795695998,-0.354
1747250258803382701,-0.322
1747250258811069404,-0.327
1747250258818756107,-0.3
1747250258826442810,-0.263
1747250258834129513,-0.243
1747250258841816216,-0.214
1747250258849502919,-0.17200000000000001
1747250258857189622,-0.13
1747250258864876325,-0.083
1747250258872563028,-0.036000000000000004
1747250258880249731,0.009000000000000001
1747250258887936434,0.066
1747250258895623137,0.12
1747250258903309840,0.157
1747250258910996543,0.169
1747250258918683246,0.16
1747250258926369949,0.14
1747250258934056652,0.108
1747250258941743355,0.066
1747250258949430058,-0.002
1747250258957116761,-0.113
1747250258964803464,-0.231
1747250258972490167,-0.337
1747250258980176870,-0.425
1747250258987863573,-0.47200000000000003
1747250258995550276,-0.494
1747250259003236979,-0.512
1747250259010923682,-0.514
1747250259018610385,-0.512
1747250259026297088,-0.504
1747250259033983791,-0.48
1747250259041670494,-0.452
1747250259049357197,-0.448
1747250259057043900,-0.435
1747250259064730603,-0.425
1747250259072417306,-0.418
1747250259080104009,-0.403
1747250259087790712,-0.393
1747250259095477415,-0.396
1747250259103164118,-0.396
1747250259110850821,-0.391
1747250259118537524,-0.393
1747250259126224227,-0.398
1747250259133910930,-0.396
1747250259141597633,-0.386
1747250259149284336,-0.381
1747250259156971039,-0.386
1747250259164657742,-0.398
1747250259172344445,-0.41300000000000003
1747250259180031148,-0.41300000000000003
1747250259187717851,-0.401
1747250259195404554,-0.366
1747250259203091257,-0.327
1747250259210777960,-0.337
1747250259218464663,-0.352
1747250259226151366,-0.322
1747250259233838129,-0.322,91,675
1747250259241524832,-0.369
1747250259249211535,-0.398
1747250259256898238,-0.381
1747250259264584941,-0.364
1747250259272271644,-0.371
1747250259279958347,-0.381
1747250259287645050,-0.369
1747250259295331753,-0.364
1747250259303018456,-0.386
1747250259310705159,-0.433
1747250259318391862,-0.512
1747250259326078565,-0.489
1747250259333765268,-0.002
1747250259341451971,0.913
1747250259349138674,1.577
1747250259356825377,1.2530000000000001
1747250259364512080,-0.083
1747250259372198783,-1.0010000000000001
1747250259379885486,-0.674
1747250259387572189,-0.354
1747250259395258892,-0.529
1747250259402945595,-0.519
1747250259410632298,-0.401
1747250259418319001,-0.435
1747250259426005704,-0.435
1747250259433692407,-0.361
1747250259441379110,-0.34400000000000003
1747250259449065813,-0.339
1747250259456752516,-0.302
1747250259464439219,-0.273
1747250259472125922,-0.258
1747250259479812625,-0.228
1747250259487499328,-0.194
1747250259495186031,-0.157
1747250259502872734,-0.105
1747250259510559437,-0.059000000000000004
1747250259518246140,-0.012
1747250259525932843,0.056
1747250259533619546,0.10300000000000001
1747250259541306249,0.115
1747250259548992952,0.12
1747250259556679655,0.108
1747250259564366358,0.078
1747250259572053061,0.049
1747250259579739764,-0.009000000000000001
1747250259587426467,-0.108
1747250259595113170,-0.20600000000000002
1747250259602799873,-0.307
1747250259610486576,-0.41600000000000004
1747250259618173279,-0.494
1747250259625859982,-0.524
1747250259633546685,-0.536
1747250259641233388,-0.553
1747250259648920091,-0.556
1747250259656606794,-0.539
1747250259664293497,-0.507
1747250259671980200,-0.484
1747250259679666903,-0.47200000000000003
1747250259687353606,-0.465
1747250259695040309,-0.46
1747250259702727012,-0.452
1747250259710413715,-0.443
1747250259718100418,-0.43
1747250259725787121,-0.428
1747250259733473824,-0.425
1747250259741160527,-0.41300000000000003
1747250259748847230,-0.403
1747250259756533933,-0.41100000000000003
1747250259764220636,-0.42
1747250259771907339,-0.425
1747250259779594042,-0.418
1747250259787280745,-0.406
1747250259794967512,-0.41100000000000003
1747250259802654355,-0.425
1747250259810341198,-0.435
1747250259818028041,-0.425
1747250259825714884,-0.391
1747250259833401727,-0.359
1747250259841088570,-0.356
1747250259848775413,-0.359
1747250259856462256,-0.352
1747250259864149099,-0.366
1747250259871835942,-0.391
1747250259879522785,-0.396
1747250259887209628,-0.398
1747250259894896471,-0.393
1747250259902583314,-0.381
1747250259910270157,-0.386
1747250259917957000,-0.393
1747250259925643843,-0.384
1747250259933330686,-0.386
1747250259941017529,-0.438
1747250259948704372,-0.524
1747250259956391215,-0.443
1747250259964078058,0.137
1747250259971764901,1.046
1747250259979451744,1.607
1747250259987138587,1.1520000000000001
1747250259994825430,-0.226
1747250260002512273,-1.004
1747250260010199116,-0.603
1747250260017885959,-0.359
1747250260025572802,-0.556
1747250260033259645,-0.531
1747250260040946488,-0.41600000000000004
1747250260048633331,-0.433
1747250260056320174,-0.428
1747250260064007017,-0.379
1747250260071693860,-0.369
1747250260079380703,-0.34900000000000003
1747250260087067546,-0.312
1747250260094754389,-0.305
1747250260102441232,-0.28500000000000003
1747250260110128075,-0.233
1747250260117814918,-0.20600000000000002
1747250260125501761,-0.187
1747250260133188604,-0.14200000000000002
1747250260140875447,-0.088
1747250260148562290,-0.041
1747250260156249133,0.012
1747250260163935976,0.056
1747250260171622819,0.068
1747250260179309662,0.059000000000000004
1747250260186996505,0.051000000000000004
1747250260194683348,0.034
1747250260202370191,-0.004
1747250260210057034,-0.07100000000000001
1747250260217743877,-0.155
1747250260225430720,-0.246
1747250260233117563,-0.334
1747250260240804406,-0.423
1747250260248491249,-0.487
1747250260256178092,-0.516
1747250260263864935,-0.536
1747250260271551778,-0.546
1747250260279238621,-0.539
1747250260286925464,-0.512
1747250260294612307,-0.487
1747250260302299150,-0.48
1747250260309985993,-0.47500000000000003
1747250260317672836,-0.462
1747250260325359679,-0.455
1747250260333046522,-0.448
1747250260340733365,-0.438
1747250260348420208,-0.428
1747250260356107065,-0.41600000000000004,90,688
1747250260363793420,-0.41600000000000004,,667
1747250260371479775,-0.418
1747250260379166130,-0.42
1747250260386852485,-0.423
1747250260394538840,-0.42
1747250260402225195,-0.41100000000000003
1747250260409911550,-0.40800000000000003
1747250260417597905,-0.41600000000000004
1747250260425284260,-0.41600000000000004
1747250260432970615,-0.401
1747250260440656970,-0.40800000000000003
1747250260448343325,-0.435
1747250260456029680,-0.433
1747250260463716035,-0.393
1747250260471402390,-0.361
1747250260479088745,-0.354
1747250260486775100,-0.34700000000000003
1747250260494461455,-0.334
1747250260502147810,-0.342
1747250260509834165,-0.376
1747250260517520520,-0.41100000000000003
1747250260525206875,-0.41300000000000003
1747250260532893230,-0.393
1747250260540579585,-0.386
1747250260548265940,-0.384
1747250260555952295,-0.379
1747250260563638650,-0.379
1747250260571325005,-0.376
1747250260579011360,-0.396
1747250260586697715,-0.47000000000000003
1747250260594384070,-0.516
1747250260602070425,-0.23800000000000002
1747250260609756780,0.512
1747250260617443135,1.324
1747250260625129490,1.504
1747250260632815845,0.546
1747250260640502200,-0.731
1747250260648188555,-0.834
1747250260655874910,-0.359
1747250260663561265,-0.443
1747250260671247620,-0.583
1747250260678933975,-0.462
1747250260686620330,-0.44
1747250260694306685,-0.47700000000000004
1747250260701993040,-0.41300000000000003
1747250260709679395,-0.366
1747250260717365750,-0.374
1747250260725052105,-0.356
1747250260732738460,-0.324
1747250260740424815,-0.295
1747250260748111170,-0.268
1747250260755797525,-0.246
1747250260763483880,-0.214
1747250260771170235,-0.164
1747250260778856590,-0.113
1747250260786542945,-0.073
1747250260794229300,-0.024
1747250260801915655,0.022
1747250260809602010,0.051000000000000004
1747250260817288365,0.073
1747250260824974720,0.076
1747250260832661075,0.049
1747250260840347430,0.012
1747250260848033785,-0.022
1747250260855720140,-0.081
1747250260863406495,-0.182
1747250260871092850,-0.28800000000000003
1747250260878779205,-0.374
1747250260886465560,-0.448
1747250260894151915,-0.504
1747250260901838270,-0.526
1747250260909524625,-0.526
1747250260917211013,-0.521
1747250260924897507,-0.509
1747250260932584001,-0.494
1747250260940270495,-0.484
1747250260947956989,-0.47700000000000004
1747250260955643483,-0.465
1747250260963329977,-0.452
1747250260971016471,-0.448
1747250260978702965,-0.443
1747250260986389459,-0.433
1747250260994075953,-0.43
1747250261001762447,-0.43
1747250261009448941,-0.425
1747250261017135435,-0.425
1747250261024821929,-0.428
1747250261032508423,-0.42
1747250261040194917,-0.406
1747250261047881411,-0.40800000000000003
1747250261055567905,-0.41300000000000003
1747250261063254399,-0.396
1747250261070940893,-0.391
1747250261078627387,-0.403
1747250261086313881,-0.403
1747250261094000375,-0.40800000000000003
1747250261101686869,-0.40800000000000003
1747250261109373363,-0.393
1747250261117059857,-0.359
1747250261124746351,-0.334
1747250261132432845,-0.332
1747250261140119339,-0.332
1747250261147805833,-0.327
1747250261155492327,-0.339
1747250261163178821,-0.374
1747250261170865315,-0.388
1747250261178551809,-0.379
1747250261186238303,-0.369
1747250261193924797,-0.369
1747250261201611291,-0.366
1747250261209297785,-0.361
1747250261216984279,-0.359
1747250261224670773,-0.371
1747250261232357267,-0.41100000000000003
1747250261240043761,-0.484
1747250261247730255,-0.428
1747250261255416749,0.105
1747250261263103243,0.992
1747250261270789737,1.59
1747250261278476231,1.191
1747250261286162725,-0.179
1747250261293849219,-0.982
1747250261301535713,-0.5660000000000001
1747250261309222207,-0.31
1747250261316908701,-0.534
1747250261324595195,-0.509
1747250261332281689,-0.376
1747250261339968183,-0.41300000000000003
1747250261347654677,-0.423
1747250261355341171,-0.359
1747250261363027665,-0.334
1747250261370714159,-0.332
1747250261378400653,-0.305
1747250261386087147,-0.275
1747250261393773641,-0.248
1747250261401460135,-0.221
1747250261409146629,-0.192
1747250261416833123,-0.155
1747250261424519617,-0.11
1747250261432206111,-0.068
1747250261439892605,-0.019
1747250261447579099,0.032
1747250261455265593,0.07100000000000001
1747250261462952087,0.096
1747250261470638581,0.10300000000000001
1747250261478325131,0.093,90,635
1747250261486011834,0.066
1747250261493698537,0.029
1747250261501385240,-0.022
1747250261509071943,-0.11
1747250261516758646,-0.221
1747250261524445349,-0.327
1747250261532132052,-0.418
1747250261539818755,-0.484
1747250261547505458,-0.514
1747250261555192161,-0.526
1747250261562878864,-0.534
1747250261570565567,-0.529
1747250261578252270,-0.514
1747250261585938973,-0.502
1747250261593625676,-0.492
1747250261601312379,-0.47500000000000003
1747250261608999082,-0.462
1747250261616685785,-0.457
1747250261624372488,-0.452
1747250261632059191,-0.443
1747250261639745894,-0.44
1747250261647432597,-0.44
1747250261655119300,-0.435
1747250261662806003,-0.43
1747250261670492706,-0.433
1747250261678179409,-0.428
1747250261685866112,-0.423
1747250261693552815,-0.425
1747250261701239518,-0.425
1747250261708926221,-0.41600000000000004
1747250261716612924,-0.41100000000000003
1747250261724299627,-0.41300000000000003
1747250261731986330,-0.40800000000000003
1747250261739673033,-0.401
1747250261747359736,-0.40800000000000003
1747250261755046439,-0.42
1747250261762733142,-0.418
1747250261770419845,-0.393
1747250261778106548,-0.364
1747250261785793251,-0.356
1747250261793479954,-0.361
1747250261801166657,-0.342
1747250261808853360,-0.334
1747250261816540063,-0.364
1747250261824226766,-0.401
1747250261831913469,-0.403
1747250261839600172,-0.386
1747250261847286875,-0.386
1747250261854973578,-0.384
1747250261862660281,-0.374
1747250261870346984,-0.374
1747250261878033687,-0.374
1747250261885720390,-0.386
1747250261893407093,-0.443
1747250261901093796,-0.516
1747250261908780499,-0.352
1747250261916467202,0.32
1747250261924153905,1.26
1747250261931840608,1.806
1747250261939527311,1.083
1747250261947214014,-0.534
1747250261954900717,-1.051
1747250261962587420,-0.45
1747250261970274123,-0.366
1747250261977960826,-0.605
1747250261985647529,-0.482
1747250261993334232,-0.386
1747250262001020935,-0.452
1747250262008707638,-0.423
1747250262016394341,-0.354
1747250262024081044,-0.342
1747250262031767747,-0.322
1747250262039454510,-0.29,91,629
1747250262047141213,-0.265,,643
1747250262054827916,-0.23600000000000002
1747250262062514619,-0.20400000000000001
1747250262070201322,-0.169
1747250262077888025,-0.13
1747250262085574728,-0.08600000000000001
1747250262093261431,-0.027
1747250262100948134,0.032
1747250262108634837,0.07100000000000001
1747250262116321540,0.11
1747250262124008243,0.14
1747250262131694946,0.147
1747250262139381649,0.137
1747250262147068352,0.113
1747250262154755055,0.078
1747250262162441758,0.019
1747250262170128461,-0.078
1747250262177815164,-0.196
1747250262185501867,-0.297
1747250262193188570,-0.379
1747250262200875273,-0.44
1747250262208561976,-0.48
1747250262216248679,-0.504
1747250262223935382,-0.514
1747250262231622085,-0.504
1747250262239308788,-0.484
1747250262246995491,-0.46
1747250262254682194,-0.428
1747250262262368897,-0.41300000000000003
1747250262270055600,-0.433
1747250262277742303,-0.443
1747250262285429006,-0.435
1747250262293115709,-0.425
1747250262300802412,-0.418
1747250262308489115,-0.40800000000000003
1747250262316175818,-0.418
1747250262323862521,-0.44
1747250262331549224,-0.41600000000000004
1747250262339235927,-0.376
1747250262346922630,-0.391
1747250262354609333,-0.425
1747250262362296036,-0.425
1747250262369982739,-0.386
1747250262377669442,-0.374
1747250262385356145,-0.406
1747250262393042848,-0.42
1747250262400729551,-0.423
1747250262408416254,-0.428
1747250262416102957,-0.398
1747250262423789660,-0.34900000000000003
1747250262431476363,-0.34700000000000003
1747250262439163066,-0.356
1747250262446849769,-0.327
1747250262454536472,-0.334
1747250262462223175,-0.393
1747250262469909878,-0.41300000000000003
1747250262477596581,-0.403
1747250262485283284,-0.406
1747250262492969987,-0.391
1747250262500656690,-0.379
1747250262508343393,-0.381
1747250262516030096,-0.371
1747250262523716799,-0.393
1747250262531403502,-0.45
1747250262539090205,-0.512
1747250262546776908,-0.529
1747250262554463611,-0.199
1747250262562150314,0.657
1747250262569837017,1.486
1747250262577523720,1.504
1747250262585210423,0.34400000000000003
1747250262592897126,-0.903
1747250262600583889,-0.834
1747250262608270592,-0.364
1747250262615957295,-0.509
1747250262623643998,-0.59
1747250262631330701,-0.41600000000000004
1747250262639017404,-0.42
1747250262646704107,-0.484
1747250262654390810,-0.403
1747250262662077513,-0.34700000000000003
1747250262669764216,-0.369
1747250262677450919,-0.34900000000000003
1747250262685137622,-0.297
1747250262692824325,-0.263
1747250262700511028,-0.23800000000000002
1747250262708197731,-0.219
1747250262715884434,-0.196
1747250262723571137,-0.177
1747250262731257840,-0.16
1747250262738944543,-0.093
1747250262746631246,-0.022
1747250262754317949,-0.014
1747250262762004652,0.024
1747250262769691355,0.083
1747250262777378058,0.024
1747250262785064761,-0.046
1747250262792751464,-0.012
1747250262800438167,-0.024
1747250262808124870,-0.152
1747250262815811573,-0.256
1747250262823498276,-0.292
1747250262831184979,-0.381
1747250262838871682,-0.487
1747250262846558385,-0.499
1747250262854245088,-0.494
1747250262861931791,-0.529
1747250262869618494,-0.536
1747250262877305197,-0.499
1747250262884991900,-0.482
1747250262892678603,-0.487
1747250262900365306,-0.47700000000000004
1747250262908052009,-0.448
1747250262915738712,-0.43
1747250262923425415,-0.452
1747250262931112118,-0.452
1747250262938798821,-0.403
1747250262946485524,-0.391
1747250262954172227,-0.425
1747250262961858930,-0.438
1747250262969545633,-0.41600000000000004
1747250262977232336,-0.403
1747250262984919039,-0.406
1747250262992605742,-0.43
1747250263000292445,-0.448
1747250263007979148,-0.41100000000000003
1747250263015665851,-0.379
1747250263023352554,-0.418
1747250263031039257,-0.433
1747250263038725960,-0.391
1747250263046412663,-0.384
1747250263054099366,-0.384
1747250263061786069,-0.34400000000000003
1747250263069472772,-0.332
1747250263077159475,-0.356
1747250263084846178,-0.339
1747250263092532881,-0.334
1747250263100219584,-0.381
1747250263107906287,-0.398
1747250263115592990,-0.374
1747250263123279693,-0.364
1747250263130966396,-0.376
1747250263138653099,-0.376
1747250263146339802,-0.354
1747250263154026505,-0.354
1747250263161713272,-0.369,92,649
1747250263169399975,-0.398,,659
1747250263177086678,-0.487
1747250263184773381,-0.462
1747250263192460084,0.004
1747250263200146787,0.839
1747250263207833490,1.5210000000000001
1747250263215520193,1.334
1747250263223206896,0.036000000000000004
1747250263230893599,-0.9570000000000001
1747250263238580302,-0.647
1747250263246267005,-0.327
1747250263253953708,-0.546
1747250263261640411,-0.553
1747250263269327114,-0.418
1747250263277013817,-0.425
1747250263284700520,-0.41600000000000004
1747250263292387223,-0.381
1747250263300073926,-0.388
1747250263307760629,-0.359
1747250263315447332,-0.295
1747250263323134035,-0.265
1747250263330820738,-0.256
1747250263338507441,-0.246
1747250263346194144,-0.224
1747250263353880847,-0.17400000000000002
1747250263361567550,-0.12
1747250263369254253,-0.073
1747250263376940956,-0.019
1747250263384627659,0.012
1747250263392314362,0.032
1747250263400001065,0.078
1747250263407687768,0.088
1747250263415374471,0.049
1747250263423061174,0.019
1747250263430747877,-0.017
1747250263438434580,-0.07100000000000001
1747250263446121283,-0.12
1747250263453807986,-0.199
1747250263461494689,-0.305
1747250263469181392,-0.398
1747250263476868095,-0.47000000000000003
1747250263484554798,-0.521
1747250263492241501,-0.521
1747250263499928204,-0.489
1747250263507614907,-0.489
1747250263515301610,-0.502
1747250263522988313,-0.48
1747250263530675016,-0.47200000000000003
1747250263538361719,-0.482
1747250263546048422,-0.457
1747250263553735125,-0.423
1747250263561421828,-0.423
1747250263569108531,-0.43
1747250263576795234,-0.433
1747250263584481937,-0.44
1747250263592168640,-0.42
1747250263599855343,-0.391
1747250263607542046,-0.41300000000000003
1747250263615228749,-0.438
1747250263622915452,-0.41300000000000003
1747250263630602155,-0.41100000000000003
1747250263638288858,-0.43
1747250263645975561,-0.40800000000000003
1747250263653662264,-0.379
1747250263661348967,-0.40800000000000003
1747250263669035670,-0.43
1747250263676722373,-0.41600000000000004
1747250263684409076,-0.423
1747250263692095779,-0.403
1747250263699782482,-0.334
1747250263707469185,-0.315
1747250263715155888,-0.34700000000000003
1747250263722842651,-0.361
1747250263730529354,-0.374
1747250263738216057,-0.386
1747250263745902760,-0.381
1747250263753589463,-0.386
1747250263761276166,-0.40800000000000003
1747250263768962869,-0.41600000000000004
1747250263776649572,-0.388
1747250263784336275,-0.364
1747250263792022978,-0.376
1747250263799709681,-0.396
1747250263807396384,-0.41100000000000003
1747250263815083087,-0.489
1747250263822769790,-0.536
1747250263830456493,-0.17400000000000002
1747250263838143196,0.664
1747250263845829899,1.496
1747250263853516602,1.536
1747250263861203305,0.302
1747250263868890008,-0.962
1747250263876576711,-0.809
1747250263884263414,-0.307
1747250263891950117,-0.47500000000000003
1747250263899636820,-0.583
1747250263907323523,-0.425
1747250263915010226,-0.41300000000000003
1747250263922696929,-0.448
1747250263930383632,-0.398
1747250263938070335,-0.369
1747250263945757038,-0.364
1747250263953443741,-0.324
1747250263961130444,-0.28800000000000003
1747250263968817147,-0.27
1747250263976503850,-0.256
1747250263984190553,-0.231
1747250263991877256,-0.211
1747250263999563959,-0.162
1747250264007250662,-0.061
1747250264014937365,-0.012
1747250264022624068,-0.024
1747250264030310771,0.024
1747250264037997474,0.073
1747250264045684177,0.046
1747250264053370880,0.024
1747250264061057583,0.051000000000000004
1747250264068744286,0.034
1747250264076430989,-0.044
1747250264084117692,-0.113
1747250264091804395,-0.192
1747250264099491098,-0.295
1747250264107177801,-0.381
1747250264114864504,-0.433
1747250264122551207,-0.482
1747250264130237910,-0.512
1747250264137924613,-0.507
1747250264145611316,-0.497
1747250264153298019,-0.494
1747250264160984722,-0.482
1747250264168671425,-0.467
1747250264176358128,-0.457
1747250264184044831,-0.452
1747250264191731534,-0.44
1747250264199418237,-0.425
1747250264207104940,-0.425
1747250264214791643,-0.43
1747250264222478346,-0.41300000000000003
1747250264230165049,-0.403
1747250264237851752,-0.42
1747250264245538455,-0.42
1747250264253225158,-0.41300000000000003
1747250264260911861,-0.41600000000000004
1747250264268598564,-0.40800000000000003
1747250264276285267,-0.403
1747250264283972030,-0.41600000000000004,92,643
1747250264291658733,-0.41100000000000003
1747250264299345436,-0.391
1747250264307032139,-0.398
1747250264314718842,-0.41100000000000003
1747250264322405545,-0.396
1747250264330092248,-0.398
1747250264337778951,-0.398
1747250264345465654,-0.354
1747250264353152357,-0.322
1747250264360839060,-0.342
1747250264368525763,-0.356
1747250264376212466,-0.327
1747250264383899169,-0.334
1747250264391585872,-0.386
1747250264399272575,-0.393
1747250264406959278,-0.374
1747250264414645981,-0.374
1747250264422332684,-0.376
1747250264430019387,-0.379
1747250264437706090,-0.366
1747250264445392793,-0.356
1747250264453079496,-0.384
1747250264460766199,-0.44
1747250264468452902,-0.509
1747250264476139605,-0.381
1747250264483826308,0.221
1747250264491513011,1.105
1747250264499199714,1.671
1747250264506886417,1.083
1747250264514573120,-0.428
1747250264522259823,-0.999
1747250264529946526,-0.47700000000000004
1747250264537633229,-0.34400000000000003
1747250264545319932,-0.539
1747250264553006635,-0.489
1747250264560693338,-0.435
1747250264568380041,-0.46
1747250264576066744,-0.41600000000000004
1747250264583753447,-0.366
1747250264591440150,-0.352
1747250264599126853,-0.327
1747250264606813556,-0.28800000000000003
1747250264614500259,-0.273
1747250264622186962,-0.28500000000000003
1747250264629873665,-0.228
1747250264637560368,-0.157
1747250264645247071,-0.167
1747250264652933774,-0.14200000000000002
1747250264660620477,-0.061
1747250264668307180,0.004
1747250264675993883,0.056
1747250264683680586,0.066
1747250264691367289,0.066
1747250264699053992,0.068
1747250264706740695,0.068
1747250264714427398,0.059000000000000004
1747250264722114101,-0.007
1747250264729800804,-0.093
1747250264737487507,-0.15
1747250264745174210,-0.231
1747250264752860913,-0.34400000000000003
1747250264760547616,-0.398
1747250264768234319,-0.393
1747250264775921022,-0.448
1747250264783607725,-0.529
1747250264791294428,-0.519
1747250264798981131,-0.47200000000000003
1747250264806667834,-0.433
1747250264814354537,-0.403
1747250264822041240,-0.43
1747250264829727943,-0.462
1747250264837414646,-0.46
1747250264845101409,-0.435
1747250264852788112,-0.418
1747250264860474815,-0.465
1747250264868161518,-0.465
1747250264875848221,-0.374
1747250264883534924,-0.393
1747250264891221627,-0.465
1747250264898908330,-0.423
1747250264906595033,-0.40800000000000003
1747250264914281736,-0.47700000000000004
1747250264921968439,-0.467
1747250264929655142,-0.386
1747250264937341845,-0.381
1747250264945028548,-0.465
1747250264952715251,-0.47700000000000004
1747250264960401954,-0.391
1747250264968088657,-0.391
1747250264975775360,-0.457
1747250264983462063,-0.433
1747250264991148766,-0.369
1747250264998835469,-0.339
1747250265006522172,-0.334
1747250265014208875,-0.34700000000000003
1747250265021895578,-0.374
1747250265029582281,-0.391
1747250265037268984,-0.401
1747250265044955687,-0.41100000000000003
1747250265052642390,-0.41600000000000004
1747250265060329093,-0.42
1747250265068015796,-0.388
1747250265075702499,-0.342
1747250265083389202,-0.361
1747250265091075905,-0.388
1747250265098762608,-0.393
1747250265106449311,-0.487
1747250265114136014,-0.578
1747250265121822717,-0.31
1747250265129509420,0.467
1747250265137196123,1.383
1747250265144882826,1.659
1747250265152569529,0.585
1747250265160256232,-0.8220000000000001
1747250265167942935,-0.851
1747250265175629638,-0.339
1747250265183316341,-0.467
1747250265191003044,-0.58
1747250265198689747,-0.44
1747250265206376450,-0.438
1747250265214063153,-0.455
1747250265221749856,-0.384
1747250265229436559,-0.371
1747250265237123262,-0.361
1747250265244809965,-0.327
1747250265252496668,-0.312
1747250265260183371,-0.29
1747250265267870074,-0.253
1747250265275556777,-0.216
1747250265283243480,-0.169
1747250265290930183,-0.13
1747250265298616886,-0.098
1747250265306303589,-0.056
1747250265313990292,-0.009000000000000001
1747250265321676995,0.051000000000000004
1747250265329363698,0.10300000000000001
1747250265337050401,0.108
1747250265344737104,0.091
1747250265352423807,0.078
1747250265360110510,0.049
1747250265367797213,0.0
1747250265375483916,-0.059000000000000004
1747250265383170619,-0.152
1747250265390857322,-0.28500000000000003
1747250265398544025,-0.398
1747250265406230788,-0.448,92,637
1747250265413917491,-0.467,,640
1747250265421604194,-0.494
1747250265429290897,-0.526
1747250265436977600,-0.536
1747250265444664303,-0.516
1747250265452351006,-0.499
1747250265460037709,-0.497
1747250265467724412,-0.484
1747250265475411115,-0.465
1747250265483097818,-0.45
1747250265490784521,-0.44
1747250265498471224,-0.438
1747250265506157927,-0.438
1747250265513844630,-0.425
1747250265521531333,-0.42
1747250265529218036,-0.428
1747250265536904739,-0.423
1747250265544591442,-0.40800000000000003
1747250265552278145,-0.40800000000000003
1747250265559964848,-0.41300000000000003
1747250265567651551,-0.401
1747250265575338254,-0.398
1747250265583024957,-0.41300000000000003
1747250265590711660,-0.406
1747250265598398363,-0.388
1747250265606085066,-0.398
1747250265613771769,-0.41100000000000003
1747250265621458472,-0.41600000000000004
1747250265629145175,-0.435
1747250265636831878,-0.406
1747250265644518581,-0.3
1747250265652205284,-0.278
1747250265659891987,-0.342
1747250265667578690,-0.339
1747250265675265393,-0.329
1747250265682952096,-0.369
1747250265690638799,-0.391
1747250265698325502,-0.391
1747250265706012205,-0.391
1747250265713698908,-0.384
1747250265721385611,-0.376
1747250265729072314,-0.371
1747250265736759017,-0.376
1747250265744445720,-0.379
1747250265752132423,-0.398
1747250265759819126,-0.484
1747250265767505829,-0.5630000000000001
1747250265775192532,-0.317
1747250265782879235,0.462
1747250265790565938,1.42
1747250265798252641,1.762
1747250265805939344,0.706
1747250265813626047,-0.795
1747250265821312750,-0.908
1747250265828999453,-0.366
1747250265836686156,-0.457
1747250265844372859,-0.578
1747250265852059562,-0.428
1747250265859746265,-0.41100000000000003
1747250265867432968,-0.452
1747250265875119671,-0.393
1747250265882806374,-0.356
1747250265890493077,-0.364
1747250265898179780,-0.329
1747250265905866483,-0.295
1747250265913553186,-0.28500000000000003
1747250265921239889,-0.251
1747250265928926592,-0.194
1747250265936613295,-0.164
1747250265944299998,-0.14
1747250265951986701,-0.088
1747250265959673404,-0.029
1747250265967360171,0.014,93,649
1747250265975046874,0.061
1747250265982733577,0.10300000000000001
1747250265990420280,0.12
1747250265998106983,0.123
1747250266005793686,0.105
1747250266013480389,0.068
1747250266021167092,0.029
1747250266028853795,-0.029
1747250266036540498,-0.128
1747250266044227201,-0.23800000000000002
1747250266051913904,-0.339
1747250266059600607,-0.418
1747250266067287310,-0.47000000000000003
1747250266074974013,-0.497
1747250266082660716,-0.512
1747250266090347419,-0.509
1747250266098034122,-0.497
1747250266105720825,-0.487
1747250266113407528,-0.47200000000000003
1747250266121094231,-0.455
1747250266128780934,-0.443
1747250266136467637,-0.43
1747250266144154340,-0.418
1747250266151841043,-0.41100000000000003
1747250266159527746,-0.403
1747250266167214449,-0.396
1747250266174901152,-0.391
1747250266182587855,-0.384
1747250266190274558,-0.379
1747250266197961261,-0.384
1747250266205647964,-0.391
1747250266213334667,-0.381
1747250266221021370,-0.374
1747250266228708073,-0.374
1747250266236394776,-0.371
1747250266244081479,-0.369
1747250266251768182,-0.371
1747250266259454885,-0.371
1747250266267141588,-0.364
1747250266274828291,-0.361
1747250266282514994,-0.369
1747250266290201697,-0.356
1747250266297888400,-0.322
1747250266305575103,-0.305
1747250266313261806,-0.32
1747250266320948509,-0.31
1747250266328635212,-0.28
1747250266336321915,-0.297
1747250266344008618,-0.34400000000000003
1747250266351695321,-0.356
1747250266359382024,-0.342
1747250266367068727,-0.329
1747250266374755430,-0.32
1747250266382442133,-0.317
1747250266390128836,-0.324
1747250266397815539,-0.322
1747250266405502242,-0.324
1747250266413188945,-0.361
1747250266420875648,-0.46
1747250266428562351,-0.457
1747250266436249054,0.019
1747250266443935757,0.9470000000000001
1747250266451622460,1.688
1747250266459309163,1.462
1747250266466995866,0.1
1747250266474682569,-0.9570000000000001
1747250266482369272,-0.669
1747250266490055975,-0.28
1747250266497742678,-0.467
1747250266505429381,-0.497
1747250266513116084,-0.34900000000000003
1747250266520802787,-0.364
1747250266528489550,-0.384
1747250266536176253,-0.315
1747250266543862956,-0.28800000000000003
1747250266551549659,-0.28800000000000003
1747250266559236362,-0.256
1747250266566923065,-0.224
1747250266574609768,-0.20400000000000001
1747250266582296471,-0.179
1747250266589983174,-0.14
1747250266597669877,-0.098
1747250266605356580,-0.056
1747250266613043283,-0.004
1747250266620729986,0.061
1747250266628416689,0.115
1747250266636103392,0.162
1747250266643790095,0.20600000000000002
1747250266651476798,0.216
1747250266659163501,0.196
1747250266666850204,0.179
1747250266674536907,0.14200000000000002
1747250266682223610,0.076
1747250266689910313,-0.022
1747250266697597016,-0.135
1747250266705283719,-0.258
1747250266712970422,-0.364
1747250266720657125,-0.44
1747250266728343828,-0.494
1747250266736030531,-0.526
1747250266743717234,-0.534
1747250266751403937,-0.529
1747250266759090640,-0.516
1747250266766777343,-0.507
1747250266774464046,-0.492
1747250266782150749,-0.47500000000000003
1747250266789837452,-0.462
1747250266797524155,-0.452
1747250266805210858,-0.44
1747250266812897561,-0.428
1747250266820584264,-0.423
1747250266828270967,-0.418
1747250266835957670,-0.40800000000000003
1747250266843644373,-0.403
1747250266851331076,-0.403
1747250266859017779,-0.401
1747250266866704482,-0.398
1747250266874391185,-0.396
1747250266882077888,-0.393
1747250266889764591,-0.393
1747250266897451294,-0.396
1747250266905137997,-0.398
1747250266912824700,-0.401
1747250266920511403,-0.396
1747250266928198106,-0.374
1747250266935884809,-0.356
1747250266943571512,-0.359
1747250266951258215,-0.359
1747250266958944918,-0.34400000000000003
1747250266966631621,-0.339
1747250266974318324,-0.374
1747250266982005027,-0.401
1747250266989691730,-0.396
1747250266997378433,-0.386
1747250267005065136,-0.376
1747250267012751839,-0.371
1747250267020438542,-0.369
1747250267028125245,-0.366
1747250267035811948,-0.371
1747250267043498651,-0.401
1747250267051185354,-0.47700000000000004
1747250267058872057,-0.499
1747250267066558760,-0.1
1747250267074245463,0.792
1747250267081932166,1.558
1747250267089618929,1.425,93,644
1747250267097305632,0.15,,653
1747250267104992335,-1.006
1747250267112679038,-0.8190000000000001
1747250267120365741,-0.361
1747250267128052444,-0.487
1747250267135739147,-0.529
1747250267143425850,-0.388
1747250267151112553,-0.398
1747250267158799256,-0.418
1747250267166485959,-0.356
1747250267174172662,-0.332
1747250267181859365,-0.327
1747250267189546068,-0.295
1747250267197232771,-0.268
1747250267204919474,-0.251
1747250267212606177,-0.216
1747250267220292880,-0.17200000000000001
1747250267227979583,-0.135
1747250267235666286,-0.093
1747250267243352989,-0.036000000000000004
1747250267251039692,0.022
1747250267258726395,0.081
1747250267266413098,0.135
1747250267274099801,0.177
1747250267281786504,0.189
1747250267289473207,0.177
1747250267297159910,0.155
1747250267304846613,0.11800000000000001
1747250267312533316,0.051000000000000004
1747250267320220019,-0.046
1747250267327906722,-0.167
1747250267335593425,-0.295
1747250267343280128,-0.401
1747250267350966831,-0.47700000000000004
1747250267358653534,-0.529
1747250267366340237,-0.548
1747250267374026940,-0.548
1747250267381713643,-0.551
1747250267389400346,-0.544
1747250267397087049,-0.524
1747250267404773752,-0.499
1747250267412460455,-0.487
1747250267420147158,-0.47700000000000004
1747250267427833861,-0.462
1747250267435520564,-0.445
1747250267443207267,-0.44
1747250267450893970,-0.435
1747250267458580673,-0.418
1747250267466267376,-0.41100000000000003
1747250267473954079,-0.41600000000000004
1747250267481640782,-0.41100000000000003
1747250267489327485,-0.401
1747250267497014188,-0.401
1747250267504700891,-0.401
1747250267512387594,-0.396
1747250267520074297,-0.396
1747250267527761000,-0.396
1747250267535447703,-0.393
1747250267543134406,-0.396
1747250267550821109,-0.393
1747250267558507812,-0.374
1747250267566194515,-0.354
1747250267573881218,-0.352
1747250267581567921,-0.34700000000000003
1747250267589254624,-0.327
1747250267596941327,-0.32
1747250267604628030,-0.34900000000000003
1747250267612314733,-0.384
1747250267620001436,-0.381
1747250267627688139,-0.366
1747250267635374842,-0.366
1747250267643061545,-0.364
1747250267650748308,-0.359
1747250267658434872,-0.356
1747250267666121436,-0.356
1747250267673808000,-0.366
1747250267681494564,-0.418
1747250267689181128,-0.507
1747250267696867692,-0.374
1747250267704554256,0.32
1747250267712240820,1.2530000000000001
1747250267719927384,1.6440000000000001
1747250267727613948,0.896
1747250267735300512,-0.531
1747250267742987076,-1.0210000000000001
1747250267750673640,-0.519
1747250267758360204,-0.384
1747250267766046768,-0.539
1747250267773733332,-0.445
1747250267781419896,-0.369
1747250267789106460,-0.40800000000000003
1747250267796793024,-0.379
1747250267804479588,-0.324
1747250267812166152,-0.315
1747250267819852716,-0.3
1747250267827539280,-0.27
1747250267835225844,-0.248
1747250267842912408,-0.216
1747250267850598972,-0.179
1747250267858285536,-0.147
1747250267865972100,-0.10300000000000001
1747250267873658664,-0.046
1747250267881345228,0.009000000000000001
1747250267889031792,0.066
1747250267896718356,0.123
1747250267904404920,0.169
1747250267912091484,0.192
1747250267919778048,0.192
1747250267927464612,0.17200000000000001
1747250267935151176,0.14
1747250267942837740,0.093
1747250267950524304,0.024
1747250267958210868,-0.08600000000000001
1747250267965897432,-0.224
1747250267973583996,-0.34700000000000003
1747250267981270560,-0.425
1747250267988957124,-0.497
1747250267996643688,-0.544
1747250268004330252,-0.536
1747250268012016816,-0.529
1747250268019703380,-0.546
1747250268027389944,-0.541
1747250268035076508,-0.531
1747250268042763072,-0.524
1747250268050449636,-0.504
1747250268058136200,-0.494
1747250268065822764,-0.47500000000000003
1747250268073509328,-0.428
1747250268081195892,-0.41300000000000003
1747250268088882456,-0.438
1747250268096569020,-0.438
1747250268104255584,-0.42
1747250268111942148,-0.418
1747250268119628712,-0.425
1747250268127315276,-0.43
1747250268135001840,-0.425
1747250268142688404,-0.40800000000000003
1747250268150374968,-0.403
1747250268158061532,-0.42
1747250268165748096,-0.43
1747250268173434660,-0.423
1747250268181121224,-0.418
1747250268188807788,-0.40800000000000003
1747250268196494352,-0.386
1747250268204180916,-0.364
1747250268211867517,-0.366,93,658
1747250268219554290,-0.376
1747250268227241063,-0.364
1747250268234927836,-0.361
1747250268242614609,-0.391
1747250268250301382,-0.418
1747250268257988155,-0.41600000000000004
1747250268265674928,-0.398
1747250268273361701,-0.381
1747250268281048474,-0.374
1747250268288735247,-0.374
1747250268296422020,-0.376
1747250268304108793,-0.393
1747250268311795566,-0.44
1747250268319482339,-0.526
1747250268327169112,-0.507
1747250268334855885,0.004
1747250268342542658,0.962
1747250268350229431,1.701
1747250268357916204,1.437
1747250268365602977,0.009000000000000001
1747250268373289750,-1.08
1747250268380976523,-0.76
1747250268388663296,-0.354
1747250268396350069,-0.526
1747250268404036842,-0.536
1747250268411723615,-0.401
1747250268419410388,-0.418
1747250268427097161,-0.425
1747250268434783934,-0.369
1747250268442470707,-0.34900000000000003
1747250268450157480,-0.342
1747250268457844253,-0.31
1747250268465531026,-0.275
1747250268473217799,-0.253
1747250268480904572,-0.221
1747250268488591345,-0.189
1747250268496278118,-0.155
1747250268503964891,-0.108
1747250268511651664,-0.064
1747250268519338437,-0.009000000000000001
1747250268527025210,0.054
1747250268534711983,0.11800000000000001
1747250268542398756,0.155
1747250268550085529,0.14200000000000002
1747250268557772302,0.115
1747250268565459075,0.11
1747250268573145848,0.081
1747250268580832621,0.012
1747250268588519394,-0.083
1747250268596206167,-0.187
1747250268603892940,-0.297
1747250268611579713,-0.401
1747250268619266486,-0.47000000000000003
1747250268626953259,-0.509
1747250268634640032,-0.536
1747250268642326805,-0.539
1747250268650013578,-0.524
1747250268657700351,-0.524
1747250268665387124,-0.514
1747250268673073897,-0.482
1747250268680760670,-0.46
1747250268688447443,-0.455
1747250268696134216,-0.438
1747250268703820989,-0.41600000000000004
1747250268711507762,-0.418
1747250268719194535,-0.423
1747250268726881308,-0.406
1747250268734568081,-0.398
1747250268742254854,-0.41600000000000004
1747250268749941627,-0.41100000000000003
1747250268757628400,-0.401
1747250268765315173,-0.42
1747250268773001983,-0.418
1747250268780688338,-0.398
1747250268788374693,-0.40800000000000003
1747250268796061048,-0.41100000000000003
1747250268803747403,-0.393
1747250268811433758,-0.41100000000000003
1747250268819120113,-0.433
1747250268826806468,-0.393
1747250268834492823,-0.34700000000000003
1747250268842179178,-0.356
1747250268849865533,-0.374
1747250268857551888,-0.354
1747250268865238243,-0.332
1747250268872924598,-0.34900000000000003
1747250268880610953,-0.388
1747250268888297308,-0.386
1747250268895983663,-0.34900000000000003
1747250268903670018,-0.34700000000000003
1747250268911356373,-0.371
1747250268919042728,-0.386
1747250268926729083,-0.374
1747250268934415438,-0.386
1747250268942101793,-0.418
1747250268949788148,-0.445
1747250268957474503,-0.492
1747250268965160858,-0.381
1747250268972847213,0.243
1747250268980533568,1.198
1747250268988219923,1.7550000000000001
1747250268995906278,1.1320000000000001
1747250269003592633,-0.369
1747250269011278988,-0.984
1747250269018965343,-0.487
1747250269026651698,-0.364
1747250269034338053,-0.593
1747250269042024408,-0.502
1747250269049710763,-0.393
1747250269057397118,-0.457
1747250269065083473,-0.443
1747250269072769828,-0.364
1747250269080456183,-0.366
1747250269088142538,-0.371
1747250269095828893,-0.31
1747250269103515248,-0.28500000000000003
1747250269111201603,-0.292
1747250269118887958,-0.256
1747250269126574313,-0.196
1747250269134260668,-0.162
1747250269141947023,-0.137
1747250269149633378,-0.096
1747250269157319733,-0.041
1747250269165006088,0.009000000000000001
1747250269172692443,0.049
1747250269180378798,0.068
1747250269188065153,0.066
1747250269195751508,0.049
1747250269203437863,0.022
1747250269211124218,-0.012
1747250269218810573,-0.049
1747250269226496928,-0.125
1747250269234183283,-0.23600000000000002
1747250269241869638,-0.329
1747250269249555993,-0.393
1747250269257242348,-0.467
1747250269264928703,-0.516
1747250269272615058,-0.524
1747250269280301413,-0.521
1747250269287987768,-0.519
1747250269295674123,-0.507
1747250269303360478,-0.487
1747250269311046833,-0.448
1747250269318733188,-0.406
1747250269326419543,-0.418
1747250269334105927,-0.452,93,631
1747250269341792700,-0.445,,634
1747250269349479473,-0.435
1747250269357166246,-0.445
1747250269364853019,-0.443
1747250269372539792,-0.43
1747250269380226565,-0.423
1747250269387913338,-0.423
1747250269395600111,-0.423
1747250269403286884,-0.41300000000000003
1747250269410973657,-0.41300000000000003
1747250269418660430,-0.42
1747250269426347203,-0.41300000000000003
1747250269434033976,-0.41100000000000003
1747250269441720749,-0.418
1747250269449407522,-0.393
1747250269457094295,-0.364
1747250269464781068,-0.34900000000000003
1747250269472467841,-0.342
1747250269480154614,-0.342
1747250269487841387,-0.34700000000000003
1747250269495528160,-0.359
1747250269503214933,-0.384
1747250269510901706,-0.388
1747250269518588479,-0.391
1747250269526275252,-0.398
1747250269533962025,-0.366
1747250269541648798,-0.339
1747250269549335571,-0.364
1747250269557022344,-0.393
1747250269564709117,-0.401
1747250269572395890,-0.452
1747250269580082663,-0.539
1747250269587769436,-0.302
1747250269595456209,0.482
1747250269603142982,1.393
1747250269610829755,1.661
1747250269618516528,0.637
1747250269626203301,-0.775
1747250269633890074,-0.876
1747250269641576847,-0.34700000000000003
1747250269649263620,-0.43
1747250269656950393,-0.5730000000000001
1747250269664637166,-0.44
1747250269672323939,-0.396
1747250269680010712,-0.428
1747250269687697485,-0.393
1747250269695384258,-0.366
1747250269703071031,-0.34900000000000003
1747250269710757804,-0.307
1747250269718444577,-0.28800000000000003
1747250269726131350,-0.28300000000000003
1747250269733818123,-0.246
1747250269741504896,-0.20600000000000002
1747250269749191669,-0.189
1747250269756878442,-0.15
1747250269764565215,-0.08600000000000001
1747250269772251988,-0.044
1747250269779938761,-0.012
1747250269787625534,0.036000000000000004
1747250269795312307,0.081
1747250269802999080,0.091
1747250269810685853,0.066
1747250269818372626,0.046
1747250269826059399,0.041
1747250269833746172,-0.002
1747250269841432945,-0.08600000000000001
1747250269849119718,-0.17400000000000002
1747250269856806491,-0.27
1747250269864493264,-0.359
1747250269872180037,-0.42
1747250269879866810,-0.47000000000000003
1747250269887553583,-0.509
1747250269895240397,-0.519
1747250269902927867,-0.502
1747250269910615337,-0.482
1747250269918302807,-0.47200000000000003
1747250269925990277,-0.462
1747250269933677747,-0.462
1747250269941365217,-0.457
1747250269949052687,-0.433
1747250269956740157,-0.418
1747250269964427627,-0.428
1747250269972115097,-0.425
1747250269979802567,-0.406
1747250269987490037,-0.406
1747250269995177507,-0.41100000000000003
1747250270002864977,-0.406
1747250270010552447,-0.41100000000000003
1747250270018239917,-0.42
1747250270025927387,-0.406
1747250270033614857,-0.388
1747250270041302327,-0.396
1747250270048989797,-0.401
1747250270056677267,-0.396
1747250270064364737,-0.401
1747250270072052207,-0.396
1747250270079739677,-0.359
1747250270087427147,-0.322
1747250270095114617,-0.332
1747250270102802087,-0.352
1747250270110489557,-0.332
1747250270118177027,-0.324
1747250270125864497,-0.361
1747250270133551967,-0.391
1747250270141239437,-0.386
1747250270148926907,-0.366
1747250270156614377,-0.359
1747250270164301847,-0.366
1747250270171989317,-0.371
1747250270179676787,-0.356
1747250270187364257,-0.364
1747250270195051727,-0.41600000000000004
1747250270202739197,-0.502
1747250270210426667,-0.46
1747250270218114137,0.051000000000000004
1747250270225801607,0.962
1747250270233489077,1.6640000000000001
1747250270241176547,1.292
1747250270248864017,-0.17400000000000002
1747250270256551487,-0.997
1747250270264238957,-0.551
1747250270271926427,-0.32
1747250270279613897,-0.551
1747250270287301367,-0.512
1747250270294988837,-0.396
1747250270302676307,-0.44
1747250270310363777,-0.425
1747250270318051247,-0.352
1747250270325738717,-0.34700000000000003
1747250270333426187,-0.34400000000000003
1747250270341113657,-0.3
1747250270348801127,-0.278
1747250270356488597,-0.268
1747250270364176067,-0.233
1747250270371863537,-0.20400000000000001
1747250270379551007,-0.17400000000000002
1747250270387238477,-0.108
1747250270394925947,-0.061
1747250270402613417,-0.041
1747250270410300887,0.012
1747250270417988357,0.054
1747250270425675827,0.056
1747250270433363297,0.061
1747250270441050767,0.056
1747250270448738237,0.036000000000000004
1747250270456425725,0.012,93,634
1747250270464111592,-0.036000000000000004,,636
1747250270471797459,-0.115
1747250270479483326,-0.20400000000000001
1747250270487169193,-0.3
1747250270494855060,-0.386
1747250270502540927,-0.44
1747250270510226794,-0.47700000000000004
1747250270517912661,-0.502
1747250270525598528,-0.494
1747250270533284395,-0.48
1747250270540970262,-0.467
1747250270548656129,-0.448
1747250270556341996,-0.445
1747250270564027863,-0.448
1747250270571713730,-0.43
1747250270579399597,-0.41600000000000004
1747250270587085464,-0.41600000000000004
1747250270594771331,-0.406
1747250270602457198,-0.398
1747250270610143065,-0.393
1747250270617828932,-0.393
1747250270625514799,-0.403
1747250270633200666,-0.406
1747250270640886533,-0.396
1747250270648572400,-0.388
1747250270656258267,-0.384
1747250270663944134,-0.384
1747250270671630001,-0.391
1747250270679315868,-0.388
1747250270687001735,-0.381
1747250270694687602,-0.386
1747250270702373469,-0.366
1747250270710059336,-0.327
1747250270717745203,-0.32
1747250270725431070,-0.324
1747250270733116937,-0.315
1747250270740802804,-0.322
1747250270748488671,-0.356
1747250270756174538,-0.381
1747250270763860405,-0.374
1747250270771546272,-0.356
1747250270779232139,-0.361
1747250270786918006,-0.359
1747250270794603873,-0.34700000000000003
1747250270802289740,-0.34700000000000003
1747250270809975607,-0.361
1747250270817661474,-0.388
1747250270825347341,-0.462
1747250270833033208,-0.516
1747250270840719075,-0.228
1747250270848404942,0.5760000000000001
1747250270856090809,1.469
1747250270863776676,1.676
1747250270871462543,0.5680000000000001
1747250270879148410,-0.844
1747250270886834277,-0.873
1747250270894520144,-0.34400000000000003
1747250270902206011,-0.445
1747250270909891878,-0.544
1747250270917577745,-0.401
1747250270925263612,-0.384
1747250270932949479,-0.41100000000000003
1747250270940635346,-0.356
1747250270948321213,-0.322
1747250270956007080,-0.315
1747250270963692947,-0.29
1747250270971378814,-0.256
1747250270979064681,-0.228
1747250270986750548,-0.196
1747250270994436415,-0.162
1747250271002122282,-0.137
1747250271009808149,-0.105
1747250271017494068,-0.039,93,620
1747250271025180771,0.029
1747250271032867474,0.076
1747250271040554177,0.12
1747250271048240880,0.162
1747250271055927583,0.164
1747250271063614286,0.15
1747250271071300989,0.14200000000000002
1747250271078987692,0.115
1747250271086674395,0.066
1747250271094361098,-0.019
1747250271102047801,-0.137
1747250271109734504,-0.23600000000000002
1747250271117421207,-0.32
1747250271125107910,-0.41100000000000003
1747250271132794613,-0.47000000000000003
1747250271140481316,-0.487
1747250271148168019,-0.497
1747250271155854722,-0.509
1747250271163541425,-0.504
1747250271171228128,-0.482
1747250271178914831,-0.465
1747250271186601534,-0.45
1747250271194288237,-0.44
1747250271201974940,-0.428
1747250271209661643,-0.41300000000000003
1747250271217348346,-0.41100000000000003
1747250271225035049,-0.41100000000000003
1747250271232721752,-0.403
1747250271240408455,-0.401
1747250271248095158,-0.406
1747250271255781861,-0.401
1747250271263468564,-0.386
1747250271271155267,-0.393
1747250271278841970,-0.406
1747250271286528673,-0.40800000000000003
1747250271294215376,-0.42
1747250271301902079,-0.425
1747250271309588782,-0.401
1747250271317275485,-0.361
1747250271324962188,-0.34700000000000003
1747250271332648891,-0.356
1747250271340335594,-0.352
1747250271348022297,-0.337
1747250271355709000,-0.356
1747250271363395703,-0.393
1747250271371082406,-0.40800000000000003
1747250271378769109,-0.403
1747250271386455812,-0.391
1747250271394142515,-0.374
1747250271401829218,-0.366
1747250271409515921,-0.374
1747250271417202624,-0.376
1747250271424889327,-0.384
1747250271432576030,-0.435
1747250271440262733,-0.536
1747250271447949436,-0.497
1747250271455636139,0.054
1747250271463322842,0.999
1747250271471009545,1.6640000000000001
1747250271478696248,1.307
1747250271486382951,-0.098
1747250271494069654,-1.0010000000000001
1747250271501756357,-0.637
1747250271509443060,-0.354
1747250271517129763,-0.553
1747250271524816466,-0.534
1747250271532503169,-0.41600000000000004
1747250271540189872,-0.445
1747250271547876575,-0.443
1747250271555563278,-0.384
1747250271563249981,-0.366
1747250271570936684,-0.354
1747250271578623447,-0.317
1747250271586310081,-0.29
1747250271593996715,-0.273
1747250271601683349,-0.251
1747250271609369983,-0.224
1747250271617056617,-0.182
1747250271624743251,-0.14
1747250271632429885,-0.088
1747250271640116519,-0.044
1747250271647803153,-0.007
1747250271655489787,0.034
1747250271663176421,0.054
1747250271670863055,0.051000000000000004
1747250271678549689,0.049
1747250271686236323,0.029
1747250271693922957,-0.017
1747250271701609591,-0.076
1747250271709296225,-0.157
1747250271716982859,-0.256
1747250271724669493,-0.34700000000000003
1747250271732356127,-0.423
1747250271740042761,-0.47200000000000003
1747250271747729395,-0.487
1747250271755416029,-0.499
1747250271763102663,-0.529
1747250271770789297,-0.534
1747250271778475931,-0.504
1747250271786162565,-0.467
1747250271793849199,-0.457
1747250271801535833,-0.46
1747250271809222467,-0.435
1747250271816909101,-0.42
1747250271824595735,-0.435
1747250271832282369,-0.423
1747250271839969003,-0.403
1747250271847655637,-0.403
1747250271855342271,-0.403
1747250271863028905,-0.403
1747250271870715539,-0.41300000000000003
1747250271878402173,-0.406
1747250271886088807,-0.386
1747250271893775441,-0.388
1747250271901462075,-0.403
1747250271909148709,-0.396
1747250271916835343,-0.384
1747250271924521977,-0.401
1747250271932208611,-0.423
1747250271939895245,-0.40800000000000003
1747250271947581879,-0.356
1747250271955268513,-0.329
1747250271962955147,-0.337
1747250271970641781,-0.327
1747250271978328415,-0.32
1747250271986015049,-0.34900000000000003
1747250271993701683,-0.384
1747250272001388317,-0.386
1747250272009074951,-0.364
1747250272016761585,-0.356
1747250272024448219,-0.366
1747250272032134853,-0.371
1747250272039821487,-0.369
1747250272047508121,-0.356
1747250272055194755,-0.356
1747250272062881389,-0.41300000000000003
1747250272070568023,-0.507
1747250272078254657,-0.45
1747250272085941291,0.068
1747250272093627925,0.9450000000000001
1747250272101314559,1.619
1747250272109001193,1.385
1747250272116687827,0.039
1747250272124374461,-0.9520000000000001
1747250272132061095,-0.63
1747250272139747743,-0.31,94,626
1747250272147434098,-0.534,,626
1747250272155120453,-0.546
1747250272162806808,-0.40800000000000003
1747250272170493163,-0.435
1747250272178179518,-0.445
1747250272185865873,-0.384
1747250272193552228,-0.369
1747250272201238583,-0.359
1747250272208924938,-0.32
1747250272216611293,-0.3
1747250272224297648,-0.29
1747250272231984003,-0.258
1747250272239670358,-0.209
1747250272247356713,-0.17200000000000001
1747250272255043068,-0.147
1747250272262729423,-0.105
1747250272270415778,-0.044
1747250272278102133,0.004
1747250272285788488,0.032
1747250272293474843,0.056
1747250272301161198,0.066
1747250272308847553,0.061
1747250272316533908,0.044
1747250272324220263,0.004
1747250272331906618,-0.044
1747250272339592973,-0.113
1747250272347279328,-0.221
1747250272354965683,-0.322
1747250272362652038,-0.388
1747250272370338393,-0.445
1747250272378024748,-0.487
1747250272385711103,-0.507
1747250272393397458,-0.507
1747250272401083813,-0.499
1747250272408770168,-0.489
1747250272416456523,-0.47700000000000004
1747250272424142878,-0.462
1747250272431829233,-0.443
1747250272439515588,-0.433
1747250272447201943,-0.435
1747250272454888298,-0.41600000000000004
1747250272462574653,-0.391
1747250272470261008,-0.396
1747250272477947363,-0.418
1747250272485633718,-0.41300000000000003
1747250272493320073,-0.384
1747250272501006428,-0.381
1747250272508692783,-0.401
1747250272516379138,-0.398
1747250272524065493,-0.388
1747250272531751848,-0.393
1747250272539438203,-0.396
1747250272547124558,-0.388
1747250272554810913,-0.388
1747250272562497268,-0.403
1747250272570183623,-0.40800000000000003
1747250272577869978,-0.381
1747250272585556333,-0.337
1747250272593242688,-0.312
1747250272600929043,-0.324
1747250272608615398,-0.324
1747250272616301753,-0.312
1747250272623988108,-0.334
1747250272631674463,-0.371
1747250272639360818,-0.379
1747250272647047173,-0.361
1747250272654733528,-0.354
1747250272662419883,-0.356
1747250272670106238,-0.359
1747250272677792593,-0.352
1747250272685478948,-0.339
1747250272693165303,-0.352
1747250272700851687,-0.393
1747250272708538390,-0.487
1747250272716225093,-0.507
1747250272723911796,-0.096
1747250272731598499,0.77
1747250272739285202,1.568
1747250272746971905,1.56
1747250272754658608,0.317
1747250272762345311,-0.901
1747250272770032014,-0.728
1747250272777718717,-0.28800000000000003
1747250272785405420,-0.487
1747250272793092123,-0.5760000000000001
1747250272800778826,-0.41600000000000004
1747250272808465529,-0.396
1747250272816152232,-0.418
1747250272823838935,-0.379
1747250272831525638,-0.356
1747250272839212341,-0.337
1747250272846899044,-0.307
1747250272854585747,-0.28800000000000003
1747250272862272450,-0.263
1747250272869959153,-0.231
1747250272877645856,-0.201
1747250272885332559,-0.169
1747250272893019262,-0.123
1747250272900705965,-0.073
1747250272908392668,-0.027
1747250272916079371,0.019
1747250272923766074,0.061
1747250272931452777,0.08600000000000001
1747250272939139480,0.1
1747250272946826183,0.10300000000000001
1747250272954512886,0.081
1747250272962199589,0.029
1747250272969886292,-0.039
1747250272977572995,-0.08600000000000001
1747250272985259698,-0.13
1747250272992946401,-0.258
1747250273000633104,-0.391
1747250273008319807,-0.435
1747250273016006510,-0.457
1747250273023693213,-0.497
1747250273031379916,-0.507
1747250273039066619,-0.494
1747250273046753322,-0.492
1747250273054440025,-0.48
1747250273062126728,-0.445
1747250273069813431,-0.423
1747250273077500134,-0.428
1747250273085186837,-0.428
1747250273092873540,-0.425
1747250273100560243,-0.425
1747250273108246946,-0.418
1747250273115933649,-0.41100000000000003
1747250273123620352,-0.406
1747250273131307055,-0.388
1747250273138993758,-0.386
1747250273146680461,-0.401
1747250273154367164,-0.396
1747250273162053867,-0.384
1747250273169740570,-0.396
1747250273177427273,-0.398
1747250273185113976,-0.379
1747250273192800679,-0.374
1747250273200487382,-0.384
1747250273208174085,-0.386
1747250273215860788,-0.386
1747250273223547491,-0.386
1747250273231234194,-0.379
1747250273238920897,-0.364
1747250273246607600,-0.334
1747250273254294303,-0.307
1747250273261981070,-0.302,95,611
1747250273269667773,-0.32
1747250273277354476,-0.334
1747250273285041179,-0.342
1747250273292727882,-0.369
1747250273300414585,-0.384
1747250273308101288,-0.359
1747250273315787991,-0.342
1747250273323474694,-0.356
1747250273331161397,-0.364
1747250273338848100,-0.364
1747250273346534803,-0.364
1747250273354221506,-0.369
1747250273361908209,-0.423
1747250273369594912,-0.531
1747250273377281615,-0.418
1747250273384968318,0.209
1747250273392655021,1.127
1747250273400341724,1.735
1747250273408028427,1.191
1747250273415715130,-0.34400000000000003
1747250273423401833,-0.989
1747250273431088536,-0.467
1747250273438775239,-0.337
1747250273446461942,-0.5760000000000001
1747250273454148645,-0.497
1747250273461835348,-0.393
1747250273469522051,-0.428
1747250273477208754,-0.393
1747250273484895457,-0.34700000000000003
1747250273492582160,-0.356
1747250273500268863,-0.339
1747250273507955566,-0.292
1747250273515642269,-0.265
1747250273523328972,-0.253
1747250273531015675,-0.226
1747250273538702378,-0.184
1747250273546389081,-0.15
1747250273554075784,-0.11800000000000001
1747250273561762487,-0.068
1747250273569449190,0.0
1747250273577135893,0.046
1747250273584822596,0.059000000000000004
1747250273592509299,0.078
1747250273600196002,0.1
1747250273607882705,0.08600000000000001
1747250273615569408,0.059000000000000004
1747250273623256111,0.034
1747250273630942814,-0.027
1747250273638629517,-0.11
1747250273646316220,-0.20400000000000001
1747250273654002923,-0.312
1747250273661689626,-0.406
1747250273669376329,-0.45
1747250273677063032,-0.489
1747250273684749735,-0.526
1747250273692436438,-0.509
1747250273700123141,-0.47000000000000003
1747250273707809844,-0.47000000000000003
1747250273715496547,-0.48
1747250273723183250,-0.462
1747250273730869953,-0.443
1747250273738556656,-0.428
1747250273746243359,-0.41100000000000003
1747250273753930062,-0.41300000000000003
1747250273761616765,-0.418
1747250273769303468,-0.401
1747250273776990171,-0.396
1747250273784676874,-0.40800000000000003
1747250273792363577,-0.41300000000000003
1747250273800050280,-0.406
1747250273807736983,-0.406
1747250273815423686,-0.406
1747250273823110449,-0.396
1747250273830797152,-0.386
1747250273838483855,-0.396
1747250273846170558,-0.393
1747250273853857261,-0.376
1747250273861543964,-0.393
1747250273869230667,-0.398
1747250273876917370,-0.364
1747250273884604073,-0.366
1747250273892290776,-0.393
1747250273899977479,-0.393
1747250273907664182,-0.381
1747250273915350885,-0.34700000000000003
1747250273923037588,-0.32
1747250273930724291,-0.322
1747250273938410994,-0.315
1747250273946097697,-0.3
1747250273953784400,-0.315
1747250273961471103,-0.359
1747250273969157806,-0.391
1747250273976844509,-0.364
1747250273984531212,-0.337
1747250273992217915,-0.364
1747250273999904618,-0.361
1747250274007591321,-0.334
1747250274015278024,-0.342
1747250274022964727,-0.34900000000000003
1747250274030651430,-0.354
1747250274038338133,-0.44
1747250274046024836,-0.544
1747250274053711539,-0.334
1747250274061398242,0.386
1747250274069084945,1.299
1747250274076771648,1.742
1747250274084458351,0.893
1747250274092145054,-0.622
1747250274099831757,-0.905
1747250274107518460,-0.354
1747250274115205163,-0.388
1747250274122891866,-0.5760000000000001
1747250274130578569,-0.443
1747250274138265272,-0.381
1747250274145951975,-0.428
1747250274153638678,-0.381
1747250274161325381,-0.339
1747250274169012084,-0.352
1747250274176698787,-0.334
1747250274184385490,-0.3
1747250274192072193,-0.275
1747250274199758896,-0.241
1747250274207445599,-0.192
1747250274215132302,-0.162
1747250274222819005,-0.145
1747250274230505708,-0.108
1747250274238192411,-0.056
1747250274245879114,-0.007
1747250274253565817,0.044
1747250274261252520,0.093
1747250274268939223,0.113
1747250274276625926,0.098
1747250274284312629,0.056
1747250274291999332,0.019
1747250274299686035,0.004
1747250274307372738,-0.032
1747250274315059441,-0.123
1747250274322746144,-0.231
1747250274330432847,-0.322
1747250274338119550,-0.398
1747250274345806253,-0.455
1747250274353492956,-0.47700000000000004
1747250274361179659,-0.492
1747250274368866362,-0.516
1747250274376553065,-0.514
1747250274384239828,-0.484,95,631
1747250274391926531,-0.465,,640
1747250274399613234,-0.457
1747250274407299937,-0.438
1747250274414986640,-0.428
1747250274422673343,-0.433
1747250274430360046,-0.43
1747250274438046749,-0.418
1747250274445733452,-0.418
1747250274453420155,-0.42
1747250274461106858,-0.40800000000000003
1747250274468793561,-0.41100000000000003
1747250274476480264,-0.418
1747250274484166967,-0.403
1747250274491853670,-0.386
1747250274499540373,-0.401
1747250274507227076,-0.40800000000000003
1747250274514913779,-0.384
1747250274522600482,-0.371
1747250274530287185,-0.386
1747250274537973888,-0.391
1747250274545660591,-0.371
1747250274553347294,-0.359
1747250274561033997,-0.366
1747250274568720700,-0.384
1747250274576407403,-0.388
1747250274584094106,-0.371
1747250274591780809,-0.334
1747250274599467512,-0.3
1747250274607154215,-0.297
1747250274614840918,-0.297
1747250274622527621,-0.29
1747250274630214324,-0.305
1747250274637901027,-0.342
1747250274645587730,-0.354
1747250274653274433,-0.339
1747250274660961136,-0.339
1747250274668647839,-0.342
1747250274676334542,-0.322
1747250274684021245,-0.312
1747250274691707948,-0.327
1747250274699394651,-0.334
1747250274707081354,-0.34900000000000003
1747250274714768057,-0.423
1747250274722454760,-0.502
1747250274730141463,-0.28300000000000003
1747250274737828166,0.465
1747250274745514869,1.403
1747250274753201572,1.772
1747250274760888275,0.846
1747250274768574978,-0.644
1747250274776261681,-0.883
1747250274783948384,-0.332
1747250274791635087,-0.376
1747250274799321790,-0.539
1747250274807008493,-0.401
1747250274814695196,-0.364
1747250274822381899,-0.41300000000000003
1747250274830068602,-0.352
1747250274837755305,-0.3
1747250274845442008,-0.31
1747250274853128711,-0.28500000000000003
1747250274860815414,-0.243
1747250274868502117,-0.231
1747250274876188820,-0.20600000000000002
1747250274883875523,-0.162
1747250274891562226,-0.128
1747250274899248929,-0.088
1747250274906935632,-0.044
1747250274914622335,-0.009000000000000001
1747250274922309038,0.036000000000000004
1747250274929995741,0.1
1747250274937682444,0.147
1747250274945369207,0.17400000000000002,95,657
1747250274953055910,0.184
1747250274960742613,0.167
1747250274968429316,0.125
1747250274976116019,0.083
1747250274983802722,0.024
1747250274991489425,-0.078
1747250274999176128,-0.196
1747250275006862831,-0.295
1747250275014549534,-0.369
1747250275022236237,-0.428
1747250275029922940,-0.46
1747250275037609643,-0.47000000000000003
1747250275045296346,-0.47700000000000004
1747250275052983049,-0.48
1747250275060669752,-0.46
1747250275068356455,-0.438
1747250275076043158,-0.43
1747250275083729861,-0.423
1747250275091416564,-0.401
1747250275099103267,-0.384
1747250275106789970,-0.381
1747250275114476673,-0.374
1747250275122163376,-0.366
1747250275129850079,-0.366
1747250275137536782,-0.361
1747250275145223485,-0.354
1747250275152910188,-0.354
1747250275160596891,-0.356
1747250275168283594,-0.356
1747250275175970297,-0.352
1747250275183657000,-0.34400000000000003
1747250275191343703,-0.337
1747250275199030406,-0.339
1747250275206717109,-0.342
1747250275214403812,-0.342
1747250275222090515,-0.34900000000000003
1747250275229777218,-0.356
1747250275237463921,-0.34400000000000003
1747250275245150624,-0.315
1747250275252837327,-0.29
1747250275260524030,-0.28800000000000003
1747250275268210733,-0.28300000000000003
1747250275275897436,-0.273
1747250275283584139,-0.278
1747250275291270842,-0.312
1747250275298957545,-0.339
1747250275306644248,-0.337
1747250275314330951,-0.324
1747250275322017654,-0.32
1747250275329704357,-0.312
1747250275337391060,-0.31
1747250275345077763,-0.307
1747250275352764466,-0.307
1747250275360451169,-0.332
1747250275368137872,-0.384
1747250275375824575,-0.445
1747250275383511278,-0.256
1747250275391197981,0.448
1747250275398884684,1.25
1747250275406571387,1.472
1747250275414258090,0.723
1747250275421944793,-0.497
1747250275429631496,-0.841
1747250275437318199,-0.40800000000000003
1747250275445004902,-0.34400000000000003
1747250275452691605,-0.484
1747250275460378308,-0.398
1747250275468065011,-0.339
1747250275475751714,-0.374
1747250275483438417,-0.342
1747250275491125120,-0.297
1747250275498811823,-0.292
1747250275506498586,-0.28
1747250275514185289,-0.251
1747250275521871992,-0.231
1747250275529558695,-0.211
1747250275537245398,-0.17400000000000002
1747250275544932101,-0.145
1747250275552618804,-0.11800000000000001
1747250275560305507,-0.078
1747250275567992210,-0.024
1747250275575678913,0.019
1747250275583365616,0.051000000000000004
1747250275591052319,0.083
1747250275598739022,0.10300000000000001
1747250275606425725,0.096
1747250275614112428,0.078
1747250275621799131,0.056
1747250275629485834,0.014
1747250275637172537,-0.046
1747250275644859240,-0.128
1747250275652545943,-0.226
1747250275660232646,-0.32
1747250275667919349,-0.388
1747250275675606052,-0.43
1747250275683292755,-0.457
1747250275690979458,-0.47200000000000003
1747250275698666161,-0.47500000000000003
1747250275706352864,-0.465
1747250275714039567,-0.45
1747250275721726270,-0.433
1747250275729412973,-0.423
1747250275737099676,-0.41600000000000004
1747250275744786379,-0.401
1747250275752473082,-0.386
1747250275760159785,-0.381
1747250275767846488,-0.376
1747250275775533191,-0.364
1747250275783219894,-0.354
1747250275790906597,-0.354
1747250275798593300,-0.354
1747250275806280003,-0.34900000000000003
1747250275813966706,-0.34900000000000003
1747250275821653409,-0.352
1747250275829340112,-0.352
1747250275837026815,-0.34900000000000003
1747250275844713518,-0.352
1747250275852400221,-0.34900000000000003
1747250275860086924,-0.34400000000000003
1747250275867773627,-0.354
1747250275875460330,-0.361
1747250275883147033,-0.34900000000000003
1747250275890833736,-0.32
1747250275898520439,-0.3
1747250275906207142,-0.305
1747250275913893845,-0.302
1747250275921580548,-0.28800000000000003
1747250275929267251,-0.295
1747250275936953954,-0.329
1747250275944640657,-0.354
1747250275952327360,-0.354
1747250275960014063,-0.34400000000000003
1747250275967700766,-0.339
1747250275975387469,-0.332
1747250275983074172,-0.329
1747250275990760875,-0.324
1747250275998447578,-0.329
1747250276006134281,-0.34700000000000003
1747250276013820984,-0.406
1747250276021507687,-0.443
1747250276029194390,-0.17200000000000001
1747250276036881093,0.5710000000000001
1747250276044567796,1.371
1747250276052254499,1.555
1747250276059941202,0.588
1747250276067627969,-0.753,94,675
1747250276075314672,-0.868,,676
1747250276083001375,-0.315
1747250276090688078,-0.361
1747250276098374781,-0.524
1747250276106061484,-0.388
1747250276113748187,-0.342
1747250276121434890,-0.386
1747250276129121593,-0.339
1747250276136808296,-0.295
1747250276144494999,-0.297
1747250276152181702,-0.273
1747250276159868405,-0.23600000000000002
1747250276167555108,-0.219
1747250276175241811,-0.194
1747250276182928514,-0.16
1747250276190615217,-0.123
1747250276198301920,-0.078
1747250276205988623,-0.034
1747250276213675326,0.017
1747250276221362029,0.076
1747250276229048732,0.128
1747250276236735435,0.16
1747250276244422138,0.179
1747250276252108841,0.182
1747250276259795544,0.162
1747250276267482247,0.132
1747250276275168950,0.08600000000000001
1747250276282855653,0.009000000000000001
1747250276290542356,-0.1
1747250276298229059,-0.226
1747250276305915762,-0.339
1747250276313602465,-0.425
1747250276321289168,-0.482
1747250276328975871,-0.514
1747250276336662574,-0.526
1747250276344349277,-0.524
1747250276352035980,-0.514
1747250276359722683,-0.499
1747250276367409386,-0.482
1747250276375096089,-0.465
1747250276382782792,-0.452
1747250276390469495,-0.443
1747250276398156198,-0.428
1747250276405842901,-0.41600000000000004
1747250276413529604,-0.41600000000000004
1747250276421216307,-0.41600000000000004
1747250276428903010,-0.406
1747250276436589713,-0.396
1747250276444276416,-0.391
1747250276451963119,-0.391
1747250276459649822,-0.388
1747250276467336525,-0.386
1747250276475023228,-0.381
1747250276482709931,-0.381
1747250276490396634,-0.381
1747250276498083337,-0.379
1747250276505770040,-0.376
1747250276513456743,-0.381
1747250276521143446,-0.388
1747250276528830149,-0.384
1747250276536516852,-0.359
1747250276544203555,-0.329
1747250276551890258,-0.327
1747250276559576961,-0.337
1747250276567263664,-0.324
1747250276574950367,-0.32
1747250276582637070,-0.352
1747250276590323773,-0.379
1747250276598010476,-0.379
1747250276605697179,-0.369
1747250276613383882,-0.364
1747250276621070585,-0.356
1747250276628757348,-0.354
1747250276636444051,-0.356
1747250276644130754,-0.359
1747250276651817457,-0.371
1747250276659504160,-0.438
1747250276667190863,-0.519
1747250276674877566,-0.295
1747250276682564269,0.492
1747250276690250972,1.445
1747250276697937675,1.784
1747250276705624378,0.8220000000000001
1747250276713311081,-0.723
1747250276720997784,-1.006
1747250276728684487,-0.41600000000000004
1747250276736371190,-0.403
1747250276744057893,-0.5630000000000001
1747250276751744596,-0.428
1747250276759431299,-0.379
1747250276767118002,-0.425
1747250276774804705,-0.374
1747250276782491408,-0.327
1747250276790178111,-0.327
1747250276797864814,-0.302
1747250276805551517,-0.265
1747250276813238220,-0.246
1747250276820924923,-0.221
1747250276828611626,-0.192
1747250276836298329,-0.167
1747250276843985032,-0.125
1747250276851671735,-0.073
1747250276859358438,-0.024
1747250276867045141,0.029
1747250276874731844,0.08600000000000001
1747250276882418547,0.11800000000000001
1747250276890105250,0.135
1747250276897791953,0.137
1747250276905478656,0.128
1747250276913165359,0.11
1747250276920852062,0.076
1747250276928538765,0.007
1747250276936225468,-0.091
1747250276943912171,-0.196
1747250276951598874,-0.297
1747250276959285577,-0.396
1747250276966972280,-0.467
1747250276974658983,-0.497
1747250276982345686,-0.499
1747250276990032389,-0.492
1747250276997719092,-0.482
1747250277005405795,-0.47500000000000003
1747250277013092498,-0.46
1747250277020779201,-0.44
1747250277028465904,-0.428
1747250277036152607,-0.418
1747250277043839310,-0.403
1747250277051526013,-0.398
1747250277059212716,-0.391
1747250277066899419,-0.379
1747250277074586122,-0.379
1747250277082272825,-0.376
1747250277089959528,-0.361
1747250277097646231,-0.361
1747250277105332934,-0.376
1747250277113019637,-0.376
1747250277120706340,-0.359
1747250277128393043,-0.354
1747250277136079746,-0.356
1747250277143766449,-0.352
1747250277151453152,-0.34900000000000003
1747250277159139855,-0.34700000000000003
1747250277166826558,-0.34900000000000003
1747250277174513261,-0.356
1747250277182199964,-0.34700000000000003
1747250277189886727,-0.317,93,653
1747250277197573221,-0.292
1747250277205259715,-0.28800000000000003
1747250277212946209,-0.29
1747250277220632703,-0.28300000000000003
1747250277228319197,-0.28300000000000003
1747250277236005691,-0.312
1747250277243692185,-0.334
1747250277251378679,-0.329
1747250277259065173,-0.317
1747250277266751667,-0.317
1747250277274438161,-0.315
1747250277282124655,-0.305
1747250277289811149,-0.312
1747250277297497643,-0.324
1747250277305184137,-0.339
1747250277312870631,-0.406
1747250277320557125,-0.452
1747250277328243619,-0.096
1747250277335930113,0.75
1747250277343616607,1.442
1747250277351303101,1.292
1747250277358989595,0.182
1747250277366676089,-0.836
1747250277374362583,-0.713
1747250277382049077,-0.32
1747250277389735571,-0.418
1747250277397422065,-0.452
1747250277405108559,-0.324
1747250277412795053,-0.327
1747250277420481547,-0.34700000000000003
1747250277428168041,-0.28800000000000003
1747250277435854535,-0.26
1747250277443541029,-0.268
1747250277451227523,-0.23600000000000002
1747250277458914017,-0.199
1747250277466600511,-0.187
1747250277474287005,-0.167
1747250277481973499,-0.132
1747250277489659993,-0.098
1747250277497346487,-0.054
1747250277505032981,-0.012
1747250277512719475,0.027
1747250277520405969,0.078
1747250277528092463,0.123
1747250277535778957,0.147
1747250277543465451,0.157
1747250277551151945,0.147
1747250277558838439,0.128
1747250277566524933,0.098
1747250277574211427,0.051000000000000004
1747250277581897921,-0.019
1747250277589584415,-0.115
1747250277597270909,-0.219
1747250277604957403,-0.31
1747250277612643897,-0.376
1747250277620330391,-0.42
1747250277628016885,-0.455
1747250277635703379,-0.465
1747250277643389873,-0.455
1747250277651076367,-0.445
1747250277658762861,-0.438
1747250277666449355,-0.428
1747250277674135849,-0.41600000000000004
1747250277681822343,-0.406
1747250277689508837,-0.393
1747250277697195331,-0.379
1747250277704881825,-0.371
1747250277712568319,-0.369
1747250277720254813,-0.361
1747250277727941307,-0.359
1747250277735627801,-0.361
1747250277743314295,-0.361
1747250277751000849,-0.356
1747250277758687343,-0.359
1747250277766373837,-0.364
1747250277774060331,-0.361
1747250277781746825,-0.356
1747250277789433319,-0.354
1747250277797119813,-0.356
1747250277804806307,-0.366
1747250277812492801,-0.376
1747250277820179295,-0.364
1747250277827865789,-0.337
1747250277835552283,-0.317
1747250277843238777,-0.32
1747250277850925271,-0.322
1747250277858611765,-0.317
1747250277866298259,-0.322
1747250277873984753,-0.34700000000000003
1747250277881671247,-0.371
1747250277889357741,-0.374
1747250277897044235,-0.361
1747250277904730729,-0.354
1747250277912417223,-0.34700000000000003
1747250277920103717,-0.337
1747250277927790211,-0.334
1747250277935476705,-0.339
1747250277943163199,-0.359
1747250277950849693,-0.433
1747250277958536187,-0.462
1747250277966222681,-0.066
1747250277973909175,0.782
1747250277981595669,1.43
1747250277989282163,1.189
1747250277996968657,0.009000000000000001
1747250278004655151,-0.93
1747250278012341645,-0.706
1747250278020028139,-0.322
1747250278027714633,-0.452
1747250278035401127,-0.47700000000000004
1747250278043087621,-0.34400000000000003
1747250278050774115,-0.352
1747250278058460609,-0.369
1747250278066147103,-0.317
1747250278073833597,-0.29
1747250278081520091,-0.28
1747250278089206585,-0.246
1747250278096893079,-0.221
1747250278104579573,-0.20400000000000001
1747250278112266067,-0.177
1747250278119952561,-0.157
1747250278127639055,-0.125
1747250278135325549,-0.076
1747250278143012043,-0.029
1747250278150698537,0.014
1747250278158385031,0.064
1747250278166071525,0.1
1747250278173758019,0.11800000000000001
1747250278181444513,0.11800000000000001
1747250278189131007,0.105
1747250278196817501,0.081
1747250278204503995,0.044
1747250278212190489,-0.007
1747250278219876983,-0.083
1747250278227563477,-0.182
1747250278235249971,-0.28
1747250278242936465,-0.361
1747250278250622959,-0.428
1747250278258309453,-0.47200000000000003
1747250278265995947,-0.492
1747250278273682441,-0.497
1747250278281368935,-0.489
1747250278289055429,-0.47700000000000004
1747250278296741923,-0.47000000000000003
1747250278304428417,-0.457
1747250278312114967,-0.44,93,645
1747250278319801670,-0.428,,646
1747250278327488373,-0.425
1747250278335175076,-0.42
1747250278342861779,-0.40800000000000003
1747250278350548482,-0.396
1747250278358235185,-0.393
1747250278365921888,-0.393
1747250278373608591,-0.393
1747250278381295294,-0.388
1747250278388981997,-0.388
1747250278396668700,-0.391
1747250278404355403,-0.386
1747250278412042106,-0.376
1747250278419728809,-0.369
1747250278427415512,-0.369
1747250278435102215,-0.374
1747250278442788918,-0.393
1747250278450475621,-0.388
1747250278458162324,-0.34900000000000003
1747250278465849027,-0.339
1747250278473535730,-0.34700000000000003
1747250278481222433,-0.332
1747250278488909136,-0.315
1747250278496595839,-0.324
1747250278504282542,-0.359
1747250278511969245,-0.384
1747250278519655948,-0.376
1747250278527342651,-0.364
1747250278535029354,-0.364
1747250278542716057,-0.364
1747250278550402760,-0.369
1747250278558089463,-0.366
1747250278565776166,-0.359
1747250278573462869,-0.371
1747250278581149572,-0.42
1747250278588836275,-0.452
1747250278596522978,-0.169
1747250278604209681,0.59
1747250278611896384,1.358
1747250278619583087,1.425
1747250278627269790,0.406
1747250278634956493,-0.8240000000000001
1747250278642643196,-0.849
1747250278650329899,-0.322
1747250278658016602,-0.388
1747250278665703305,-0.531
1747250278673390008,-0.396
1747250278681076711,-0.354
1747250278688763414,-0.384
1747250278696450117,-0.332
1747250278704136820,-0.3
1747250278711823523,-0.302
1747250278719510226,-0.278
1747250278727196929,-0.256
1747250278734883632,-0.231
1747250278742570335,-0.189
1747250278750257038,-0.177
1747250278757943741,-0.17400000000000002
1747250278765630444,-0.137
1747250278773317147,-0.096
1747250278781003850,-0.061
1747250278788690553,-0.009000000000000001
1747250278796377256,0.041
1747250278804063959,0.068
1747250278811750662,0.078
1747250278819437365,0.07100000000000001
1747250278827124068,0.051000000000000004
1747250278834810771,0.027
1747250278842497474,-0.009000000000000001
1747250278850184177,-0.073
1747250278857870880,-0.162
1747250278865557583,-0.251
1747250278873244346,-0.332
1747250278880931049,-0.403
1747250278888617752,-0.445
1747250278896304455,-0.465
1747250278903991158,-0.48
1747250278911677861,-0.48
1747250278919364564,-0.465
1747250278927051267,-0.448
1747250278934737970,-0.435
1747250278942424673,-0.425
1747250278950111376,-0.418
1747250278957798079,-0.41600000000000004
1747250278965484782,-0.41100000000000003
1747250278973171485,-0.401
1747250278980858188,-0.401
1747250278988544891,-0.40800000000000003
1747250278996231594,-0.401
1747250279003918297,-0.381
1747250279011605000,-0.369
1747250279019291703,-0.379
1747250279026978406,-0.379
1747250279034665109,-0.371
1747250279042351812,-0.374
1747250279050038515,-0.374
1747250279057725218,-0.366
1747250279065411921,-0.366
1747250279073098624,-0.371
1747250279080785327,-0.369
1747250279088472030,-0.366
1747250279096158733,-0.352
1747250279103845436,-0.32
1747250279111532139,-0.305
1747250279119218842,-0.312
1747250279126905545,-0.305
1747250279134592248,-0.297
1747250279142278951,-0.322
1747250279149965654,-0.364
1747250279157652357,-0.374
1747250279165339060,-0.364
1747250279173025763,-0.361
1747250279180712466,-0.34900000000000003
1747250279188399169,-0.334
1747250279196085872,-0.337
1747250279203772575,-0.337
1747250279211459278,-0.342
1747250279219145981,-0.384
1747250279226832684,-0.467
1747250279234519387,-0.384
1747250279242206090,0.201
1747250279249892793,1.093
1747250279257579496,1.624
1747250279265266199,1.09
1747250279272952902,-0.359
1747250279280639605,-1.058
1747250279288326308,-0.534
1747250279296013011,-0.28300000000000003
1747250279303699714,-0.507
1747250279311386417,-0.45
1747250279319073120,-0.324
1747250279326759823,-0.371
1747250279334446526,-0.364
1747250279342133229,-0.297
1747250279349819932,-0.292
1747250279357506635,-0.292
1747250279365193338,-0.248
1747250279372880041,-0.214
1747250279380566744,-0.196
1747250279388253447,-0.17200000000000001
1747250279395940150,-0.14
1747250279403626853,-0.105
1747250279411313556,-0.061
1747250279419000259,-0.014
1747250279426686962,0.036000000000000004
1747250279434373725,0.078,93,650
1747250279442060428,0.1
1747250279449747131,0.12
1747250279457433834,0.128
1747250279465120537,0.105
1747250279472807240,0.066
1747250279480493943,0.034
1747250279488180646,-0.009000000000000001
1747250279495867349,-0.088
1747250279503554052,-0.184
1747250279511240755,-0.28500000000000003
1747250279518927458,-0.374
1747250279526614161,-0.425
1747250279534300864,-0.46
1747250279541987567,-0.494
1747250279549674270,-0.497
1747250279557360973,-0.47500000000000003
1747250279565047676,-0.47700000000000004
1747250279572734379,-0.47200000000000003
1747250279580421082,-0.448
1747250279588107785,-0.438
1747250279595794488,-0.44
1747250279603481191,-0.42
1747250279611167894,-0.406
1747250279618854597,-0.41600000000000004
1747250279626541300,-0.418
1747250279634228003,-0.41100000000000003
1747250279641914706,-0.41100000000000003
1747250279649601409,-0.41100000000000003
1747250279657288112,-0.403
1747250279664974815,-0.398
1747250279672661518,-0.398
1747250279680348221,-0.398
1747250279688034924,-0.391
1747250279695721627,-0.386
1747250279703408330,-0.388
1747250279711095033,-0.393
1747250279718781736,-0.393
1747250279726468439,-0.398
1747250279734155142,-0.396
1747250279741841845,-0.366
1747250279749528548,-0.332
1747250279757215251,-0.327
1747250279764901954,-0.339
1747250279772588657,-0.332
1747250279780275360,-0.334
1747250279787962063,-0.364
1747250279795648766,-0.384
1747250279803335469,-0.369
1747250279811022172,-0.359
1747250279818708875,-0.356
1747250279826395578,-0.34900000000000003
1747250279834082281,-0.34700000000000003
1747250279841768984,-0.34900000000000003
1747250279849455687,-0.361
1747250279857142390,-0.41300000000000003
1747250279864829093,-0.519
1747250279872515796,-0.46
1747250279880202499,0.152
1747250279887889202,1.159
1747250279895575905,1.804
1747250279903262608,1.324
1747250279910949311,-0.137
1747250279918636014,-0.979
1747250279926322717,-0.603
1747250279934009420,-0.352
1747250279941696123,-0.544
1747250279949382826,-0.512
1747250279957069529,-0.401
1747250279964756232,-0.433
1747250279972442935,-0.423
1747250279980129638,-0.369
1747250279987816341,-0.359
1747250279995503108,-0.339,93,638
1747250280003189811,-0.297,,633
1747250280010876514,-0.278
1747250280018563217,-0.263
1747250280026249920,-0.23600000000000002
1747250280033936623,-0.199
1747250280041623326,-0.16
1747250280049310029,-0.12
1747250280056996732,-0.078
1747250280064683435,-0.044
1747250280072370138,-0.009000000000000001
1747250280080056841,0.034
1747250280087743544,0.056
1747250280095430247,0.046
1747250280103116950,0.032
1747250280110803653,0.017
1747250280118490356,-0.009000000000000001
1747250280126177059,-0.059000000000000004
1747250280133863762,-0.125
1747250280141550465,-0.211
1747250280149237168,-0.297
1747250280156923871,-0.366
1747250280164610574,-0.41600000000000004
1747250280172297277,-0.445
1747250280179983980,-0.462
1747250280187670683,-0.47000000000000003
1747250280195357386,-0.467
1747250280203044089,-0.45
1747250280210730792,-0.44
1747250280218417495,-0.435
1747250280226104198,-0.41100000000000003
1747250280233790901,-0.384
1747250280241477604,-0.386
1747250280249164307,-0.396
1747250280256851010,-0.386
1747250280264537713,-0.379
1747250280272224416,-0.379
1747250280279911119,-0.366
1747250280287597822,-0.361
1747250280295284525,-0.371
1747250280302971228,-0.374
1747250280310657931,-0.369
1747250280318344634,-0.366
1747250280326031337,-0.366
1747250280333718040,-0.359
1747250280341404743,-0.356
1747250280349091446,-0.366
1747250280356778149,-0.386
1747250280364464852,-0.393
1747250280372151555,-0.374
1747250280379838258,-0.34900000000000003
1747250280387524961,-0.327
1747250280395211664,-0.305
1747250280402898367,-0.302
1747250280410585070,-0.312
1747250280418271773,-0.327
1747250280425958476,-0.34900000000000003
1747250280433645179,-0.356
1747250280441331882,-0.34900000000000003
1747250280449018585,-0.337
1747250280456705288,-0.334
1747250280464391991,-0.334
1747250280472078694,-0.324
1747250280479765397,-0.322
1747250280487452100,-0.34400000000000003
1747250280495138803,-0.398
1747250280502825506,-0.482
1747250280510512209,-0.386
1747250280518198912,0.268
1747250280525885615,1.2670000000000001
1747250280533572318,1.856
1747250280541259021,1.2530000000000001
1747250280548945724,-0.28800000000000003
1747250280556632487,-0.992
1747250280564318772,-0.516
1747250280572005057,-0.342
1747250280579691342,-0.548
1747250280587377627,-0.47700000000000004
1747250280595063912,-0.386
1747250280602750197,-0.43
1747250280610436482,-0.406
1747250280618122767,-0.352
1747250280625809052,-0.34400000000000003
1747250280633495337,-0.329
1747250280641181622,-0.295
1747250280648867907,-0.268
1747250280656554192,-0.246
1747250280664240477,-0.226
1747250280671926762,-0.20600000000000002
1747250280679613047,-0.17200000000000001
1747250280687299332,-0.13
1747250280694985617,-0.08600000000000001
1747250280702671902,-0.041
1747250280710358187,-0.007
1747250280718044472,0.009000000000000001
1747250280725730757,0.019
1747250280733417042,0.027
1747250280741103327,0.014
1747250280748789612,-0.019
1747250280756475897,-0.051000000000000004
1747250280764162182,-0.088
1747250280771848467,-0.15
1747250280779534752,-0.226
1747250280787221037,-0.305
1747250280794907322,-0.381
1747250280802593607,-0.44
1747250280810279892,-0.467
1747250280817966177,-0.48
1747250280825652462,-0.484
1747250280833338747,-0.48
1747250280841025032,-0.462
1747250280848711317,-0.452
1747250280856397602,-0.443
1747250280864083887,-0.425
1747250280871770172,-0.41300000000000003
1747250280879456457,-0.41600000000000004
1747250280887142742,-0.41100000000000003
1747250280894829027,-0.396
1747250280902515312,-0.396
1747250280910201597,-0.398
1747250280917887882,-0.391
1747250280925574167,-0.391
1747250280933260452,-0.398
1747250280940946737,-0.393
1747250280948633022,-0.393
1747250280956319307,-0.393
1747250280964005592,-0.386
1747250280971691877,-0.381
1747250280979378162,-0.386
1747250280987064447,-0.388
1747250280994750732,-0.386
1747250281002437017,-0.379
1747250281010123302,-0.359
1747250281017809587,-0.332
1747250281025495872,-0.327
1747250281033182157,-0.329
1747250281040868442,-0.324
1747250281048554727,-0.332
1747250281056241012,-0.354
1747250281063927297,-0.364
1747250281071613582,-0.352
1747250281079299867,-0.34900000000000003
1747250281086986152,-0.356
1747250281094672437,-0.34400000000000003
1747250281102358722,-0.329
1747250281110045007,-0.332
1747250281117731348,-0.34400000000000003,93,642
1747250281125418051,-0.379,,639
1747250281133104754,-0.47200000000000003
1747250281140791457,-0.462
1747250281148478160,0.012
1747250281156164863,0.965
1747250281163851566,1.806
1747250281171538269,1.597
1747250281179224972,0.078
1747250281186911675,-1.026
1747250281194598378,-0.654
1747250281202285081,-0.3
1747250281209971784,-0.539
1747250281217658487,-0.526
1747250281225345190,-0.364
1747250281233031893,-0.403
1747250281240718596,-0.428
1747250281248405299,-0.356
1747250281256092002,-0.332
1747250281263778705,-0.334
1747250281271465408,-0.292
1747250281279152111,-0.256
1747250281286838814,-0.251
1747250281294525517,-0.231
1747250281302212220,-0.189
1747250281309898923,-0.147
1747250281317585626,-0.12
1747250281325272329,-0.083
1747250281332959032,-0.027
1747250281340645735,0.014
1747250281348332438,0.039
1747250281356019141,0.064
1747250281363705844,0.064
1747250281371392547,0.044
1747250281379079250,0.019
1747250281386765953,-0.002
1747250281394452656,-0.039
1747250281402139359,-0.098
1747250281409826062,-0.184
1747250281417512765,-0.278
1747250281425199468,-0.354
1747250281432886171,-0.406
1747250281440572874,-0.44
1747250281448259577,-0.467
1747250281455946280,-0.484
1747250281463632983,-0.47700000000000004
1747250281471319686,-0.46
1747250281479006389,-0.45
1747250281486693092,-0.448
1747250281494379795,-0.425
1747250281502066498,-0.403
1747250281509753201,-0.403
1747250281517439904,-0.403
1747250281525126607,-0.386
1747250281532813310,-0.379
1747250281540500013,-0.386
1747250281548186716,-0.381
1747250281555873419,-0.371
1747250281563560122,-0.379
1747250281571246825,-0.386
1747250281578933528,-0.379
1747250281586620231,-0.376
1747250281594306934,-0.376
1747250281601993637,-0.376
1747250281609680340,-0.379
1747250281617367043,-0.391
1747250281625053746,-0.396
1747250281632740449,-0.371
1747250281640427152,-0.327
1747250281648113855,-0.315
1747250281655800558,-0.322
1747250281663487261,-0.317
1747250281671173964,-0.317
1747250281678860727,-0.34900000000000003
1747250281686547430,-0.384
1747250281694234133,-0.371
1747250281701920836,-0.332
1747250281709607539,-0.327
1747250281717294242,-0.354
1747250281724980945,-0.366
1747250281732667648,-0.34700000000000003
1747250281740354351,-0.34700000000000003
1747250281748041054,-0.398
1747250281755727757,-0.494
1747250281763414460,-0.47200000000000003
1747250281771101163,-0.014
1747250281778787866,0.903
1747250281786474569,1.811
1747250281794161272,1.713
1747250281801847975,0.179
1747250281809534678,-1.031
1747250281817221381,-0.708
1747250281824908084,-0.317
1747250281832594787,-0.539
1747250281840281490,-0.558
1747250281847968193,-0.40800000000000003
1747250281855654896,-0.44
1747250281863341599,-0.45
1747250281871028302,-0.376
1747250281878715005,-0.359
1747250281886401708,-0.352
1747250281894088411,-0.31
1747250281901775114,-0.28500000000000003
1747250281909461817,-0.265
1747250281917148520,-0.231
1747250281924835223,-0.199
1747250281932521926,-0.164
1747250281940208629,-0.123
1747250281947895332,-0.08600000000000001
1747250281955582035,-0.041
1747250281963268738,0.009000000000000001
1747250281970955441,0.046
1747250281978642144,0.07100000000000001
1747250281986328847,0.08600000000000001
1747250281994015550,0.078
1747250282001702253,0.051000000000000004
1747250282009388956,0.022
1747250282017075659,-0.012
1747250282024762362,-0.078
1747250282032449065,-0.177
1747250282040135768,-0.278
1747250282047822471,-0.359
1747250282055509174,-0.41600000000000004
1747250282063195877,-0.46
1747250282070882580,-0.489
1747250282078569283,-0.497
1747250282086255986,-0.489
1747250282093942689,-0.47700000000000004
1747250282101629392,-0.46
1747250282109316095,-0.448
1747250282117002798,-0.443
1747250282124689501,-0.438
1747250282132376204,-0.428
1747250282140062907,-0.41100000000000003
1747250282147749610,-0.40800000000000003
1747250282155436313,-0.406
1747250282163123016,-0.396
1747250282170809719,-0.401
1747250282178496422,-0.40800000000000003
1747250282186183125,-0.396
1747250282193869828,-0.391
1747250282201556531,-0.398
1747250282209243234,-0.401
1747250282216929937,-0.406
1747250282224616640,-0.41600000000000004
1747250282232303343,-0.41300000000000003
1747250282239990106,-0.386,93,638
1747250282247676809,-0.34700000000000003
1747250282255363512,-0.339
1747250282263050215,-0.359
1747250282270736918,-0.34700000000000003
1747250282278423621,-0.327
1747250282286110324,-0.354
1747250282293797027,-0.398
1747250282301483730,-0.393
1747250282309170433,-0.376
1747250282316857136,-0.386
1747250282324543839,-0.386
1747250282332230542,-0.366
1747250282339917245,-0.34700000000000003
1747250282347603948,-0.364
1747250282355290651,-0.41300000000000003
1747250282362977354,-0.484
1747250282370664057,-0.465
1747250282378350760,-0.056
1747250282386037463,0.834
1747250282393724166,1.752
1747250282401410869,1.686
1747250282409097572,0.184
1747250282416784275,-1.061
1747250282424470978,-0.78
1747250282432157681,-0.352
1747250282439844384,-0.524
1747250282447531087,-0.534
1747250282455217790,-0.391
1747250282462904493,-0.41600000000000004
1747250282470591196,-0.425
1747250282478277899,-0.354
1747250282485964602,-0.332
1747250282493651305,-0.329
1747250282501338008,-0.29
1747250282509024711,-0.248
1747250282516711414,-0.231
1747250282524398117,-0.211
1747250282532084820,-0.167
1747250282539771523,-0.13
1747250282547458226,-0.091
1747250282555144929,-0.041
1747250282562831632,0.009000000000000001
1747250282570518335,0.056
1747250282578205038,0.091
1747250282585891741,0.12
1747250282593578444,0.137
1747250282601265147,0.125
1747250282608951850,0.1
1747250282616638553,0.066
1747250282624325256,0.017
1747250282632011959,-0.051000000000000004
1747250282639698662,-0.152
1747250282647385365,-0.256
1747250282655072068,-0.342
1747250282662758771,-0.418
1747250282670445474,-0.47000000000000003
1747250282678132177,-0.492
