time,ecg,hr,rr,marker
1748366877592201067,-0.247
1748366877599887352,-0.232
1748366877607573637,-0.222
1748366877615259922,-0.227
1748366877622946207,-0.232
1748366877630632492,-0.232
1748366877638318777,-0.225
1748366877646005062,-0.222
1748366877653691347,-0.23
1748366877661377632,-0.227
1748366877669063917,-0.20500000000000002
1748366877676750202,-0.2
1748366877684436487,-0.20500000000000002
1748366877692122772,-0.193
1748366877699809057,-0.193
1748366877707495342,-0.20800000000000002
1748366877715181627,-0.2
1748366877722867912,-0.169
1748366877730554197,-0.134
1748366877738240482,-0.117
1748366877745926767,-0.122
1748366877753613052,-0.132
1748366877761299337,-0.127
1748366877768985622,-0.14200000000000002
1748366877776671907,-0.171
1748366877784358192,-0.181
1748366877792044477,-0.171
1748366877799730762,-0.154
1748366877807417047,-0.14200000000000002
1748366877815103332,-0.14200000000000002
1748366877822789617,-0.137
1748366877830475902,-0.129
1748366877838162187,-0.146
1748366877845848472,-0.176
1748366877853534757,-0.232
1748366877861221042,-0.28400000000000003
1748366877868907327,-0.036000000000000004
1748366877876593612,0.71
1748366877884279897,1.6260000000000001
1748366877891966182,1.989
1748366877899652467,1.077
1748366877907338752,-0.401
1748366877915025037,-0.68
1748366877922711322,-0.151
1748366877930397607,-0.14400000000000002
1748366877938083892,-0.279
1748366877945770177,-0.151
1748366877953456462,-0.122
1748366877961142747,-0.17300000000000001
1748366877968829032,-0.12
1748366877976515317,-0.073
1748366877984201602,-0.08
1748366877991887887,-0.061
1748366877999574172,-0.029
1748366878007260457,-0.004
1748366878014946742,0.034
1748366878022633027,0.073
1748366878030319312,0.097
1748366878038005597,0.124
1748366878045691882,0.166
1748366878053378167,0.20800000000000002
1748366878061064452,0.252
1748366878068750737,0.289
1748366878076437022,0.311
1748366878084123307,0.315
1748366878091809592,0.315
1748366878099495877,0.308
1748366878107182162,0.28600000000000003
1748366878114868447,0.259
1748366878122554732,0.225
1748366878130241017,0.154
1748366878137927302,0.053
1748366878145613587,-0.046
1748366878153299928,-0.137,90,698
1748366878160986213,-0.225
1748366878168672498,-0.293
1748366878176358783,-0.328
1748366878184045068,-0.34500000000000003
1748366878191731353,-0.35000000000000003
1748366878199417638,-0.34700000000000003
1748366878207103923,-0.338
1748366878214790208,-0.323
1748366878222476493,-0.306
1748366878230162778,-0.293
1748366878237849063,-0.28400000000000003
1748366878245535348,-0.279
1748366878253221633,-0.271
1748366878260907918,-0.262
1748366878268594203,-0.254
1748366878276280488,-0.249
1748366878283966773,-0.242
1748366878291653058,-0.24
1748366878299339343,-0.24
1748366878307025628,-0.24
1748366878314711913,-0.23500000000000001
1748366878322398198,-0.23
1748366878330084483,-0.232
1748366878337770768,-0.23500000000000001
1748366878345457053,-0.23
1748366878353143338,-0.227
1748366878360829623,-0.225
1748366878368515908,-0.22
1748366878376202193,-0.222
1748366878383888478,-0.225
1748366878391574763,-0.22
1748366878399261048,-0.203
1748366878406947333,-0.181
1748366878414633618,-0.159
1748366878422319903,-0.149
1748366878430006188,-0.149
1748366878437692473,-0.151
1748366878445378758,-0.176
1748366878453065043,-0.20800000000000002
1748366878460751328,-0.215
1748366878468437613,-0.203
1748366878476123898,-0.198
1748366878483810183,-0.198
1748366878491496468,-0.193
1748366878499182753,-0.186
1748366878506869038,-0.181
1748366878514555323,-0.188
1748366878522241608,-0.20800000000000002
1748366878529927893,-0.264
1748366878537614178,-0.323
1748366878545300463,-0.105
1748366878552986748,0.617
1748366878560673033,1.5110000000000001
1748366878568359318,1.891
1748366878576045603,1.063
1748366878583731888,-0.399
1748366878591418173,-0.749
1748366878599104458,-0.218
1748366878606790743,-0.166
1748366878614477028,-0.313
1748366878622163313,-0.2
1748366878629849598,-0.159
1748366878637535883,-0.20800000000000002
1748366878645222168,-0.169
1748366878652908453,-0.122
1748366878660594738,-0.122
1748366878668281023,-0.1
1748366878675967308,-0.066
1748366878683653593,-0.046
1748366878691339878,-0.017
1748366878699026163,0.014
1748366878706712448,0.041
1748366878714398789,0.075
1748366878722085074,0.117
1748366878729771359,0.156
1748366878737457644,0.195
1748366878745143929,0.225
1748366878752830214,0.244
1748366878760516499,0.254
1748366878768202784,0.252
1748366878775889069,0.24
1748366878783575354,0.222
1748366878791261639,0.198
1748366878798947924,0.154
1748366878806634209,0.08
1748366878814320494,-0.012
1748366878822006779,-0.112
1748366878829693064,-0.20500000000000002
1748366878837379349,-0.28400000000000003
1748366878845065634,-0.342
1748366878852751919,-0.374
1748366878860438204,-0.384
1748366878868124489,-0.384
1748366878875810774,-0.384
1748366878883497059,-0.377
1748366878891183344,-0.36
1748366878898869629,-0.342
1748366878906555914,-0.33
1748366878914242199,-0.318
1748366878921928484,-0.306
1748366878929614769,-0.296
1748366878937301054,-0.289
1748366878944987339,-0.28400000000000003
1748366878952673624,-0.281
1748366878960359909,-0.279
1748366878968046194,-0.274
1748366878975732479,-0.271
1748366878983418764,-0.271
1748366878991105049,-0.269
1748366878998791334,-0.267
1748366879006477619,-0.264
1748366879014163904,-0.262
1748366879021850189,-0.262
1748366879029536474,-0.262
1748366879037222759,-0.257
1748366879044909044,-0.252
1748366879052595329,-0.247
1748366879060281614,-0.242
1748366879067967899,-0.242
1748366879075654184,-0.242
1748366879083340469,-0.23700000000000002
1748366879091026754,-0.215
1748366879098713039,-0.188
1748366879106399324,-0.171
1748366879114085609,-0.169
1748366879121771894,-0.166
1748366879129458179,-0.17300000000000001
1748366879137144464,-0.203
1748366879144830749,-0.227
1748366879152517034,-0.22
1748366879160203319,-0.21
1748366879167889604,-0.21
1748366879175575889,-0.203
1748366879183262174,-0.198
1748366879190948459,-0.193
1748366879198634744,-0.191
1748366879206321029,-0.203
1748366879214007314,-0.249
1748366879221693599,-0.325
1748366879229379884,-0.254
1748366879237066169,0.252
1748366879244752454,1.131
1748366879252438739,1.9080000000000001
1748366879260125024,1.739
1748366879267811309,0.293
1748366879275497650,-0.805,89,694
1748366879283184353,-0.46
1748366879290871056,-0.073
1748366879298557759,-0.291
1748366879306244462,-0.315
1748366879313931165,-0.176
1748366879321617868,-0.21
1748366879329304571,-0.23
1748366879336991274,-0.164
1748366879344677977,-0.14200000000000002
1748366879352364680,-0.139
1748366879360051383,-0.105
1748366879367738086,-0.075
1748366879375424789,-0.056
1748366879383111492,-0.024
1748366879390798195,0.009000000000000001
1748366879398484898,0.041
1748366879406171601,0.078
1748366879413858304,0.12
1748366879421545007,0.159
1748366879429231710,0.198
1748366879436918413,0.227
1748366879444605116,0.247
1748366879452291819,0.254
1748366879459978522,0.252
1748366879467665225,0.24
1748366879475351928,0.22
1748366879483038631,0.191
1748366879490725334,0.137
1748366879498412037,0.053
1748366879506098740,-0.046
1748366879513785443,-0.146
1748366879521472146,-0.23500000000000001
1748366879529158849,-0.306
1748366879536845552,-0.35000000000000003
1748366879544532255,-0.372
1748366879552218958,-0.377
1748366879559905661,-0.377
1748366879567592364,-0.367
1748366879575279067,-0.357
1748366879582965770,-0.34500000000000003
1748366879590652473,-0.33
1748366879598339176,-0.315
1748366879606025879,-0.303
1748366879613712582,-0.293
1748366879621399285,-0.28600000000000003
1748366879629085988,-0.279
1748366879636772691,-0.274
1748366879644459394,-0.274
1748366879652146097,-0.271
1748366879659832800,-0.267
1748366879667519503,-0.264
1748366879675206206,-0.264
1748366879682892909,-0.264
1748366879690579612,-0.259
1748366879698266315,-0.257
1748366879705953018,-0.257
1748366879713639721,-0.254
1748366879721326424,-0.252
1748366879729013127,-0.244
1748366879736699830,-0.24
1748366879744386533,-0.23500000000000001
1748366879752073236,-0.23500000000000001
1748366879759759939,-0.23500000000000001
1748366879767446642,-0.23
1748366879775133345,-0.213
1748366879782820048,-0.183
1748366879790506751,-0.164
1748366879798193454,-0.159
1748366879805880157,-0.159
1748366879813566860,-0.159
1748366879821253563,-0.183
1748366879828940266,-0.213
1748366879836627033,-0.215
1748366879844313318,-0.203
1748366879851999603,-0.2
1748366879859685888,-0.198
1748366879867372173,-0.191
1748366879875058458,-0.188
1748366879882744743,-0.186
1748366879890431028,-0.193
1748366879898117313,-0.222
1748366879905803598,-0.298
1748366879913489883,-0.32
1748366879921176168,0.014
1748366879928862453,0.808
1748366879936548738,1.697
1748366879944235023,1.962
1748366879951921308,0.891
1748366879959607593,-0.5750000000000001
1748366879967293878,-0.683
1748366879974980163,-0.127
1748366879982666448,-0.195
1748366879990352733,-0.34
1748366879998039018,-0.20500000000000002
1748366880005725303,-0.178
1748366880013411588,-0.227
1748366880021097873,-0.181
1748366880028784158,-0.139
1748366880036470443,-0.137
1748366880044156728,-0.112
1748366880051843013,-0.078
1748366880059529298,-0.058
1748366880067215583,-0.031
1748366880074901868,0.004
1748366880082588153,0.039
1748366880090274438,0.073
1748366880097960723,0.112
1748366880105647008,0.154
1748366880113333293,0.191
1748366880121019578,0.222
1748366880128705863,0.247
1748366880136392148,0.254
1748366880144078433,0.254
1748366880151764718,0.247
1748366880159451003,0.23500000000000001
1748366880167137288,0.20800000000000002
1748366880174823573,0.164
1748366880182509858,0.093
1748366880190196143,0.0
1748366880197882428,-0.10200000000000001
1748366880205568713,-0.195
1748366880213254998,-0.271
1748366880220941283,-0.328
1748366880228627568,-0.36
1748366880236313853,-0.372
1748366880244000138,-0.377
1748366880251686423,-0.369
1748366880259372708,-0.355
1748366880267058993,-0.34500000000000003
1748366880274745278,-0.335
1748366880282431563,-0.318
1748366880290117848,-0.303
1748366880297804133,-0.293
1748366880305490418,-0.28400000000000003
1748366880313176703,-0.276
1748366880320862988,-0.271
1748366880328549273,-0.269
1748366880336235558,-0.264
1748366880343921843,-0.259
1748366880351608128,-0.259
1748366880359294413,-0.257
1748366880366980698,-0.254
1748366880374666983,-0.252
1748366880382353268,-0.252
1748366880390039553,-0.249
1748366880397725894,-0.247,88,691
1748366880405412597,-0.244,,677
1748366880413099300,-0.244
1748366880420786003,-0.24
1748366880428472706,-0.232
1748366880436159409,-0.23
1748366880443846112,-0.232
1748366880451532815,-0.232
1748366880459219518,-0.22
1748366880466906221,-0.193
1748366880474592924,-0.169
1748366880482279627,-0.161
1748366880489966330,-0.159
1748366880497653033,-0.156
1748366880505339736,-0.17300000000000001
1748366880513026439,-0.21
1748366880520713142,-0.22
1748366880528399845,-0.20500000000000002
1748366880536086548,-0.198
1748366880543773251,-0.198
1748366880551459954,-0.193
1748366880559146657,-0.191
1748366880566833360,-0.188
1748366880574520063,-0.186
1748366880582206766,-0.203
1748366880589893469,-0.259
1748366880597580172,-0.328
1748366880605266875,-0.178
1748366880612953578,0.431
1748366880620640281,1.332
1748366880628326984,1.962
1748366880636013687,1.467
1748366880643700390,-0.068
1748366880651387093,-0.8180000000000001
1748366880659073796,-0.32
1748366880666760499,-0.10200000000000001
1748366880674447202,-0.318
1748366880682133905,-0.267
1748366880689820608,-0.166
1748366880697507311,-0.215
1748366880705194014,-0.20500000000000002
1748366880712880717,-0.146
1748366880720567420,-0.139
1748366880728254123,-0.127
1748366880735940826,-0.09
1748366880743627529,-0.063
1748366880751314232,-0.041
1748366880759000935,-0.007
1748366880766687638,0.019
1748366880774374341,0.051000000000000004
1748366880782061044,0.09
1748366880789747747,0.134
1748366880797434450,0.17300000000000001
1748366880805121153,0.21
1748366880812807856,0.23500000000000001
1748366880820494559,0.244
1748366880828181262,0.247
1748366880835867965,0.247
1748366880843554668,0.23700000000000002
1748366880851241371,0.215
1748366880858928074,0.176
1748366880866614777,0.12
1748366880874301480,0.041
1748366880881988183,-0.053
1748366880889674886,-0.149
1748366880897361589,-0.23700000000000002
1748366880905048292,-0.303
1748366880912734995,-0.34500000000000003
1748366880920421698,-0.372
1748366880928108401,-0.377
1748366880935795104,-0.364
1748366880943481807,-0.357
1748366880951168510,-0.34700000000000003
1748366880958855273,-0.33,88,688
1748366880966541558,-0.315
1748366880974227843,-0.303
1748366880981914128,-0.289
1748366880989600413,-0.281
1748366880997286698,-0.281
1748366881004972983,-0.279
1748366881012659268,-0.271
1748366881020345553,-0.262
1748366881028031838,-0.259
1748366881035718123,-0.262
1748366881043404408,-0.259
1748366881051090693,-0.252
1748366881058776978,-0.249
1748366881066463263,-0.249
1748366881074149548,-0.247
1748366881081835833,-0.242
1748366881089522118,-0.242
1748366881097208403,-0.247
1748366881104894688,-0.242
1748366881112580973,-0.227
1748366881120267258,-0.225
1748366881127953543,-0.227
1748366881135639828,-0.227
1748366881143326113,-0.222
1748366881151012398,-0.20800000000000002
1748366881158698683,-0.181
1748366881166384968,-0.156
1748366881174071253,-0.14200000000000002
1748366881181757538,-0.134
1748366881189443823,-0.146
1748366881197130108,-0.17300000000000001
1748366881204816393,-0.198
1748366881212502678,-0.203
1748366881220188963,-0.193
1748366881227875248,-0.183
1748366881235561533,-0.176
1748366881243247818,-0.171
1748366881250934103,-0.166
1748366881258620388,-0.164
1748366881266306673,-0.169
1748366881273992958,-0.188
1748366881281679243,-0.252
1748366881289365528,-0.311
1748366881297051813,-0.122
1748366881304738098,0.543
1748366881312424383,1.442
1748366881320110668,1.949
1748366881327796953,1.281
1748366881335483238,-0.227
1748366881343169523,-0.776
1748366881350855808,-0.259
1748366881358542093,-0.122
1748366881366228378,-0.291
1748366881373914663,-0.20500000000000002
1748366881381600948,-0.14400000000000002
1748366881389287233,-0.193
1748366881396973518,-0.161
1748366881404659803,-0.105
1748366881412346088,-0.105
1748366881420032373,-0.088
1748366881427718658,-0.044
1748366881435404943,-0.019
1748366881443091228,-0.002
1748366881450777513,0.026000000000000002
1748366881458463798,0.063
1748366881466150083,0.097
1748366881473836368,0.139
1748366881481522653,0.186
1748366881489208938,0.222
1748366881496895223,0.252
1748366881504581508,0.279
1748366881512267793,0.291
1748366881519954134,0.28400000000000003
1748366881527640419,0.271
1748366881535326704,0.262
1748366881543012989,0.242
1748366881550699274,0.20500000000000002
1748366881558385559,0.146
1748366881566071844,0.061
1748366881573758129,-0.044
1748366881581444414,-0.146
1748366881589130699,-0.23500000000000001
1748366881596816984,-0.298
1748366881604503269,-0.33
1748366881612189554,-0.34500000000000003
1748366881619875839,-0.355
1748366881627562124,-0.36
1748366881635248409,-0.355
1748366881642934694,-0.338
1748366881650620979,-0.318
1748366881658307264,-0.311
1748366881665993549,-0.296
1748366881673679834,-0.274
1748366881681366119,-0.271
1748366881689052404,-0.271
1748366881696738689,-0.259
1748366881704424974,-0.249
1748366881712111259,-0.249
1748366881719797544,-0.252
1748366881727483829,-0.247
1748366881735170114,-0.242
1748366881742856399,-0.23700000000000002
1748366881750542684,-0.24
1748366881758228969,-0.244
1748366881765915254,-0.242
1748366881773601539,-0.23
1748366881781287824,-0.232
1748366881788974109,-0.232
1748366881796660394,-0.222
1748366881804346679,-0.222
1748366881812032964,-0.225
1748366881819719249,-0.218
1748366881827405534,-0.20800000000000002
1748366881835091819,-0.181
1748366881842778104,-0.146
1748366881850464389,-0.137
1748366881858150674,-0.149
1748366881865836959,-0.159
1748366881873523244,-0.178
1748366881881209529,-0.20500000000000002
1748366881888895814,-0.21
1748366881896582099,-0.203
1748366881904268384,-0.191
1748366881911954669,-0.181
1748366881919640954,-0.181
1748366881927327239,-0.191
1748366881935013524,-0.181
1748366881942699809,-0.181
1748366881950386094,-0.21
1748366881958072379,-0.264
1748366881965758664,-0.306
1748366881973444949,-0.083
1748366881981131234,0.646
1748366881988817519,1.5230000000000001
1748366881996503804,1.837
1748366882004190089,0.979
1748366882011876374,-0.418
1748366882019562659,-0.71
1748366882027248944,-0.198
1748366882034935229,-0.171
1748366882042621514,-0.293
1748366882050307799,-0.166
1748366882057994084,-0.139
1748366882065680369,-0.191
1748366882073366654,-0.14200000000000002
1748366882081052995,-0.097,88,687
1748366882088739280,-0.1,,688
1748366882096425565,-0.075
1748366882104111850,-0.034
1748366882111798135,-0.014
1748366882119484420,0.004
1748366882127170705,0.044
1748366882134856990,0.083
1748366882142543275,0.112
1748366882150229560,0.14400000000000002
1748366882157915845,0.186
1748366882165602130,0.227
1748366882173288415,0.262
1748366882180974700,0.279
1748366882188660985,0.281
1748366882196347270,0.276
1748366882204033555,0.269
1748366882211719840,0.252
1748366882219406125,0.22
1748366882227092410,0.17300000000000001
1748366882234778695,0.10200000000000001
1748366882242464980,0.012
1748366882250151265,-0.085
1748366882257837550,-0.181
1748366882265523835,-0.262
1748366882273210120,-0.32
1748366882280896405,-0.357
1748366882288582690,-0.369
1748366882296268975,-0.367
1748366882303955260,-0.357
1748366882311641545,-0.35000000000000003
1748366882319327830,-0.338
1748366882327014115,-0.328
1748366882334700400,-0.318
1748366882342386685,-0.306
1748366882350072970,-0.293
1748366882357759255,-0.28400000000000003
1748366882365445540,-0.279
1748366882373131825,-0.279
1748366882380818110,-0.274
1748366882388504395,-0.267
1748366882396190680,-0.264
1748366882403876965,-0.264
1748366882411563250,-0.262
1748366882419249535,-0.262
1748366882426935820,-0.264
1748366882434622105,-0.259
1748366882442308390,-0.254
1748366882449994675,-0.254
1748366882457680960,-0.257
1748366882465367245,-0.254
1748366882473053530,-0.247
1748366882480739815,-0.247
1748366882488426100,-0.247
1748366882496112385,-0.242
1748366882503798670,-0.225
1748366882511484955,-0.2
1748366882519171240,-0.186
1748366882526857525,-0.178
1748366882534543810,-0.17300000000000001
1748366882542230095,-0.176
1748366882549916380,-0.2
1748366882557602665,-0.232
1748366882565288950,-0.232
1748366882572975235,-0.22
1748366882580661520,-0.22
1748366882588347805,-0.215
1748366882596034090,-0.20500000000000002
1748366882603720375,-0.2
1748366882611406660,-0.198
1748366882619092945,-0.20800000000000002
1748366882626779230,-0.24
1748366882634465515,-0.311
1748366882642151856,-0.296
1748366882649838141,0.12
1748366882657524426,0.974
1748366882665210711,1.79
1748366882672896996,1.778
1748366882680583281,0.499
1748366882688269566,-0.744
1748366882695955851,-0.592
1748366882703642136,-0.132
1748366882711328421,-0.264
1748366882719014706,-0.323
1748366882726700991,-0.193
1748366882734387276,-0.203
1748366882742073561,-0.23
1748366882749759846,-0.171
1748366882757446131,-0.14400000000000002
1748366882765132416,-0.14200000000000002
1748366882772818701,-0.11
1748366882780504986,-0.08
1748366882788191271,-0.061
1748366882795877556,-0.029
1748366882803563841,0.002
1748366882811250126,0.031
1748366882818936411,0.066
1748366882826622696,0.107
1748366882834308981,0.149
1748366882841995266,0.183
1748366882849681551,0.21
1748366882857367836,0.23
1748366882865054121,0.23700000000000002
1748366882872740406,0.232
1748366882880426691,0.218
1748366882888112976,0.198
1748366882895799261,0.169
1748366882903485546,0.12
1748366882911171831,0.044
1748366882918858116,-0.053
1748366882926544401,-0.149
1748366882934230686,-0.23500000000000001
1748366882941916971,-0.308
1748366882949603256,-0.355
1748366882957289541,-0.377
1748366882964975826,-0.384
1748366882972662111,-0.384
1748366882980348396,-0.374
1748366882988034681,-0.362
1748366882995720966,-0.35000000000000003
1748366883003407251,-0.338
1748366883011093536,-0.323
1748366883018779821,-0.313
1748366883026466106,-0.303
1748366883034152391,-0.293
1748366883041838676,-0.289
1748366883049524961,-0.28600000000000003
1748366883057211246,-0.281
1748366883064897531,-0.276
1748366883072583816,-0.274
1748366883080270101,-0.271
1748366883087956386,-0.269
1748366883095642671,-0.267
1748366883103328956,-0.264
1748366883111015241,-0.262
1748366883118701526,-0.262
1748366883126387811,-0.262
1748366883134074096,-0.257
1748366883141760381,-0.254
1748366883149446666,-0.252
1748366883157132951,-0.249
1748366883164819236,-0.247
1748366883172505521,-0.244
1748366883180191806,-0.242
1748366883187878091,-0.227
1748366883195564376,-0.195
1748366883203250717,-0.176,88,690
1748366883210937420,-0.17300000000000001
1748366883218624123,-0.171
1748366883226310826,-0.171
1748366883233997529,-0.2
1748366883241684232,-0.23
1748366883249370935,-0.227
1748366883257057638,-0.213
1748366883264744341,-0.213
1748366883272431044,-0.21
1748366883280117747,-0.203
1748366883287804450,-0.198
1748366883295491153,-0.195
1748366883303177856,-0.2
1748366883310864559,-0.23
1748366883318551262,-0.298
1748366883326237965,-0.33
1748366883333924668,-0.048
1748366883341611371,0.7000000000000001
1748366883349298074,1.606
1748366883356984777,1.989
1748366883364671480,1.072
1748366883372358183,-0.46
1748366883380044886,-0.752
1748366883387731589,-0.178
1748366883395418292,-0.164
1748366883403104995,-0.35000000000000003
1748366883410791698,-0.23700000000000002
1748366883418478401,-0.186
1748366883426165104,-0.23700000000000002
1748366883433851807,-0.198
1748366883441538510,-0.151
1748366883449225213,-0.151
1748366883456911916,-0.129
1748366883464598619,-0.088
1748366883472285322,-0.066
1748366883479972025,-0.044
1748366883487658728,-0.004
1748366883495345431,0.029
1748366883503032134,0.058
1748366883510718837,0.097
1748366883518405540,0.139
1748366883526092243,0.17300000000000001
1748366883533778946,0.20500000000000002
1748366883541465649,0.23
1748366883549152352,0.23700000000000002
1748366883556839055,0.23700000000000002
1748366883564525758,0.23
1748366883572212461,0.215
1748366883579899164,0.191
1748366883587585867,0.151
1748366883595272570,0.085
1748366883602959273,-0.007
1748366883610645976,-0.11
1748366883618332679,-0.203
1748366883626019382,-0.281
1748366883633706085,-0.34
1748366883641392788,-0.374
1748366883649079491,-0.389
1748366883656766194,-0.389
1748366883664452897,-0.382
1748366883672139600,-0.372
1748366883679826303,-0.362
1748366883687513006,-0.35000000000000003
1748366883695199709,-0.333
1748366883702886412,-0.318
1748366883710573115,-0.308
1748366883718259818,-0.298
1748366883725946521,-0.289
1748366883733633224,-0.28400000000000003
1748366883741319927,-0.281
1748366883749006630,-0.279
1748366883756693333,-0.274
1748366883764380100,-0.269
1748366883772066385,-0.269
1748366883779752670,-0.269
1748366883787438955,-0.267
1748366883795125240,-0.264
1748366883802811525,-0.262
1748366883810497810,-0.259
1748366883818184095,-0.254
1748366883825870380,-0.249
1748366883833556665,-0.247
1748366883841242950,-0.242
1748366883848929235,-0.24
1748366883856615520,-0.23700000000000002
1748366883864301805,-0.24
1748366883871988090,-0.23700000000000002
1748366883879674375,-0.222
1748366883887360660,-0.2
1748366883895046945,-0.181
1748366883902733230,-0.171
1748366883910419515,-0.166
1748366883918105800,-0.166
1748366883925792085,-0.186
1748366883933478370,-0.218
1748366883941164655,-0.225
1748366883948850940,-0.21
1748366883956537225,-0.20800000000000002
1748366883964223510,-0.20500000000000002
1748366883971909795,-0.198
1748366883979596080,-0.193
1748366883987282365,-0.191
1748366883994968650,-0.193
1748366884002654935,-0.21
1748366884010341220,-0.267
1748366884018027505,-0.338
1748366884025713790,-0.20500000000000002
1748366884033400075,0.389
1748366884041086360,1.295
1748366884048772645,1.962
1748366884056458930,1.5350000000000001
1748366884064145215,0.007
1748366884071831500,-0.8300000000000001
1748366884079517785,-0.357
1748366884087204070,-0.095
1748366884094890355,-0.315
1748366884102576640,-0.28400000000000003
1748366884110262925,-0.17300000000000001
1748366884117949210,-0.215
1748366884125635495,-0.213
1748366884133321780,-0.151
1748366884141008065,-0.14200000000000002
1748366884148694350,-0.134
1748366884156380635,-0.095
1748366884164066920,-0.068
1748366884171753205,-0.046
1748366884179439490,-0.012
1748366884187125775,0.017
1748366884194812060,0.046
1748366884202498345,0.085
1748366884210184630,0.127
1748366884217870915,0.164
1748366884225557200,0.195
1748366884233243485,0.222
1748366884240929770,0.24
1748366884248616055,0.247
1748366884256302340,0.242
1748366884263988625,0.227
1748366884271674910,0.21
1748366884279361195,0.181
1748366884287047480,0.122
1748366884294733765,0.039
1748366884302420050,-0.056
1748366884310106335,-0.151
1748366884317792620,-0.24
1748366884325478961,-0.311,88,675
1748366884333165246,-0.355,,674
1748366884340851531,-0.372
1748366884348537816,-0.377
1748366884356224101,-0.377
1748366884363910386,-0.369
1748366884371596671,-0.355
1748366884379282956,-0.34
1748366884386969241,-0.328
1748366884394655526,-0.315
1748366884402341811,-0.303
1748366884410028096,-0.291
1748366884417714381,-0.28600000000000003
1748366884425400666,-0.28400000000000003
1748366884433086951,-0.276
1748366884440773236,-0.271
1748366884448459521,-0.269
1748366884456145806,-0.267
1748366884463832091,-0.267
1748366884471518376,-0.267
1748366884479204661,-0.264
1748366884486890946,-0.259
1748366884494577231,-0.259
1748366884502263516,-0.257
1748366884509949801,-0.252
1748366884517636086,-0.247
1748366884525322371,-0.244
1748366884533008656,-0.24
1748366884540694941,-0.23700000000000002
1748366884548381226,-0.23
1748366884556067511,-0.225
1748366884563753796,-0.222
1748366884571440081,-0.225
1748366884579126366,-0.222
1748366884586812651,-0.213
1748366884594498936,-0.193
1748366884602185221,-0.169
1748366884609871506,-0.154
1748366884617557791,-0.151
1748366884625244076,-0.146
1748366884632930361,-0.151
1748366884640616646,-0.183
1748366884648302931,-0.20800000000000002
1748366884655989216,-0.2
1748366884663675501,-0.191
1748366884671361786,-0.191
1748366884679048071,-0.186
1748366884686734356,-0.181
1748366884694420641,-0.178
1748366884702106926,-0.178
1748366884709793211,-0.181
1748366884717479496,-0.20800000000000002
1748366884725165781,-0.279
1748366884732852066,-0.32
1748366884740538351,-0.066
1748366884748224636,0.651
1748366884755910921,1.548
1748366884763597206,1.974
1748366884771283491,1.1340000000000001
1748366884778969776,-0.394
1748366884786656061,-0.756
1748366884794342346,-0.195
1748366884802028631,-0.151
1748366884809714916,-0.333
1748366884817401201,-0.225
1748366884825087486,-0.169
1748366884832773771,-0.225
1748366884840460056,-0.191
1748366884848146341,-0.139
1748366884855832626,-0.137
1748366884863518911,-0.12
1748366884871205196,-0.083
1748366884878891481,-0.063
1748366884886577822,-0.039
1748366884894264107,-0.004
1748366884901950392,0.029
1748366884909636677,0.058
1748366884917322962,0.095
1748366884925009247,0.132
1748366884932695532,0.169
1748366884940381817,0.2
1748366884948068102,0.222
1748366884955754387,0.232
1748366884963440672,0.23500000000000001
1748366884971126957,0.225
1748366884978813242,0.21
1748366884986499527,0.191
1748366884994185812,0.156
1748366885001872097,0.097
1748366885009558382,0.014
1748366885017244667,-0.078
1748366885024930952,-0.171
1748366885032617237,-0.254
1748366885040303522,-0.315
1748366885047989807,-0.355
1748366885055676092,-0.377
1748366885063362377,-0.382
1748366885071048662,-0.374
1748366885078734947,-0.362
1748366885086421232,-0.352
1748366885094107517,-0.34
1748366885101793802,-0.325
1748366885109480087,-0.313
1748366885117166372,-0.303
1748366885124852657,-0.296
1748366885132538942,-0.291
1748366885140225227,-0.28400000000000003
1748366885147911512,-0.279
1748366885155597797,-0.276
1748366885163284082,-0.271
1748366885170970367,-0.269
1748366885178656652,-0.267
1748366885186342937,-0.264
1748366885194029222,-0.264
1748366885201715507,-0.264
1748366885209401792,-0.262
1748366885217088077,-0.257
1748366885224774362,-0.254
1748366885232460647,-0.252
1748366885240146932,-0.247
1748366885247833217,-0.242
1748366885255519502,-0.23700000000000002
1748366885263205787,-0.232
1748366885270892072,-0.227
1748366885278578357,-0.222
1748366885286264642,-0.22
1748366885293950927,-0.218
1748366885301637212,-0.218
1748366885309323497,-0.215
1748366885317009782,-0.2
1748366885324696067,-0.17300000000000001
1748366885332382352,-0.154
1748366885340068637,-0.151
1748366885347754922,-0.146
1748366885355441207,-0.14400000000000002
1748366885363127492,-0.166
1748366885370813777,-0.198
1748366885378500062,-0.20500000000000002
1748366885386186347,-0.191
1748366885393872632,-0.186
1748366885401558917,-0.186
1748366885409245202,-0.181
1748366885416931487,-0.181
1748366885424617772,-0.178
1748366885432304057,-0.178
1748366885439990342,-0.191
1748366885447676683,-0.24,88,687
1748366885455363317,-0.313
1748366885463049951,-0.23
1748366885470736585,0.281
1748366885478423219,1.1480000000000001
1748366885486109853,1.881
1748366885493796487,1.665
1748366885501483121,0.247
1748366885509169755,-0.783
1748366885516856389,-0.438
1748366885524543023,-0.083
1748366885532229657,-0.279
1748366885539916291,-0.28600000000000003
1748366885547602925,-0.166
1748366885555289559,-0.2
1748366885562976193,-0.20500000000000002
1748366885570662827,-0.14400000000000002
1748366885578349461,-0.129
1748366885586036095,-0.12
1748366885593722729,-0.08
1748366885601409363,-0.058
1748366885609095997,-0.046
1748366885616782631,-0.009000000000000001
1748366885624469265,0.029
1748366885632155899,0.056
1748366885639842533,0.09
1748366885647529167,0.129
1748366885655215801,0.166
1748366885662902435,0.203
1748366885670589069,0.23500000000000001
1748366885678275703,0.244
1748366885685962337,0.247
1748366885693648971,0.247
1748366885701335605,0.24
1748366885709022239,0.222
1748366885716708873,0.193
1748366885724395507,0.149
1748366885732082141,0.083
1748366885739768775,-0.009000000000000001
1748366885747455409,-0.112
1748366885755142043,-0.20500000000000002
1748366885762828677,-0.279
1748366885770515311,-0.333
1748366885778201945,-0.36
1748366885785888579,-0.367
1748366885793575213,-0.367
1748366885801261847,-0.355
1748366885808948481,-0.338
1748366885816635115,-0.335
1748366885824321749,-0.325
1748366885832008383,-0.308
1748366885839695017,-0.298
1748366885847381651,-0.291
1748366885855068285,-0.279
1748366885862754919,-0.274
1748366885870441553,-0.271
1748366885878128187,-0.269
1748366885885814821,-0.267
1748366885893501455,-0.259
1748366885901188089,-0.254
1748366885908874723,-0.262
1748366885916561357,-0.267
1748366885924247991,-0.264
1748366885931934625,-0.259
1748366885939621259,-0.254
1748366885947307893,-0.252
1748366885954994527,-0.242
1748366885962681161,-0.23700000000000002
1748366885970367795,-0.24
1748366885978054429,-0.24
1748366885985741063,-0.232
1748366885993427697,-0.227
1748366886001114331,-0.227
1748366886008800979,-0.227,88,694
1748366886016487334,-0.225,,713
1748366886024173689,-0.20800000000000002
1748366886031860044,-0.178
1748366886039546399,-0.159
1748366886047232754,-0.156
1748366886054919109,-0.154
1748366886062605464,-0.151
1748366886070291819,-0.164
1748366886077978174,-0.198
1748366886085664529,-0.213
1748366886093350884,-0.198
1748366886101037239,-0.191
1748366886108723594,-0.193
1748366886116409949,-0.188
1748366886124096304,-0.183
1748366886131782659,-0.186
1748366886139469014,-0.181
1748366886147155369,-0.183
1748366886154841724,-0.215
1748366886162528079,-0.279
1748366886170214434,-0.301
1748366886177900789,0.034
1748366886185587144,0.849
1748366886193273499,1.68
1748366886200959854,1.795
1748366886208646209,0.7030000000000001
1748366886216332564,-0.602
1748366886224018919,-0.634
1748366886231705274,-0.154
1748366886239391629,-0.213
1748366886247077984,-0.28400000000000003
1748366886254764339,-0.159
1748366886262450694,-0.161
1748366886270137049,-0.193
1748366886277823404,-0.137
1748366886285509759,-0.11
1748366886293196114,-0.112
1748366886300882469,-0.075
1748366886308568824,-0.031
1748366886316255179,-0.017
1748366886323941534,0.002
1748366886331627889,0.044
1748366886339314244,0.075
1748366886347000599,0.097
1748366886354686954,0.139
1748366886362373309,0.186
1748366886370059664,0.222
1748366886377746019,0.252
1748366886385432374,0.269
1748366886393118729,0.271
1748366886400805084,0.264
1748366886408491439,0.254
1748366886416177794,0.23700000000000002
1748366886423864149,0.213
1748366886431550504,0.169
1748366886439236859,0.1
1748366886446923214,0.012
1748366886454609569,-0.085
1748366886462295924,-0.178
1748366886469982279,-0.257
1748366886477668634,-0.313
1748366886485354989,-0.35000000000000003
1748366886493041344,-0.369
1748366886500727699,-0.369
1748366886508414054,-0.36
1748366886516100409,-0.35000000000000003
1748366886523786764,-0.338
1748366886531473119,-0.328
1748366886539159474,-0.318
1748366886546845829,-0.306
1748366886554532184,-0.291
1748366886562218539,-0.281
1748366886569904923,-0.279
1748366886577591208,-0.274
1748366886585277493,-0.264
1748366886592963778,-0.259
1748366886600650063,-0.262
1748366886608336348,-0.257
1748366886616022633,-0.254
1748366886623708918,-0.254
1748366886631395203,-0.252
1748366886639081488,-0.249
1748366886646767773,-0.252
1748366886654454058,-0.249
1748366886662140343,-0.247
1748366886669826628,-0.244
1748366886677512913,-0.242
1748366886685199198,-0.24
1748366886692885483,-0.23700000000000002
1748366886700571768,-0.23
1748366886708258053,-0.225
1748366886715944338,-0.225
1748366886723630623,-0.222
1748366886731316908,-0.20500000000000002
1748366886739003193,-0.183
1748366886746689478,-0.166
1748366886754375763,-0.159
1748366886762062048,-0.154
1748366886769748333,-0.159
1748366886777434618,-0.183
1748366886785120903,-0.215
1748366886792807188,-0.22
1748366886800493473,-0.20800000000000002
1748366886808179758,-0.203
1748366886815866043,-0.20500000000000002
1748366886823552328,-0.2
1748366886831238613,-0.193
1748366886838924898,-0.191
1748366886846611183,-0.198
1748366886854297468,-0.213
1748366886861983753,-0.259
1748366886869670038,-0.33
1748366886877356323,-0.20500000000000002
1748366886885042608,0.404
1748366886892728893,1.298
1748366886900415178,1.871
1748366886908101463,1.361
1748366886915787748,-0.105
1748366886923474033,-0.8180000000000001
1748366886931160318,-0.352
1748366886938846603,-0.14400000000000002
1748366886946532888,-0.32
1748366886954219173,-0.252
1748366886961905458,-0.169
1748366886969591743,-0.218
1748366886977278028,-0.2
1748366886984964313,-0.14400000000000002
1748366886992650598,-0.14200000000000002
1748366887000336883,-0.129
1748366887008023168,-0.09
1748366887015709453,-0.066
1748366887023395738,-0.044
1748366887031082023,-0.009000000000000001
1748366887038768308,0.022
1748366887046454593,0.051000000000000004
1748366887054140878,0.085
1748366887061827163,0.124
1748366887069513448,0.159
1748366887077199733,0.191
1748366887084886018,0.215
1748366887092572303,0.227
1748366887100258588,0.227
1748366887107944873,0.215
1748366887115631158,0.198
1748366887123317443,0.176
1748366887131003788,0.146,88,726
1748366887138690073,0.095
1748366887146376358,0.017
1748366887154062643,-0.073
1748366887161748928,-0.169
1748366887169435213,-0.252
1748366887177121498,-0.318
1748366887184807783,-0.362
1748366887192494068,-0.384
1748366887200180353,-0.391
1748366887207866638,-0.387
1748366887215552923,-0.379
1748366887223239208,-0.367
1748366887230925493,-0.355
1748366887238611778,-0.34
1748366887246298063,-0.328
1748366887253984348,-0.318
1748366887261670633,-0.311
1748366887269356918,-0.301
1748366887277043203,-0.293
1748366887284729488,-0.289
1748366887292415773,-0.281
1748366887300102058,-0.274
1748366887307788343,-0.271
1748366887315474628,-0.271
1748366887323160913,-0.271
1748366887330847198,-0.269
1748366887338533483,-0.267
1748366887346219768,-0.262
1748366887353906053,-0.262
1748366887361592338,-0.262
1748366887369278623,-0.257
1748366887376964908,-0.252
1748366887384651193,-0.247
1748366887392337478,-0.242
1748366887400023763,-0.242
1748366887407710048,-0.23500000000000001
1748366887415396333,-0.227
1748366887423082618,-0.232
1748366887430768903,-0.23500000000000001
1748366887438455188,-0.218
1748366887446141473,-0.191
1748366887453827758,-0.169
1748366887461514043,-0.166
1748366887469200328,-0.161
1748366887476886613,-0.159
1748366887484572898,-0.186
1748366887492259183,-0.23
1748366887499945468,-0.24
1748366887507631753,-0.22
1748366887515318038,-0.213
1748366887523004323,-0.215
1748366887530690608,-0.203
1748366887538376893,-0.203
1748366887546063178,-0.22
1748366887553749463,-0.23
1748366887561435748,-0.24
1748366887569122033,-0.296
1748366887576808318,-0.342
1748366887584494603,-0.159
1748366887592180888,0.453
1748366887599867173,1.322
1748366887607553458,1.922
1748366887615239743,1.379
1748366887622926028,-0.166
1748366887630612313,-0.837
1748366887638298598,-0.325
1748366887645984883,-0.176
1748366887653671168,-0.406
1748366887661357453,-0.328
1748366887669043738,-0.242
1748366887676730023,-0.301
1748366887684416308,-0.259
1748366887692102649,-0.20500000000000002
1748366887699789352,-0.23700000000000002
1748366887707476055,-0.215
1748366887715162758,-0.166
1748366887722849461,-0.164
1748366887730536164,-0.139
1748366887738222867,-0.09
1748366887745909570,-0.063
1748366887753596273,-0.034
1748366887761282976,0.014
1748366887768969679,0.044
1748366887776656382,0.066
1748366887784343085,0.107
1748366887792029788,0.134
1748366887799716491,0.149
1748366887807403194,0.166
1748366887815089897,0.171
1748366887822776600,0.156
1748366887830463303,0.129
1748366887838150006,0.10200000000000001
1748366887845836709,0.063
1748366887853523412,-0.017
1748366887861210115,-0.122
1748366887868896818,-0.20800000000000002
1748366887876583521,-0.28600000000000003
1748366887884270224,-0.355
1748366887891956927,-0.394
1748366887899643630,-0.41300000000000003
1748366887907330333,-0.426
1748366887915017036,-0.421
1748366887922703739,-0.404
1748366887930390442,-0.396
1748366887938077145,-0.382
1748366887945763848,-0.36
1748366887953450551,-0.34700000000000003
1748366887961137254,-0.34
1748366887968823957,-0.328
1748366887976510660,-0.315
1748366887984197363,-0.311
1748366887991884066,-0.311
1748366887999570769,-0.306
1748366888007257472,-0.296
1748366888014944175,-0.293
1748366888022630878,-0.293
1748366888030317581,-0.28600000000000003
1748366888038004284,-0.281
1748366888045690987,-0.28400000000000003
1748366888053377690,-0.281
1748366888061064393,-0.276
1748366888068751096,-0.274
1748366888076437799,-0.269
1748366888084124502,-0.262
1748366888091811205,-0.257
1748366888099497908,-0.257
1748366888107184611,-0.257
1748366888114871314,-0.249
1748366888122558017,-0.23
1748366888130244720,-0.2
1748366888137931423,-0.183
1748366888145618126,-0.186
1748366888153304829,-0.181
1748366888160991532,-0.181
1748366888168678235,-0.20500000000000002
1748366888176364938,-0.232
1748366888184051641,-0.23
1748366888191738344,-0.22
1748366888199425047,-0.218
1748366888207111750,-0.215
1748366888214798453,-0.20500000000000002
1748366888222485156,-0.195
1748366888230171859,-0.198
1748366888237858562,-0.213
1748366888245545265,-0.23500000000000001
1748366888253232028,-0.293,87,709
1748366888260918313,-0.338
1748366888268604598,-0.107
1748366888276290883,0.59
1748366888283977168,1.479
1748366888291663453,1.915
1748366888299349738,1.124
1748366888307036023,-0.367
1748366888314722308,-0.759
1748366888322408593,-0.249
1748366888330094878,-0.203
1748366888337781163,-0.352
1748366888345467448,-0.244
1748366888353153733,-0.2
1748366888360840018,-0.252
1748366888368526303,-0.218
1748366888376212588,-0.171
1748366888383898873,-0.171
1748366888391585158,-0.146
1748366888399271443,-0.105
1748366888406957728,-0.083
1748366888414644013,-0.061
1748366888422330298,-0.029
1748366888430016583,-0.004
1748366888437702868,0.036000000000000004
1748366888445389153,0.085
1748366888453075438,0.12
1748366888460761723,0.164
1748366888468448008,0.213
1748366888476134293,0.23
1748366888483820578,0.23700000000000002
1748366888491506863,0.244
1748366888499193148,0.23700000000000002
1748366888506879433,0.22
1748366888514565718,0.21
1748366888522252003,0.17300000000000001
1748366888529938288,0.1
1748366888537624573,0.014
1748366888545310858,-0.078
1748366888552997143,-0.176
1748366888560683428,-0.257
1748366888568369713,-0.315
1748366888576055998,-0.357
1748366888583742283,-0.377
1748366888591428568,-0.379
1748366888599114853,-0.382
1748366888606801138,-0.379
1748366888614487423,-0.36
1748366888622173708,-0.34500000000000003
1748366888629859993,-0.33
1748366888637546278,-0.311
1748366888645232563,-0.308
1748366888652918848,-0.306
1748366888660605133,-0.291
1748366888668291418,-0.279
1748366888675977703,-0.276
1748366888683663988,-0.271
1748366888691350273,-0.264
1748366888699036558,-0.262
1748366888706722843,-0.259
1748366888714409128,-0.259
1748366888722095413,-0.257
1748366888729781698,-0.257
1748366888737467983,-0.254
1748366888745154268,-0.249
1748366888752840553,-0.247
1748366888760526838,-0.244
1748366888768213123,-0.24
1748366888775899408,-0.23700000000000002
1748366888783585693,-0.242
1748366888791271978,-0.24
1748366888798958263,-0.222
1748366888806644548,-0.198
1748366888814330889,-0.176
1748366888822017523,-0.17300000000000001
1748366888829704157,-0.166
1748366888837390791,-0.159
1748366888845077425,-0.176
1748366888852764059,-0.20800000000000002
1748366888860450693,-0.215
1748366888868137327,-0.198
1748366888875823961,-0.188
1748366888883510595,-0.188
1748366888891197229,-0.183
1748366888898883863,-0.178
1748366888906570497,-0.17300000000000001
1748366888914257131,-0.169
1748366888921943765,-0.183
1748366888929630399,-0.24
1748366888937317033,-0.303
1748366888945003667,-0.14400000000000002
1748366888952690301,0.458
1748366888960376935,1.332
1748366888968063569,1.962
1748366888975750203,1.499
1748366888983436837,-0.017
1748366888991123471,-0.778
1748366888998810105,-0.311
1748366889006496739,-0.095
1748366889014183373,-0.28400000000000003
1748366889021870007,-0.225
1748366889029556641,-0.134
1748366889037243275,-0.181
1748366889044929909,-0.164
1748366889052616543,-0.105
1748366889060303177,-0.093
1748366889067989811,-0.078
1748366889075676445,-0.044
1748366889083363079,-0.022
1748366889091049713,0.002
1748366889098736347,0.041
1748366889106422981,0.08
1748366889114109615,0.11
1748366889121796249,0.14400000000000002
1748366889129482883,0.183
1748366889137169517,0.22
1748366889144856151,0.259
1748366889152542785,0.298
1748366889160229419,0.313
1748366889167916053,0.306
1748366889175602687,0.301
1748366889183289321,0.293
1748366889190975955,0.269
1748366889198662589,0.23500000000000001
1748366889206349223,0.176
1748366889214035857,0.09
1748366889221722491,-0.007
1748366889229409125,-0.107
1748366889237095759,-0.195
1748366889244782393,-0.267
1748366889252469027,-0.318
1748366889260155661,-0.335
1748366889267842295,-0.335
1748366889275528929,-0.338
1748366889283215563,-0.33
1748366889290902197,-0.318
1748366889298588831,-0.308
1748366889306275465,-0.293
1748366889313962099,-0.271
1748366889321648733,-0.259
1748366889329335367,-0.259
1748366889337022001,-0.254
1748366889344708635,-0.24
1748366889352395269,-0.232
1748366889360081903,-0.23
1748366889367768537,-0.227
1748366889375455185,-0.225,86,703
1748366889383141540,-0.225,,707
1748366889390827895,-0.222
1748366889398514250,-0.22
1748366889406200605,-0.222
1748366889413886960,-0.222
1748366889421573315,-0.22
1748366889429259670,-0.22
1748366889436946025,-0.213
1748366889444632380,-0.203
1748366889452318735,-0.21
1748366889460005090,-0.215
1748366889467691445,-0.198
1748366889475377800,-0.178
1748366889483064155,-0.161
1748366889490750510,-0.146
1748366889498436865,-0.139
1748366889506123220,-0.137
1748366889513809575,-0.154
1748366889521495930,-0.181
1748366889529182285,-0.195
1748366889536868640,-0.195
1748366889544554995,-0.191
1748366889552241350,-0.183
1748366889559927705,-0.176
1748366889567614060,-0.171
1748366889575300415,-0.164
1748366889582986770,-0.166
1748366889590673125,-0.181
1748366889598359480,-0.222
1748366889606045835,-0.296
1748366889613732190,-0.218
1748366889621418545,0.335
1748366889629104900,1.249
1748366889636791255,1.922
1748366889644477610,1.579
1748366889652163965,0.146
1748366889659850320,-0.776
1748366889667536675,-0.401
1748366889675223030,-0.1
1748366889682909385,-0.28600000000000003
1748366889690595740,-0.254
1748366889698282095,-0.134
1748366889705968450,-0.181
1748366889713654805,-0.186
1748366889721341160,-0.122
1748366889729027515,-0.10200000000000001
1748366889736713870,-0.093
1748366889744400225,-0.066
1748366889752086580,-0.039
1748366889759772935,-0.002
1748366889767459290,0.026000000000000002
1748366889775145645,0.048
1748366889782832000,0.088
1748366889790518355,0.132
1748366889798204710,0.171
1748366889805891065,0.21
1748366889813577420,0.244
1748366889821263775,0.271
1748366889828950130,0.293
1748366889836636485,0.291
1748366889844322840,0.281
1748366889852009195,0.271
1748366889859695550,0.247
1748366889867381905,0.203
1748366889875068260,0.146
1748366889882754615,0.068
1748366889890440970,-0.036000000000000004
1748366889898127325,-0.14200000000000002
1748366889905813680,-0.227
1748366889913500035,-0.296
1748366889921186390,-0.35000000000000003
1748366889928872745,-0.374
1748366889936559129,-0.377,86,683
1748366889944245414,-0.377
1748366889951931699,-0.369
1748366889959617984,-0.357
1748366889967304269,-0.34500000000000003
1748366889974990554,-0.328
1748366889982676839,-0.313
1748366889990363124,-0.303
1748366889998049409,-0.296
1748366890005735694,-0.289
1748366890013421979,-0.279
1748366890021108264,-0.271
1748366890028794549,-0.271
1748366890036480834,-0.274
1748366890044167119,-0.271
1748366890051853404,-0.264
1748366890059539689,-0.262
1748366890067225974,-0.257
1748366890074912259,-0.257
1748366890082598544,-0.257
1748366890090284829,-0.257
1748366890097971114,-0.257
1748366890105657399,-0.259
1748366890113343684,-0.257
1748366890121029969,-0.254
1748366890128716254,-0.249
1748366890136402539,-0.23700000000000002
1748366890144088824,-0.213
1748366890151775109,-0.193
1748366890159461394,-0.188
1748366890167147679,-0.183
1748366890174833964,-0.191
1748366890182520249,-0.222
1748366890190206534,-0.247
1748366890197892819,-0.23700000000000002
1748366890205579104,-0.227
1748366890213265389,-0.227
1748366890220951674,-0.225
1748366890228637959,-0.218
1748366890236324244,-0.21
1748366890244010529,-0.213
1748366890251696814,-0.222
1748366890259383099,-0.259
1748366890267069384,-0.33
1748366890274755669,-0.274
1748366890282441954,0.23
1748366890290128239,1.121
1748366890297814524,1.859
1748366890305500809,1.643
1748366890313187094,0.242
1748366890320873379,-0.8270000000000001
1748366890328559664,-0.514
1748366890336245949,-0.127
1748366890343932234,-0.301
1748366890351618519,-0.315
1748366890359304804,-0.191
1748366890366991089,-0.22
1748366890374677374,-0.23500000000000001
1748366890382363659,-0.176
1748366890390049944,-0.159
1748366890397736229,-0.154
1748366890405422514,-0.12
1748366890413108799,-0.09
1748366890420795084,-0.07100000000000001
1748366890428481369,-0.041
1748366890436167654,-0.007
1748366890443853939,0.024
1748366890451540224,0.058
1748366890459226509,0.095
1748366890466912794,0.132
1748366890474599079,0.166
1748366890482285364,0.198
1748366890489971649,0.215
1748366890497657994,0.22
1748366890505344697,0.213
1748366890513031400,0.203
1748366890520718103,0.181
1748366890528404806,0.149
1748366890536091509,0.097
1748366890543778212,0.017
1748366890551464915,-0.08
1748366890559151618,-0.181
1748366890566838321,-0.269
1748366890574525024,-0.333
1748366890582211727,-0.372
1748366890589898430,-0.394
1748366890597585133,-0.401
1748366890605271836,-0.396
1748366890612958539,-0.387
1748366890620645242,-0.377
1748366890628331945,-0.364
1748366890636018648,-0.352
1748366890643705351,-0.335
1748366890651392054,-0.323
1748366890659078757,-0.313
1748366890666765460,-0.308
1748366890674452163,-0.298
1748366890682138866,-0.293
1748366890689825569,-0.291
1748366890697512272,-0.289
1748366890705198975,-0.28400000000000003
1748366890712885678,-0.279
1748366890720572381,-0.279
1748366890728259084,-0.276
1748366890735945787,-0.271
1748366890743632490,-0.271
1748366890751319193,-0.269
1748366890759005896,-0.267
1748366890766692599,-0.262
1748366890774379302,-0.257
1748366890782066005,-0.254
1748366890789752708,-0.257
1748366890797439411,-0.259
1748366890805126114,-0.244
1748366890812812817,-0.215
1748366890820499520,-0.193
1748366890828186223,-0.188
1748366890835872926,-0.183
1748366890843559629,-0.178
1748366890851246332,-0.198
1748366890858933035,-0.232
1748366890866619738,-0.242
1748366890874306441,-0.23
1748366890881993144,-0.222
1748366890889679847,-0.218
1748366890897366550,-0.213
1748366890905053253,-0.21
1748366890912739956,-0.20500000000000002
1748366890920426659,-0.20500000000000002
1748366890928113362,-0.22
1748366890935800065,-0.276
1748366890943486768,-0.34500000000000003
1748366890951173471,-0.195
1748366890958860174,0.421
1748366890966546877,1.342
1748366890974233580,1.986
1748366890981920283,1.496
1748366890989606986,-0.066
1748366890997293689,-0.849
1748366891004980392,-0.342
1748366891012667095,-0.11
1748366891020353798,-0.338
1748366891028040501,-0.289
1748366891035727204,-0.181
1748366891043413907,-0.232
1748366891051100610,-0.227
1748366891058787373,-0.164,86,679
1748366891066473658,-0.154,,670
1748366891074159943,-0.14400000000000002
1748366891081846228,-0.105
1748366891089532513,-0.08
1748366891097218798,-0.058
1748366891104905083,-0.022
1748366891112591368,0.009000000000000001
1748366891120277653,0.041
1748366891127963938,0.08
1748366891135650223,0.12
1748366891143336508,0.154
1748366891151022793,0.188
1748366891158709078,0.213
1748366891166395363,0.227
1748366891174081648,0.232
1748366891181767933,0.23
1748366891189454218,0.218
1748366891197140503,0.198
1748366891204826788,0.166
1748366891212513073,0.11
1748366891220199358,0.024
1748366891227885643,-0.073
1748366891235571928,-0.169
1748366891243258213,-0.254
1748366891250944498,-0.318
1748366891258630783,-0.357
1748366891266317068,-0.377
1748366891274003353,-0.382
1748366891281689638,-0.379
1748366891289375923,-0.367
1748366891297062208,-0.355
1748366891304748493,-0.34
1748366891312434778,-0.328
1748366891320121063,-0.315
1748366891327807348,-0.306
1748366891335493633,-0.293
1748366891343179918,-0.28600000000000003
1748366891350866203,-0.28400000000000003
1748366891358552488,-0.279
1748366891366238773,-0.274
1748366891373925058,-0.274
1748366891381611343,-0.271
1748366891389297628,-0.267
1748366891396983913,-0.264
1748366891404670198,-0.264
1748366891412356483,-0.262
1748366891420042768,-0.262
1748366891427729053,-0.259
1748366891435415338,-0.254
1748366891443101623,-0.249
1748366891450787908,-0.247
1748366891458474193,-0.247
1748366891466160478,-0.247
1748366891473846763,-0.23700000000000002
1748366891481533048,-0.215
1748366891489219333,-0.193
1748366891496905618,-0.178
1748366891504591903,-0.17300000000000001
1748366891512278188,-0.171
1748366891519964473,-0.183
1748366891527650758,-0.218
1748366891535337043,-0.232
1748366891543023328,-0.22
1748366891550709613,-0.213
1748366891558395898,-0.213
1748366891566082183,-0.20500000000000002
1748366891573768468,-0.2
1748366891581454753,-0.198
1748366891589141038,-0.198
1748366891596827323,-0.21
1748366891604513608,-0.254
1748366891612199893,-0.325
1748366891619886234,-0.23
1748366891627572519,0.313
1748366891635258804,1.202
1748366891642945089,1.932
1748366891650631374,1.6600000000000001
1748366891658317659,0.17300000000000001
1748366891666003944,-0.835
1748366891673690229,-0.436
1748366891681376514,-0.09
1748366891689062799,-0.306
1748366891696749084,-0.303
1748366891704435369,-0.178
1748366891712121654,-0.218
1748366891719807939,-0.23
1748366891727494224,-0.161
1748366891735180509,-0.14200000000000002
1748366891742866794,-0.139
1748366891750553079,-0.10200000000000001
1748366891758239364,-0.068
1748366891765925649,-0.048
1748366891773611934,-0.017
1748366891781298219,0.017
1748366891788984504,0.044
1748366891796670789,0.073
1748366891804357074,0.117
1748366891812043359,0.164
1748366891819729644,0.198
1748366891827415929,0.227
1748366891835102214,0.242
1748366891842788499,0.244
1748366891850474784,0.24
1748366891858161069,0.23
1748366891865847354,0.213
1748366891873533639,0.181
1748366891881219924,0.127
1748366891888906209,0.048
1748366891896592494,-0.046
1748366891904278779,-0.146
1748366891911965064,-0.23500000000000001
1748366891919651349,-0.301
1748366891927337634,-0.34500000000000003
1748366891935023919,-0.369
1748366891942710204,-0.377
1748366891950396489,-0.372
1748366891958082774,-0.355
1748366891965769059,-0.338
1748366891973455344,-0.33
1748366891981141629,-0.323
1748366891988827914,-0.306
1748366891996514199,-0.296
1748366892004200484,-0.293
1748366892011886769,-0.28400000000000003
1748366892019573054,-0.276
1748366892027259339,-0.274
1748366892034945624,-0.274
1748366892042631909,-0.267
1748366892050318194,-0.259
1748366892058004479,-0.259
1748366892065690764,-0.262
1748366892073377049,-0.259
1748366892081063334,-0.254
1748366892088749619,-0.254
1748366892096435904,-0.252
1748366892104122189,-0.249
1748366892111808474,-0.249
1748366892119494759,-0.247
1748366892127181044,-0.24
1748366892134867329,-0.227
1748366892142553614,-0.215
1748366892150239899,-0.195
1748366892157926184,-0.176
1748366892165612469,-0.17300000000000001
1748366892173298754,-0.176
1748366892180985095,-0.191,87,662
1748366892188671729,-0.222
1748366892196358363,-0.23500000000000001
1748366892204044997,-0.215
1748366892211731631,-0.20800000000000002
1748366892219418265,-0.213
1748366892227104899,-0.21
1748366892234791533,-0.20500000000000002
1748366892242478167,-0.198
1748366892250164801,-0.195
1748366892257851435,-0.213
1748366892265538069,-0.269
1748366892273224703,-0.33
1748366892280911337,-0.151
1748366892288597971,0.519
1748366892296284605,1.428
1748366892303971239,1.932
1748366892311657873,1.281
1748366892319344507,-0.227
1748366892327031141,-0.81
1748366892334717775,-0.296
1748366892342404409,-0.14400000000000002
1748366892350091043,-0.328
1748366892357777677,-0.247
1748366892365464311,-0.171
1748366892373150945,-0.222
1748366892380837579,-0.198
1748366892388524213,-0.14400000000000002
1748366892396210847,-0.132
1748366892403897481,-0.112
1748366892411584115,-0.078
1748366892419270749,-0.053
1748366892426957383,-0.029
1748366892434644017,0.002
1748366892442330651,0.031
1748366892450017285,0.066
1748366892457703919,0.10200000000000001
1748366892465390553,0.139
1748366892473077187,0.183
1748366892480763821,0.218
1748366892488450455,0.232
1748366892496137089,0.247
1748366892503823723,0.254
1748366892511510357,0.23700000000000002
1748366892519196991,0.21
1748366892526883625,0.193
1748366892534570259,0.161
1748366892542256893,0.10200000000000001
1748366892549943527,0.014
1748366892557630161,-0.088
1748366892565316795,-0.181
1748366892573003429,-0.262
1748366892580690063,-0.328
1748366892588376697,-0.367
1748366892596063331,-0.379
1748366892603749965,-0.379
1748366892611436599,-0.372
1748366892619123233,-0.364
1748366892626809867,-0.36
1748366892634496501,-0.34700000000000003
1748366892642183135,-0.333
1748366892649869769,-0.318
1748366892657556403,-0.306
1748366892665243037,-0.298
1748366892672929671,-0.296
1748366892680616305,-0.28600000000000003
1748366892688302939,-0.281
1748366892695989573,-0.281
1748366892703676207,-0.276
1748366892711362841,-0.276
1748366892719049475,-0.281
1748366892726736109,-0.279
1748366892734422743,-0.271
1748366892742109391,-0.269
1748366892749795746,-0.271
1748366892757482101,-0.274
1748366892765168456,-0.267
1748366892772854811,-0.259
1748366892780541166,-0.259
1748366892788227521,-0.259
1748366892795913876,-0.252
1748366892803600231,-0.23
1748366892811286586,-0.21
1748366892818972941,-0.203
1748366892826659296,-0.195
1748366892834345651,-0.188
1748366892842032006,-0.198
1748366892849718361,-0.232
1748366892857404716,-0.252
1748366892865091071,-0.24
1748366892872777426,-0.23
1748366892880463781,-0.23
1748366892888150136,-0.22
1748366892895836491,-0.21
1748366892903522846,-0.213
1748366892911209201,-0.213
1748366892918895556,-0.225
1748366892926581911,-0.262
1748366892934268266,-0.328
1748366892941954621,-0.281
1748366892949640976,0.193
1748366892957327331,1.068
1748366892965013686,1.812
1748366892972700041,1.6380000000000001
1748366892980386396,0.274
1748366892988072751,-0.805
1748366892995759106,-0.521
1748366893003445461,-0.137
1748366893011131816,-0.298
1748366893018818171,-0.306
1748366893026504526,-0.186
1748366893034190881,-0.218
1748366893041877236,-0.23
1748366893049563591,-0.171
1748366893057249946,-0.154
1748366893064936301,-0.14400000000000002
1748366893072622656,-0.107
1748366893080309011,-0.08
1748366893087995366,-0.063
1748366893095681721,-0.031
1748366893103368076,0.002
1748366893111054431,0.034
1748366893118740786,0.068
1748366893126427141,0.107
1748366893134113496,0.14400000000000002
1748366893141799851,0.176
1748366893149486206,0.203
1748366893157172561,0.213
1748366893164858916,0.215
1748366893172545271,0.20800000000000002
1748366893180231626,0.193
1748366893187917981,0.171
1748366893195604336,0.14400000000000002
1748366893203290691,0.097
1748366893210977046,0.022
1748366893218663401,-0.068
1748366893226349756,-0.159
1748366893234036111,-0.24
1748366893241722466,-0.313
1748366893249408821,-0.36
1748366893257095176,-0.377
1748366893264781531,-0.384
1748366893272467886,-0.382
1748366893280154241,-0.374
1748366893287840596,-0.362
1748366893295526951,-0.35000000000000003
1748366893303213339,-0.333,88,675
1748366893310899624,-0.32,,670
1748366893318585909,-0.313
1748366893326272194,-0.308
1748366893333958479,-0.298
1748366893341644764,-0.291
1748366893349331049,-0.291
1748366893357017334,-0.28600000000000003
1748366893364703619,-0.28400000000000003
1748366893372389904,-0.281
1748366893380076189,-0.279
1748366893387762474,-0.279
1748366893395448759,-0.281
1748366893403135044,-0.281
1748366893410821329,-0.276
1748366893418507614,-0.274
1748366893426193899,-0.271
1748366893433880184,-0.267
1748366893441566469,-0.259
1748366893449252754,-0.259
1748366893456939039,-0.262
1748366893464625324,-0.259
1748366893472311609,-0.24
1748366893479997894,-0.21
1748366893487684179,-0.193
1748366893495370464,-0.193
1748366893503056749,-0.188
1748366893510743034,-0.191
1748366893518429319,-0.22
1748366893526115604,-0.247
1748366893533801889,-0.24
1748366893541488174,-0.225
1748366893549174459,-0.225
1748366893556860744,-0.222
1748366893564547029,-0.213
1748366893572233314,-0.213
1748366893579919599,-0.21
1748366893587605884,-0.215
1748366893595292169,-0.244
1748366893602978454,-0.318
1748366893610664739,-0.313
1748366893618351024,0.053
1748366893626037309,0.859
1748366893633723594,1.722
1748366893641409879,1.8780000000000001
1748366893649096164,0.6900000000000001
1748366893656782449,-0.6930000000000001
1748366893664468734,-0.656
1748366893672155019,-0.129
1748366893679841304,-0.242
1748366893687527589,-0.35000000000000003
1748366893695213874,-0.21
1748366893702900159,-0.20500000000000002
1748366893710586444,-0.247
1748366893718272729,-0.191
1748366893725959014,-0.154
1748366893733645299,-0.154
1748366893741331584,-0.127
1748366893749017869,-0.093
1748366893756704154,-0.07100000000000001
1748366893764390439,-0.044
1748366893772076724,-0.012
1748366893779763009,0.019
1748366893787449294,0.053
1748366893795135579,0.09
1748366893802821864,0.127
1748366893810508149,0.161
1748366893818194434,0.188
1748366893825880719,0.20500000000000002
1748366893833567004,0.213
1748366893841253289,0.20800000000000002
1748366893848939574,0.195
1748366893856625859,0.181
1748366893864312200,0.159
1748366893871998485,0.117
1748366893879684770,0.051000000000000004
1748366893887371055,-0.034
1748366893895057340,-0.129
1748366893902743625,-0.222
1748366893910429910,-0.296
1748366893918116195,-0.34500000000000003
1748366893925802480,-0.374
1748366893933488765,-0.384
1748366893941175050,-0.384
1748366893948861335,-0.374
1748366893956547620,-0.362
1748366893964233905,-0.35000000000000003
1748366893971920190,-0.338
1748366893979606475,-0.325
1748366893987292760,-0.311
1748366893994979045,-0.301
1748366894002665330,-0.298
1748366894010351615,-0.291
1748366894018037900,-0.28600000000000003
1748366894025724185,-0.28400000000000003
1748366894033410470,-0.281
1748366894041096755,-0.281
1748366894048783040,-0.281
1748366894056469325,-0.279
1748366894064155610,-0.274
1748366894071841895,-0.271
1748366894079528180,-0.271
1748366894087214465,-0.271
1748366894094900750,-0.264
1748366894102587035,-0.259
1748366894110273320,-0.257
1748366894117959605,-0.257
1748366894125645890,-0.257
1748366894133332175,-0.249
1748366894141018460,-0.23
1748366894148704745,-0.20800000000000002
1748366894156391030,-0.193
1748366894164077315,-0.186
1748366894171763600,-0.181
1748366894179449885,-0.191
1748366894187136170,-0.225
1748366894194822455,-0.244
1748366894202508740,-0.232
1748366894210195025,-0.222
1748366894217881310,-0.222
1748366894225567595,-0.218
1748366894233253880,-0.21
1748366894240940165,-0.20800000000000002
1748366894248626450,-0.20500000000000002
1748366894256312735,-0.213
1748366894263999020,-0.247
1748366894271685305,-0.318
1748366894279371590,-0.291
1748366894287057875,0.132
1748366894294744160,0.97
1748366894302430445,1.795
1748366894310116730,1.812
1748366894317803015,0.511
1748366894325489300,-0.754
1748366894333175585,-0.5750000000000001
1748366894340861870,-0.10200000000000001
1748366894348548155,-0.259
1748366894356234440,-0.333
1748366894363920725,-0.195
1748366894371607010,-0.20500000000000002
1748366894379293295,-0.23500000000000001
1748366894386979580,-0.176
1748366894394665865,-0.146
1748366894402352150,-0.14400000000000002
1748366894410038435,-0.11
1748366894417724720,-0.078
1748366894425411061,-0.061,88,659
1748366894433097764,-0.031
1748366894440784467,0.002
1748366894448471170,0.034
1748366894456157873,0.068
1748366894463844576,0.105
1748366894471531279,0.14200000000000002
1748366894479217982,0.176
1748366894486904685,0.203
1748366894494591388,0.22
1748366894502278091,0.225
1748366894509964794,0.222
1748366894517651497,0.213
1748366894525338200,0.193
1748366894533024903,0.166
1748366894540711606,0.124
1748366894548398309,0.056
1748366894556085012,-0.034
1748366894563771715,-0.129
1748366894571458418,-0.215
1748366894579145121,-0.28600000000000003
1748366894586831824,-0.335
1748366894594518527,-0.36
1748366894602205230,-0.367
1748366894609891933,-0.364
1748366894617578636,-0.357
1748366894625265339,-0.34500000000000003
1748366894632952042,-0.333
1748366894640638745,-0.318
1748366894648325448,-0.303
1748366894656012151,-0.293
1748366894663698854,-0.28400000000000003
1748366894671385557,-0.276
1748366894679072260,-0.271
1748366894686758963,-0.269
1748366894694445666,-0.269
1748366894702132369,-0.267
1748366894709819072,-0.264
1748366894717505775,-0.262
1748366894725192478,-0.262
1748366894732879181,-0.262
1748366894740565884,-0.259
1748366894748252587,-0.252
1748366894755939290,-0.249
1748366894763625993,-0.249
1748366894771312696,-0.244
1748366894778999399,-0.242
1748366894786686102,-0.242
1748366894794372805,-0.24
1748366894802059508,-0.225
1748366894809746211,-0.2
1748366894817432914,-0.178
1748366894825119617,-0.169
1748366894832806320,-0.164
1748366894840493023,-0.171
1748366894848179726,-0.195
1748366894855866429,-0.222
1748366894863553132,-0.225
1748366894871239835,-0.215
1748366894878926538,-0.213
1748366894886613241,-0.20500000000000002
1748366894894299944,-0.2
1748366894901986647,-0.198
1748366894909673350,-0.193
1748366894917360053,-0.193
1748366894925046756,-0.20800000000000002
1748366894932733459,-0.267
1748366894940420162,-0.313
1748366894948106865,-0.083
1748366894955793568,0.612
1748366894963480271,1.504
1748366894971166974,1.962
1748366894978853677,1.192
1748366894986540440,-0.342,89,664
1748366894994226725,-0.788,,671
1748366895001913010,-0.23
1748366895009599295,-0.14400000000000002
1748366895017285580,-0.328
1748366895024971865,-0.23
1748366895032658150,-0.164
1748366895040344435,-0.215
1748366895048030720,-0.186
1748366895055717005,-0.132
1748366895063403290,-0.129
1748366895071089575,-0.11
1748366895078775860,-0.073
1748366895086462145,-0.053
1748366895094148430,-0.039
1748366895101834715,-0.002
1748366895109521000,0.041
1748366895117207285,0.075
1748366895124893570,0.107
1748366895132579855,0.14400000000000002
1748366895140266140,0.178
1748366895147952425,0.20800000000000002
1748366895155638710,0.23
1748366895163324995,0.247
1748366895171011280,0.249
1748366895178697565,0.23700000000000002
1748366895186383850,0.22
1748366895194070135,0.203
1748366895201756420,0.169
1748366895209442705,0.1
1748366895217128990,0.019
1748366895224815275,-0.07100000000000001
1748366895232501560,-0.169
1748366895240187845,-0.247
1748366895247874130,-0.303
1748366895255560415,-0.34
1748366895263246700,-0.357
1748366895270932985,-0.36
1748366895278619270,-0.357
1748366895286305555,-0.342
1748366895293991840,-0.32
1748366895301678125,-0.303
1748366895309364410,-0.296
1748366895317050695,-0.291
1748366895324736980,-0.28400000000000003
1748366895332423265,-0.274
1748366895340109550,-0.269
1748366895347795835,-0.267
1748366895355482120,-0.262
1748366895363168405,-0.262
1748366895370854690,-0.257
1748366895378540975,-0.252
1748366895386227260,-0.254
1748366895393913545,-0.254
1748366895401599830,-0.249
1748366895409286115,-0.244
1748366895416972400,-0.244
1748366895424658685,-0.247
1748366895432344970,-0.244
1748366895440031255,-0.23700000000000002
1748366895447717540,-0.23
1748366895455403825,-0.23
1748366895463090110,-0.215
1748366895470776395,-0.183
1748366895478462680,-0.169
1748366895486148965,-0.171
1748366895493835250,-0.169
1748366895501521535,-0.176
1748366895509207820,-0.21
1748366895516894105,-0.23
1748366895524580390,-0.218
1748366895532266675,-0.203
1748366895539952960,-0.203
1748366895547639301,-0.195
1748366895555325586,-0.193
1748366895563011871,-0.193
1748366895570698156,-0.191
1748366895578384441,-0.2
1748366895586070726,-0.23
1748366895593757011,-0.301
1748366895601443296,-0.281
1748366895609129581,0.149
1748366895616815866,1.004
1748366895624502151,1.78
1748366895632188436,1.719
1748366895639874721,0.448
1748366895647561006,-0.732
1748366895655247291,-0.553
1748366895662933576,-0.112
1748366895670619861,-0.249
1748366895678306146,-0.296
1748366895685992431,-0.171
1748366895693678716,-0.191
1748366895701365001,-0.21
1748366895709051286,-0.151
1748366895716737571,-0.122
1748366895724423856,-0.107
1748366895732110141,-0.078
1748366895739796426,-0.058
1748366895747482711,-0.029
1748366895755168996,0.002
1748366895762855281,0.024
1748366895770541566,0.056
1748366895778227851,0.097
1748366895785914136,0.134
1748366895793600421,0.166
1748366895801286706,0.203
1748366895808972991,0.227
1748366895816659276,0.244
1748366895824345561,0.249
1748366895832031846,0.23700000000000002
1748366895839718131,0.222
1748366895847404416,0.20500000000000002
1748366895855090701,0.171
1748366895862776986,0.122
1748366895870463271,0.061
1748366895878149556,-0.024
1748366895885835841,-0.122
1748366895893522126,-0.22
1748366895901208411,-0.289
1748366895908894696,-0.328
1748366895916580981,-0.357
1748366895924267266,-0.372
1748366895931953551,-0.364
1748366895939639836,-0.35000000000000003
1748366895947326121,-0.342
1748366895955012406,-0.33
1748366895962698691,-0.313
1748366895970384976,-0.301
1748366895978071261,-0.296
1748366895985757546,-0.289
1748366895993443831,-0.279
1748366896001130116,-0.269
1748366896008816401,-0.269
1748366896016502686,-0.267
1748366896024188971,-0.262
1748366896031875256,-0.262
1748366896039561541,-0.264
1748366896047247826,-0.259
1748366896054934111,-0.254
1748366896062620396,-0.252
1748366896070306681,-0.249
1748366896077992966,-0.247
1748366896085679251,-0.252
1748366896093365536,-0.252
1748366896101051821,-0.247
1748366896108738162,-0.242,89,668
1748366896116424865,-0.232
1748366896124111568,-0.21
1748366896131798271,-0.188
1748366896139484974,-0.176
1748366896147171677,-0.176
1748366896154858380,-0.195
1748366896162545083,-0.22
1748366896170231786,-0.23700000000000002
1748366896177918489,-0.23500000000000001
1748366896185605192,-0.222
1748366896193291895,-0.218
1748366896200978598,-0.22
1748366896208665301,-0.215
1748366896216352004,-0.20500000000000002
1748366896224038707,-0.203
1748366896231725410,-0.22
1748366896239412113,-0.259
1748366896247098816,-0.32
1748366896254785519,-0.222
1748366896262472222,0.34
1748366896270158925,1.222
1748366896277845628,1.812
1748366896285532331,1.383
1748366896293219034,-0.019
1748366896300905737,-0.8130000000000001
1748366896308592440,-0.406
1748366896316279143,-0.149
1748366896323965846,-0.315
1748366896331652549,-0.267
1748366896339339252,-0.169
1748366896347025955,-0.213
1748366896354712658,-0.203
1748366896362399361,-0.146
1748366896370086064,-0.137
1748366896377772767,-0.124
1748366896385459470,-0.09
1748366896393146173,-0.063
1748366896400832876,-0.044
1748366896408519579,-0.012
1748366896416206282,0.017
1748366896423892985,0.051000000000000004
1748366896431579688,0.093
1748366896439266391,0.129
1748366896446953094,0.159
1748366896454639797,0.188
1748366896462326500,0.213
1748366896470013203,0.222
1748366896477699906,0.215
1748366896485386609,0.20500000000000002
1748366896493073312,0.193
1748366896500760015,0.171
1748366896508446718,0.134
1748366896516133421,0.078
1748366896523820124,-0.002
1748366896531506827,-0.093
1748366896539193530,-0.183
1748366896546880233,-0.264
1748366896554566936,-0.323
1748366896562253639,-0.36
1748366896569940342,-0.377
1748366896577627045,-0.379
1748366896585313748,-0.374
1748366896593000451,-0.367
1748366896600687154,-0.355
1748366896608373857,-0.34
1748366896616060560,-0.325
1748366896623747263,-0.313
1748366896631433966,-0.303
1748366896639120669,-0.298
1748366896646807372,-0.293
1748366896654494075,-0.289
1748366896662180778,-0.281
1748366896669867541,-0.276
1748366896677553826,-0.274
1748366896685240111,-0.271
1748366896692926396,-0.269
1748366896700612681,-0.269
1748366896708298966,-0.271
1748366896715985251,-0.271
1748366896723671536,-0.271
1748366896731357821,-0.267
1748366896739044106,-0.264
1748366896746730391,-0.264
1748366896754416676,-0.269
1748366896762102961,-0.269
1748366896769789246,-0.259
1748366896777475531,-0.242
1748366896785161816,-0.22
1748366896792848101,-0.20500000000000002
1748366896800534386,-0.193
1748366896808220671,-0.188
1748366896815906956,-0.198
1748366896823593241,-0.232
1748366896831279526,-0.254
1748366896838965811,-0.244
1748366896846652096,-0.23
1748366896854338381,-0.227
1748366896862024666,-0.222
1748366896869710951,-0.215
1748366896877397236,-0.213
1748366896885083521,-0.213
1748366896892769806,-0.225
1748366896900456091,-0.269
1748366896908142376,-0.335
1748366896915828661,-0.222
1748366896923514946,0.352
1748366896931201231,1.2590000000000001
1748366896938887516,1.925
1748366896946573801,1.5230000000000001
1748366896954260086,0.017
1748366896961946371,-0.847
1748366896969632656,-0.399
1748366896977318941,-0.117
1748366896985005226,-0.325
1748366896992691511,-0.298
1748366897000377796,-0.183
1748366897008064081,-0.225
1748366897015750366,-0.225
1748366897023436651,-0.164
1748366897031122936,-0.154
1748366897038809221,-0.14400000000000002
1748366897046495506,-0.105
1748366897054181791,-0.08
1748366897061868076,-0.061
1748366897069554361,-0.029
1748366897077240646,0.002
1748366897084926931,0.036000000000000004
1748366897092613216,0.073
1748366897100299501,0.11
1748366897107985786,0.14400000000000002
1748366897115672071,0.176
1748366897123358356,0.203
1748366897131044641,0.213
1748366897138730926,0.213
1748366897146417211,0.20500000000000002
1748366897154103496,0.193
1748366897161789781,0.17300000000000001
1748366897169476066,0.139
1748366897177162351,0.085
1748366897184848636,0.007
1748366897192534921,-0.085
1748366897200221206,-0.178
1748366897207907491,-0.259
1748366897215593776,-0.32
1748366897223280061,-0.36
1748366897230966406,-0.377,89,664
1748366897238653109,-0.384,,657
1748366897246339812,-0.379
1748366897254026515,-0.367
1748366897261713218,-0.35000000000000003
1748366897269399921,-0.34
1748366897277086624,-0.33
1748366897284773327,-0.318
1748366897292460030,-0.303
1748366897300146733,-0.293
1748366897307833436,-0.289
1748366897315520139,-0.28400000000000003
1748366897323206842,-0.279
1748366897330893545,-0.276
1748366897338580248,-0.274
1748366897346266951,-0.269
1748366897353953654,-0.269
1748366897361640357,-0.269
1748366897369327060,-0.267
1748366897377013763,-0.267
1748366897384700466,-0.267
1748366897392387169,-0.262
1748366897400073872,-0.254
1748366897407760575,-0.252
1748366897415447278,-0.254
1748366897423133981,-0.254
1748366897430820684,-0.247
1748366897438507387,-0.222
1748366897446194090,-0.198
1748366897453880793,-0.186
1748366897461567496,-0.183
1748366897469254199,-0.178
1748366897476940902,-0.191
1748366897484627605,-0.222
1748366897492314308,-0.24
1748366897500001011,-0.227
1748366897507687714,-0.22
1748366897515374417,-0.22
1748366897523061120,-0.215
1748366897530747823,-0.20500000000000002
1748366897538434526,-0.203
1748366897546121229,-0.2
1748366897553807932,-0.213
1748366897561494635,-0.254
1748366897569181338,-0.325
1748366897576868041,-0.249
1748366897584554744,0.267
1748366897592241447,1.158
1748366897599928150,1.915
1748366897607614853,1.69
1748366897615301556,0.227
1748366897622988259,-0.8250000000000001
1748366897630674962,-0.458
1748366897638361665,-0.083
1748366897646048368,-0.293
1748366897653735071,-0.311
1748366897661421774,-0.178
1748366897669108477,-0.21
1748366897676795180,-0.222
1748366897684481883,-0.161
1748366897692168586,-0.14400000000000002
1748366897699855289,-0.139
1748366897707541992,-0.1
1748366897715228695,-0.07100000000000001
1748366897722915398,-0.051000000000000004
1748366897730602101,-0.022
1748366897738288804,0.012
1748366897745975507,0.044
1748366897753662210,0.08
1748366897761348913,0.122
1748366897769035616,0.159
1748366897776722319,0.191
1748366897784409022,0.215
1748366897792095785,0.23
1748366897799782070,0.232
1748366897807468355,0.227
1748366897815154640,0.215
1748366897822840925,0.198
1748366897830527210,0.166
1748366897838213495,0.112
1748366897845899780,0.034
1748366897853586065,-0.058
1748366897861272350,-0.156
1748366897868958635,-0.242
1748366897876644920,-0.306
1748366897884331205,-0.34700000000000003
1748366897892017490,-0.369
1748366897899703775,-0.374
1748366897907390060,-0.369
1748366897915076345,-0.36
1748366897922762630,-0.34700000000000003
1748366897930448915,-0.335
1748366897938135200,-0.323
1748366897945821485,-0.308
1748366897953507770,-0.296
1748366897961194055,-0.289
1748366897968880340,-0.281
1748366897976566625,-0.274
1748366897984252910,-0.271
1748366897991939195,-0.269
1748366897999625480,-0.267
1748366898007311765,-0.262
1748366898014998050,-0.259
1748366898022684335,-0.259
1748366898030370620,-0.262
1748366898038056905,-0.259
1748366898045743190,-0.257
1748366898053429475,-0.252
1748366898061115760,-0.249
1748366898068802045,-0.249
1748366898076488330,-0.249
1748366898084174615,-0.247
1748366898091860900,-0.232
1748366898099547185,-0.20500000000000002
1748366898107233470,-0.188
1748366898114919755,-0.183
1748366898122606040,-0.176
1748366898130292325,-0.176
1748366898137978610,-0.2
1748366898145664895,-0.23
1748366898153351180,-0.23500000000000001
1748366898161037465,-0.22
1748366898168723750,-0.215
1748366898176410035,-0.213
1748366898184096320,-0.20800000000000002
1748366898191782605,-0.2
1748366898199468890,-0.195
1748366898207155175,-0.2
1748366898214841460,-0.22
1748366898222527745,-0.28400000000000003
1748366898230214030,-0.335
1748366898237900315,-0.127
1748366898245586600,0.558
1748366898253272885,1.474
1748366898260959170,1.984
1748366898268645455,1.268
1748366898276331740,-0.28600000000000003
1748366898284018025,-0.808
1748366898291704310,-0.252
1748366898299390595,-0.134
1748366898307076880,-0.338
1748366898314763165,-0.249
1748366898322449450,-0.17300000000000001
1748366898330135735,-0.225
1748366898337822020,-0.198
1748366898345508305,-0.14400000000000002
1748366898353194646,-0.14400000000000002,89,651
1748366898360881210,-0.127
1748366898368567774,-0.088
1748366898376254338,-0.066
1748366898383940902,-0.041
1748366898391627466,-0.007
1748366898399314030,0.024
1748366898407000594,0.056
1748366898414687158,0.095
1748366898422373722,0.134
1748366898430060286,0.169
1748366898437746850,0.2
1748366898445433414,0.222
1748366898453119978,0.23
1748366898460806542,0.227
1748366898468493106,0.22
1748366898476179670,0.20800000000000002
1748366898483866234,0.188
1748366898491552798,0.156
1748366898499239362,0.097
1748366898506925926,0.009000000000000001
1748366898514612490,-0.09
1748366898522299054,-0.183
1748366898529985618,-0.262
1748366898537672182,-0.32
1748366898545358746,-0.352
1748366898553045310,-0.369
1748366898560731874,-0.377
1748366898568418438,-0.367
1748366898576105002,-0.35000000000000003
1748366898583791566,-0.335
1748366898591478130,-0.32
1748366898599164694,-0.306
1748366898606851258,-0.296
1748366898614537822,-0.291
1748366898622224386,-0.28600000000000003
1748366898629910950,-0.276
1748366898637597514,-0.269
1748366898645284078,-0.269
1748366898652970642,-0.267
1748366898660657206,-0.257
1748366898668343770,-0.257
1748366898676030334,-0.262
1748366898683716898,-0.254
1748366898691403462,-0.252
1748366898699090026,-0.257
1748366898706776590,-0.252
1748366898714463154,-0.244
1748366898722149718,-0.244
1748366898729836282,-0.244
1748366898737522846,-0.244
1748366898745209410,-0.23700000000000002
1748366898752895974,-0.215
1748366898760582538,-0.188
1748366898768269102,-0.178
1748366898775955666,-0.171
1748366898783642230,-0.159
1748366898791328794,-0.166
1748366898799015358,-0.20500000000000002
1748366898806701922,-0.23
1748366898814388486,-0.222
1748366898822075050,-0.215
1748366898829761614,-0.21
1748366898837448178,-0.203
1748366898845134742,-0.198
1748366898852821306,-0.191
1748366898860507870,-0.188
1748366898868194434,-0.2
1748366898875880998,-0.23
1748366898883567562,-0.293
1748366898891254126,-0.293
1748366898898940690,0.08
1748366898906627254,0.913
1748366898914313855,1.744
1748366898922000280,1.812
1748366898929686705,0.624
1748366898937373130,-0.673
1748366898945059555,-0.619
1748366898952745980,-0.137
1748366898960432405,-0.23500000000000001
1748366898968118830,-0.308
1748366898975805255,-0.176
1748366898983491680,-0.178
1748366898991178105,-0.21
1748366898998864530,-0.154
1748366899006550955,-0.124
1748366899014237380,-0.117
1748366899021923805,-0.08
1748366899029610230,-0.053
1748366899037296655,-0.041
1748366899044983080,-0.004
1748366899052669505,0.036000000000000004
1748366899060355930,0.061
1748366899068042355,0.083
1748366899075728780,0.129
1748366899083415205,0.178
1748366899091101630,0.20500000000000002
1748366899098788055,0.23
1748366899106474480,0.249
1748366899114160905,0.252
1748366899121847330,0.242
1748366899129533755,0.23
1748366899137220180,0.21
1748366899144906605,0.183
1748366899152593030,0.139
1748366899160279455,0.07100000000000001
1748366899167965880,-0.014
1748366899175652305,-0.11
1748366899183338730,-0.21
1748366899191025155,-0.289
1748366899198711580,-0.33
1748366899206398005,-0.355
1748366899214084430,-0.364
1748366899221770855,-0.362
1748366899229457280,-0.35000000000000003
1748366899237143705,-0.338
1748366899244830130,-0.333
1748366899252516555,-0.323
1748366899260202980,-0.306
1748366899267889405,-0.293
1748366899275575830,-0.289
1748366899283262255,-0.279
1748366899290948680,-0.269
1748366899298635105,-0.264
1748366899306321530,-0.259
1748366899314007955,-0.257
1748366899321694380,-0.262
1748366899329380805,-0.262
1748366899337067230,-0.254
1748366899344753655,-0.249
1748366899352440080,-0.249
1748366899360126505,-0.254
1748366899367812930,-0.257
1748366899375499355,-0.249
1748366899383185780,-0.244
1748366899390872205,-0.242
1748366899398558630,-0.23700000000000002
1748366899406245055,-0.215
1748366899413931480,-0.191
1748366899421617905,-0.186
1748366899429304330,-0.178
1748366899436990755,-0.169
1748366899444677180,-0.188
1748366899452363605,-0.225
1748366899460050030,-0.242
1748366899467736455,-0.227
1748366899475422886,-0.213,90,661
1748366899483109171,-0.20800000000000002,,662
1748366899490795456,-0.20800000000000002
1748366899498481741,-0.20800000000000002
1748366899506168026,-0.203
1748366899513854311,-0.198
1748366899521540596,-0.21
1748366899529226881,-0.247
1748366899536913166,-0.313
1748366899544599451,-0.267
1748366899552285736,0.20500000000000002
1748366899559972021,1.08
1748366899567658306,1.812
1748366899575344591,1.6260000000000001
1748366899583030876,0.28400000000000003
1748366899590717161,-0.781
1748366899598403446,-0.507
1748366899606089731,-0.124
1748366899613776016,-0.281
1748366899621462301,-0.289
1748366899629148586,-0.169
1748366899636834871,-0.2
1748366899644521156,-0.20800000000000002
1748366899652207441,-0.146
1748366899659893726,-0.132
1748366899667580011,-0.127
1748366899675266296,-0.093
1748366899682952581,-0.063
1748366899690638866,-0.041
1748366899698325151,-0.014
1748366899706011436,0.019
1748366899713697721,0.053
1748366899721384006,0.09
1748366899729070291,0.127
1748366899736756576,0.161
1748366899744442861,0.193
1748366899752129146,0.218
1748366899759815431,0.222
1748366899767501716,0.222
1748366899775188001,0.22
1748366899782874286,0.20500000000000002
1748366899790560571,0.181
1748366899798246856,0.149
1748366899805933141,0.093
1748366899813619426,0.014
1748366899821305711,-0.075
1748366899828991996,-0.164
1748366899836678281,-0.247
1748366899844364566,-0.311
1748366899852050851,-0.34700000000000003
1748366899859737136,-0.369
1748366899867423421,-0.379
1748366899875109706,-0.379
1748366899882795991,-0.364
1748366899890482276,-0.35000000000000003
1748366899898168561,-0.342
1748366899905854846,-0.33
1748366899913541131,-0.313
1748366899921227416,-0.303
1748366899928913701,-0.298
1748366899936599986,-0.293
1748366899944286271,-0.28400000000000003
1748366899951972556,-0.276
1748366899959658841,-0.271
1748366899967345126,-0.269
1748366899975031411,-0.271
1748366899982717696,-0.274
1748366899990403981,-0.269
1748366899998090266,-0.267
1748366900005776551,-0.267
1748366900013462836,-0.267
1748366900021149121,-0.264
1748366900028835406,-0.262
1748366900036521747,-0.259,90,658
1748366900044208450,-0.257
1748366900051895153,-0.259
1748366900059581856,-0.259
1748366900067268559,-0.247
1748366900074955262,-0.222
1748366900082641965,-0.203
1748366900090328668,-0.195
1748366900098015371,-0.188
1748366900105702074,-0.188
1748366900113388777,-0.213
1748366900121075480,-0.242
1748366900128762183,-0.247
1748366900136448886,-0.23500000000000001
1748366900144135589,-0.227
1748366900151822292,-0.227
1748366900159508995,-0.225
1748366900167195698,-0.218
1748366900174882401,-0.21
1748366900182569104,-0.215
1748366900190255807,-0.23500000000000001
1748366900197942510,-0.28400000000000003
1748366900205629213,-0.35000000000000003
1748366900213315916,-0.22
1748366900221002619,0.391
1748366900228689322,1.317
1748366900236376025,1.959
1748366900244062728,1.464
1748366900251749431,-0.078
1748366900259436134,-0.845
1748366900267122837,-0.357
1748366900274809540,-0.127
1748366900282496243,-0.335
1748366900290182946,-0.281
1748366900297869649,-0.183
1748366900305556352,-0.23500000000000001
1748366900313243055,-0.22
1748366900320929758,-0.159
1748366900328616461,-0.151
1748366900336303164,-0.14200000000000002
1748366900343989867,-0.10200000000000001
1748366900351676570,-0.075
1748366900359363273,-0.056
1748366900367049976,-0.024
1748366900374736679,0.009000000000000001
1748366900382423382,0.041
1748366900390110085,0.075
1748366900397796788,0.115
1748366900405483491,0.149
1748366900413170194,0.178
1748366900420856897,0.2
1748366900428543600,0.215
1748366900436230303,0.218
1748366900443917006,0.20800000000000002
1748366900451603709,0.191
1748366900459290412,0.17300000000000001
1748366900466977115,0.14400000000000002
1748366900474663818,0.088
1748366900482350521,0.004
1748366900490037224,-0.09
1748366900497723927,-0.186
1748366900505410630,-0.269
1748366900513097333,-0.328
1748366900520784036,-0.362
1748366900528470739,-0.379
1748366900536157442,-0.384
1748366900543844145,-0.382
1748366900551530848,-0.367
1748366900559217551,-0.352
1748366900566904254,-0.342
1748366900574590957,-0.33
1748366900582277660,-0.313
1748366900589964363,-0.301
1748366900597651130,-0.296
1748366900605337415,-0.293
1748366900613023700,-0.28600000000000003
1748366900620709985,-0.279
1748366900628396270,-0.276
1748366900636082555,-0.279
1748366900643768840,-0.276
1748366900651455125,-0.269
1748366900659141410,-0.269
1748366900666827695,-0.269
1748366900674513980,-0.269
1748366900682200265,-0.267
1748366900689886550,-0.267
1748366900697572835,-0.264
1748366900705259120,-0.259
1748366900712945405,-0.257
1748366900720631690,-0.249
1748366900728317975,-0.247
1748366900736004260,-0.249
1748366900743690545,-0.249
1748366900751376830,-0.23500000000000001
1748366900759063115,-0.20500000000000002
1748366900766749400,-0.183
1748366900774435685,-0.178
1748366900782121970,-0.17300000000000001
1748366900789808255,-0.171
1748366900797494540,-0.193
1748366900805180825,-0.225
1748366900812867110,-0.23500000000000001
1748366900820553395,-0.222
1748366900828239680,-0.215
1748366900835925965,-0.21
1748366900843612250,-0.20800000000000002
1748366900851298535,-0.20500000000000002
1748366900858984820,-0.2
1748366900866671105,-0.195
1748366900874357390,-0.20800000000000002
1748366900882043675,-0.257
1748366900889729960,-0.335
1748366900897416245,-0.274
1748366900905102530,0.227
1748366900912788815,1.109
1748366900920475100,1.8880000000000001
1748366900928161385,1.736
1748366900935847670,0.313
1748366900943533955,-0.803
1748366900951220240,-0.485
1748366900958906525,-0.088
1748366900966592810,-0.281
1748366900974279095,-0.306
1748366900981965380,-0.17300000000000001
1748366900989651665,-0.20500000000000002
1748366900997337950,-0.222
1748366901005024235,-0.156
1748366901012710520,-0.137
1748366901020396805,-0.134
1748366901028083090,-0.1
1748366901035769375,-0.07100000000000001
1748366901043455660,-0.051000000000000004
1748366901051141945,-0.019
1748366901058828230,0.014
1748366901066514515,0.048
1748366901074200800,0.085
1748366901081887085,0.12
1748366901089573370,0.154
1748366901097259655,0.188
1748366901104945940,0.218
1748366901112632225,0.232
1748366901120318510,0.23500000000000001
1748366901128004795,0.23
1748366901135691080,0.218
1748366901143377365,0.198
1748366901151063650,0.171
1748366901158749991,0.12,90,658
1748366901166436485,0.046,,651
1748366901174122979,-0.044
1748366901181809473,-0.139
1748366901189495967,-0.225
1748366901197182461,-0.293
1748366901204868955,-0.34
1748366901212555449,-0.367
1748366901220241943,-0.374
1748366901227928437,-0.372
1748366901235614931,-0.362
1748366901243301425,-0.35000000000000003
1748366901250987919,-0.338
1748366901258674413,-0.32
1748366901266360907,-0.311
1748366901274047401,-0.301
1748366901281733895,-0.291
1748366901289420389,-0.28600000000000003
1748366901297106883,-0.281
1748366901304793377,-0.276
1748366901312479871,-0.274
1748366901320166365,-0.269
1748366901327852859,-0.267
1748366901335539353,-0.267
1748366901343225847,-0.264
1748366901350912341,-0.264
1748366901358598835,-0.262
1748366901366285329,-0.259
1748366901373971823,-0.259
1748366901381658317,-0.259
1748366901389344811,-0.257
1748366901397031305,-0.254
1748366901404717799,-0.249
1748366901412404293,-0.242
1748366901420090787,-0.23700000000000002
1748366901427777281,-0.23700000000000002
1748366901435463775,-0.23700000000000002
1748366901443150269,-0.232
1748366901450836763,-0.213
1748366901458523257,-0.186
1748366901466209751,-0.171
1748366901473896245,-0.166
1748366901481582739,-0.161
1748366901489269233,-0.169
1748366901496955727,-0.195
1748366901504642221,-0.222
1748366901512328715,-0.22
1748366901520015209,-0.20800000000000002
1748366901527701703,-0.20800000000000002
1748366901535388197,-0.20500000000000002
1748366901543074691,-0.198
1748366901550761185,-0.193
1748366901558447679,-0.188
1748366901566134173,-0.193
1748366901573820667,-0.215
1748366901581507161,-0.279
1748366901589193655,-0.338
1748366901596880149,-0.14200000000000002
1748366901604566643,0.524
1748366901612253137,1.43
1748366901619939631,1.971
1748366901627626125,1.31
1748366901635312619,-0.24
1748366901642999113,-0.808
1748366901650685607,-0.264
1748366901658372101,-0.129
1748366901666058595,-0.335
1748366901673745089,-0.254
1748366901681431583,-0.171
1748366901689118077,-0.225
1748366901696804571,-0.203
1748366901704491065,-0.146
1748366901712177559,-0.14400000000000002
1748366901719864113,-0.129
1748366901727550607,-0.09
1748366901735237101,-0.068
1748366901742923595,-0.046
1748366901750610089,-0.012
1748366901758296583,0.019
1748366901765983077,0.051000000000000004
1748366901773669571,0.088
1748366901781356065,0.122
1748366901789042559,0.156
1748366901796729053,0.188
1748366901804415547,0.21
1748366901812102041,0.22
1748366901819788535,0.222
1748366901827475029,0.215
1748366901835161523,0.2
1748366901842848017,0.181
1748366901850534511,0.149
1748366901858221005,0.093
1748366901865907499,0.014
1748366901873593993,-0.078
1748366901881280487,-0.171
1748366901888966981,-0.257
1748366901896653475,-0.318
1748366901904339969,-0.357
1748366901912026463,-0.374
1748366901919712957,-0.379
1748366901927399451,-0.374
1748366901935085945,-0.364
1748366901942772439,-0.35000000000000003
1748366901950458933,-0.338
1748366901958145427,-0.325
1748366901965831921,-0.313
1748366901973518415,-0.301
1748366901981204909,-0.293
1748366901988891403,-0.289
1748366901996577897,-0.28400000000000003
1748366902004264391,-0.279
1748366902011950885,-0.276
1748366902019637379,-0.276
1748366902027323873,-0.276
1748366902035010367,-0.274
1748366902042696861,-0.271
1748366902050383355,-0.269
1748366902058069849,-0.267
1748366902065756343,-0.264
1748366902073442837,-0.262
1748366902081129331,-0.259
1748366902088815825,-0.257
1748366902096502319,-0.252
1748366902104188813,-0.244
1748366902111875307,-0.242
1748366902119561801,-0.24
1748366902127248295,-0.24
1748366902134934789,-0.23700000000000002
1748366902142621283,-0.218
1748366902150307777,-0.191
1748366902157994271,-0.17300000000000001
1748366902165680765,-0.171
1748366902173367259,-0.166
1748366902181053753,-0.171
1748366902188740247,-0.203
1748366902196426741,-0.23
1748366902204113235,-0.222
1748366902211799729,-0.21
1748366902219486223,-0.21
1748366902227172717,-0.20800000000000002
1748366902234859211,-0.2
1748366902242545705,-0.195
1748366902250232199,-0.193
1748366902257918693,-0.198
1748366902265605187,-0.22
1748366902273291681,-0.28400000000000003
1748366902280978231,-0.34,91,667
1748366902288664516,-0.137
1748366902296350801,0.538
1748366902304037086,1.442
1748366902311723371,1.949
1748366902319409656,1.244
1748366902327095941,-0.296
1748366902334782226,-0.803
1748366902342468511,-0.254
1748366902350154796,-0.146
1748366902357841081,-0.34
1748366902365527366,-0.252
1748366902373213651,-0.178
1748366902380899936,-0.23
1748366902388586221,-0.20500000000000002
1748366902396272506,-0.151
1748366902403958791,-0.149
1748366902411645076,-0.134
1748366902419331361,-0.095
1748366902427017646,-0.073
1748366902434703931,-0.051000000000000004
1748366902442390216,-0.017
1748366902450076501,0.017
1748366902457762786,0.046
1748366902465449071,0.083
1748366902473135356,0.124
1748366902480821641,0.156
1748366902488507926,0.181
1748366902496194211,0.20500000000000002
1748366902503880496,0.225
1748366902511566781,0.225
1748366902519253066,0.21
1748366902526939351,0.195
1748366902534625636,0.181
1748366902542311921,0.149
1748366902549998206,0.088
1748366902557684491,0.009000000000000001
1748366902565370776,-0.08
1748366902573057061,-0.17300000000000001
1748366902580743346,-0.259
1748366902588429631,-0.315
1748366902596115916,-0.35000000000000003
1748366902603802201,-0.367
1748366902611488486,-0.372
1748366902619174771,-0.369
1748366902626861056,-0.362
1748366902634547341,-0.34700000000000003
1748366902642233626,-0.33
1748366902649919911,-0.318
1748366902657606196,-0.308
1748366902665292481,-0.298
1748366902672978766,-0.291
1748366902680665051,-0.28400000000000003
1748366902688351336,-0.276
1748366902696037621,-0.274
1748366902703723906,-0.274
1748366902711410191,-0.271
1748366902719096476,-0.269
1748366902726782761,-0.267
1748366902734469046,-0.264
1748366902742155331,-0.262
1748366902749841616,-0.257
1748366902757527901,-0.257
1748366902765214186,-0.257
1748366902772900471,-0.254
1748366902780586756,-0.249
1748366902788273041,-0.242
1748366902795959326,-0.24
1748366902803645611,-0.23500000000000001
1748366902811331896,-0.232
1748366902819018181,-0.232
1748366902826704466,-0.227
1748366902834390751,-0.20800000000000002
1748366902842077092,-0.188
1748366902849763377,-0.171
1748366902857449662,-0.164
1748366902865135947,-0.154
1748366902872822232,-0.154
1748366902880508517,-0.181
1748366902888194802,-0.218
1748366902895881087,-0.222
1748366902903567372,-0.203
1748366902911253657,-0.195
1748366902918939942,-0.198
1748366902926626227,-0.193
1748366902934312512,-0.191
1748366902941998797,-0.188
1748366902949685082,-0.186
1748366902957371367,-0.2
1748366902965057652,-0.249
1748366902972743937,-0.313
1748366902980430222,-0.193
1748366902988116507,0.396
1748366902995802792,1.293
1748366903003489077,1.9080000000000001
1748366903011175362,1.44
1748366903018861647,-0.039
1748366903026547932,-0.803
1748366903034234217,-0.35000000000000003
1748366903041920502,-0.115
1748366903049606787,-0.298
1748366903057293072,-0.247
1748366903064979357,-0.156
1748366903072665642,-0.198
1748366903080351927,-0.181
1748366903088038212,-0.132
1748366903095724497,-0.124
1748366903103410782,-0.105
1748366903111097067,-0.07100000000000001
1748366903118783352,-0.048
1748366903126469637,-0.024
1748366903134155922,0.007
1748366903141842207,0.036000000000000004
1748366903149528492,0.068
1748366903157214777,0.112
1748366903164901062,0.146
1748366903172587347,0.171
1748366903180273632,0.20500000000000002
1748366903187959917,0.23500000000000001
1748366903195646202,0.244
1748366903203332487,0.252
1748366903211018772,0.247
1748366903218705057,0.225
1748366903226391342,0.20500000000000002
1748366903234077627,0.17300000000000001
1748366903241763912,0.12
1748366903249450197,0.044
1748366903257136482,-0.048
1748366903264822767,-0.14400000000000002
1748366903272509052,-0.225
1748366903280195337,-0.289
1748366903287881622,-0.338
1748366903295567907,-0.36
1748366903303254192,-0.362
1748366903310940477,-0.367
1748366903318626762,-0.364
1748366903326313047,-0.35000000000000003
1748366903333999332,-0.333
1748366903341685617,-0.325
1748366903349371902,-0.311
1748366903357058187,-0.293
1748366903364744472,-0.281
1748366903372430757,-0.279
1748366903380117042,-0.281
1748366903387803327,-0.274
1748366903395489612,-0.259
1748366903403175953,-0.259,90,686
1748366903410862308,-0.269,,696
1748366903418548663,-0.269
1748366903426235018,-0.259
1748366903433921373,-0.249
1748366903441607728,-0.257
1748366903449294083,-0.259
1748366903456980438,-0.249
1748366903464666793,-0.247
1748366903472353148,-0.247
1748366903480039503,-0.242
1748366903487725858,-0.24
1748366903495412213,-0.23700000000000002
1748366903503098568,-0.23500000000000001
1748366903510784923,-0.23
1748366903518471278,-0.213
1748366903526157633,-0.188
1748366903533843988,-0.169
1748366903541530343,-0.156
1748366903549216698,-0.161
1748366903556903053,-0.17300000000000001
1748366903564589408,-0.20500000000000002
1748366903572275763,-0.23
1748366903579962118,-0.22
1748366903587648473,-0.20500000000000002
1748366903595334828,-0.20500000000000002
1748366903603021183,-0.20500000000000002
1748366903610707538,-0.2
1748366903618393893,-0.191
1748366903626080248,-0.178
1748366903633766603,-0.186
1748366903641452958,-0.227
1748366903649139313,-0.293
1748366903656825668,-0.301
1748366903664512023,0.058
1748366903672198378,0.886
1748366903679884733,1.699
1748366903687571088,1.744
1748366903695257443,0.585
1748366903702943798,-0.661
1748366903710630153,-0.602
1748366903718316508,-0.139
1748366903726002863,-0.23700000000000002
1748366903733689218,-0.296
1748366903741375573,-0.164
1748366903749061928,-0.171
1748366903756748283,-0.198
1748366903764434638,-0.139
1748366903772120993,-0.112
1748366903779807348,-0.112
1748366903787493703,-0.08
1748366903795180058,-0.051000000000000004
1748366903802866413,-0.029
1748366903810552768,0.009000000000000001
1748366903818239123,0.041
1748366903825925478,0.07100000000000001
1748366903833611833,0.107
1748366903841298188,0.14200000000000002
1748366903848984543,0.171
1748366903856670898,0.213
1748366903864357253,0.249
1748366903872043608,0.267
1748366903879729963,0.269
1748366903887416318,0.264
1748366903895102673,0.242
1748366903902789028,0.225
1748366903910475383,0.20800000000000002
1748366903918161738,0.159
1748366903925848093,0.083
1748366903933534448,-0.012
1748366903941220803,-0.112
1748366903948907158,-0.203
1748366903956593513,-0.281
1748366903964279905,-0.338,90,691
1748366903971966539,-0.362
1748366903979653173,-0.367
1748366903987339807,-0.374
1748366903995026441,-0.369
1748366904002713075,-0.352
1748366904010399709,-0.34500000000000003
1748366904018086343,-0.34
1748366904025772977,-0.323
1748366904033459611,-0.301
1748366904041146245,-0.291
1748366904048832879,-0.28400000000000003
1748366904056519513,-0.274
1748366904064206147,-0.274
1748366904071892781,-0.271
1748366904079579415,-0.267
1748366904087266049,-0.262
1748366904094952683,-0.259
1748366904102639317,-0.252
1748366904110325951,-0.252
1748366904118012585,-0.259
1748366904125699219,-0.259
1748366904133385853,-0.249
1748366904141072487,-0.242
1748366904148759121,-0.24
1748366904156445755,-0.247
1748366904164132389,-0.247
1748366904171819023,-0.23
1748366904179505657,-0.22
1748366904187192291,-0.222
1748366904194878925,-0.2
1748366904202565559,-0.169
1748366904210252193,-0.156
1748366904217938827,-0.161
1748366904225625461,-0.17300000000000001
1748366904233312095,-0.198
1748366904240998729,-0.218
1748366904248685363,-0.22
1748366904256371997,-0.22
1748366904264058631,-0.215
1748366904271745265,-0.20800000000000002
1748366904279431899,-0.203
1748366904287118533,-0.2
1748366904294805167,-0.193
1748366904302491801,-0.193
1748366904310178435,-0.215
1748366904317865069,-0.276
1748366904325551703,-0.313
1748366904333238337,-0.046
1748366904340924971,0.712
1748366904348611605,1.543
1748366904356298239,1.734
1748366904363984873,0.808
1748366904371671507,-0.492
1748366904379358141,-0.68
1748366904387044775,-0.20800000000000002
1748366904394731409,-0.21
1748366904402418043,-0.303
1748366904410104677,-0.181
1748366904417791311,-0.161
1748366904425477945,-0.2
1748366904433164579,-0.159
1748366904440851213,-0.127
1748366904448537847,-0.124
1748366904456224481,-0.095
1748366904463911115,-0.061
1748366904471597749,-0.041
1748366904479284383,-0.012
1748366904486971017,0.017
1748366904494657651,0.041
1748366904502344285,0.075
1748366904510030919,0.117
1748366904517717553,0.154
1748366904525404197,0.186
1748366904533090482,0.21
1748366904540776767,0.23
1748366904548463052,0.24
1748366904556149337,0.232
1748366904563835622,0.218
1748366904571521907,0.2
1748366904579208192,0.171
1748366904586894477,0.122
1748366904594580762,0.061
1748366904602267047,-0.022
1748366904609953332,-0.122
1748366904617639617,-0.215
1748366904625325902,-0.28600000000000003
1748366904633012187,-0.34
1748366904640698472,-0.377
1748366904648384757,-0.389
1748366904656071042,-0.387
1748366904663757327,-0.384
1748366904671443612,-0.374
1748366904679129897,-0.36
1748366904686816182,-0.34700000000000003
1748366904694502467,-0.335
1748366904702188752,-0.323
1748366904709875037,-0.311
1748366904717561322,-0.301
1748366904725247607,-0.296
1748366904732933892,-0.293
1748366904740620177,-0.28600000000000003
1748366904748306462,-0.279
1748366904755992747,-0.276
1748366904763679032,-0.276
1748366904771365317,-0.276
1748366904779051602,-0.276
1748366904786737887,-0.276
1748366904794424172,-0.274
1748366904802110457,-0.269
1748366904809796742,-0.269
1748366904817483027,-0.269
1748366904825169312,-0.262
1748366904832855597,-0.257
1748366904840541882,-0.259
1748366904848228167,-0.264
1748366904855914452,-0.262
1748366904863600737,-0.244
1748366904871287022,-0.218
1748366904878973307,-0.198
1748366904886659592,-0.193
1748366904894345877,-0.188
1748366904902032162,-0.186
1748366904909718447,-0.21
1748366904917404732,-0.242
1748366904925091017,-0.249
1748366904932777302,-0.23500000000000001
1748366904940463587,-0.23
1748366904948149872,-0.227
1748366904955836157,-0.222
1748366904963522442,-0.218
1748366904971208727,-0.215
1748366904978895012,-0.22
1748366904986581297,-0.244
1748366904994267582,-0.308
1748366905001953867,-0.34500000000000003
1748366905009640152,-0.075
1748366905017326437,0.668
1748366905025012722,1.555
1748366905032699007,1.9080000000000001
1748366905040385292,1.0090000000000001
1748366905048071577,-0.485
1748366905055757862,-0.776
1748366905063444147,-0.20800000000000002
1748366905071130432,-0.183
1748366905078816717,-0.357
1748366905086503058,-0.247,89,693
1748366905094189343,-0.195,,680
1748366905101875628,-0.247
1748366905109561913,-0.21
1748366905117248198,-0.161
1748366905124934483,-0.164
1748366905132620768,-0.14200000000000002
1748366905140307053,-0.105
1748366905147993338,-0.085
1748366905155679623,-0.063
1748366905163365908,-0.029
1748366905171052193,0.002
1748366905178738478,0.031
1748366905186424763,0.068
1748366905194111048,0.107
1748366905201797333,0.14200000000000002
1748366905209483618,0.171
1748366905217169903,0.191
1748366905224856188,0.203
1748366905232542473,0.203
1748366905240228758,0.195
1748366905247915043,0.181
1748366905255601328,0.159
1748366905263287613,0.12
1748366905270973898,0.056
1748366905278660183,-0.029
1748366905286346468,-0.124
1748366905294032753,-0.215
1748366905301719038,-0.293
1748366905309405323,-0.35000000000000003
1748366905317091608,-0.382
1748366905324777893,-0.394
1748366905332464178,-0.396
1748366905340150463,-0.389
1748366905347836748,-0.379
1748366905355523033,-0.367
1748366905363209318,-0.355
1748366905370895603,-0.342
1748366905378581888,-0.328
1748366905386268173,-0.315
1748366905393954458,-0.308
1748366905401640743,-0.301
1748366905409327028,-0.293
1748366905417013313,-0.291
1748366905424699598,-0.289
1748366905432385883,-0.289
1748366905440072168,-0.289
1748366905447758453,-0.28600000000000003
1748366905455444738,-0.28400000000000003
1748366905463131023,-0.28400000000000003
1748366905470817308,-0.281
1748366905478503593,-0.276
1748366905486189878,-0.274
1748366905493876163,-0.271
1748366905501562448,-0.267
1748366905509248733,-0.264
1748366905516935018,-0.267
1748366905524621303,-0.264
1748366905532307588,-0.247
1748366905539993873,-0.218
1748366905547680158,-0.2
1748366905555366443,-0.195
1748366905563052728,-0.188
1748366905570739013,-0.188
1748366905578425298,-0.213
1748366905586111583,-0.244
1748366905593797868,-0.247
1748366905601484153,-0.23500000000000001
1748366905609170438,-0.23
1748366905616856723,-0.227
1748366905624543008,-0.222
1748366905632229293,-0.218
1748366905639915578,-0.215
1748366905647601919,-0.215
1748366905655288204,-0.23700000000000002
1748366905662974489,-0.303
1748366905670660774,-0.355
1748366905678347059,-0.124
1748366905686033344,0.585
1748366905693719629,1.504
1748366905701405914,1.976
1748366905709092199,1.195
1748366905716778484,-0.36
1748366905724464769,-0.81
1748366905732151054,-0.244
1748366905739837339,-0.159
1748366905747523624,-0.357
1748366905755209909,-0.264
1748366905762896194,-0.195
1748366905770582479,-0.249
1748366905778268764,-0.22
1748366905785955049,-0.166
1748366905793641334,-0.164
1748366905801327619,-0.14400000000000002
1748366905809013904,-0.107
1748366905816700189,-0.088
1748366905824386474,-0.058
1748366905832072759,-0.022
1748366905839759044,0.007
1748366905847445329,0.039
1748366905855131614,0.078
1748366905862817899,0.12
1748366905870504184,0.156
1748366905878190469,0.188
1748366905885876754,0.215
1748366905893563039,0.227
1748366905901249324,0.23
1748366905908935609,0.22
1748366905916621894,0.21
1748366905924308179,0.198
1748366905931994464,0.159
1748366905939680749,0.083
1748366905947367034,-0.004
1748366905955053319,-0.095
1748366905962739604,-0.193
1748366905970425889,-0.281
1748366905978112174,-0.338
1748366905985798459,-0.372
1748366905993484744,-0.387
1748366906001171029,-0.389
1748366906008857314,-0.389
1748366906016543599,-0.382
1748366906024229884,-0.364
1748366906031916169,-0.34500000000000003
1748366906039602454,-0.328
1748366906047288739,-0.315
1748366906054975024,-0.311
1748366906062661309,-0.303
1748366906070347594,-0.291
1748366906078033879,-0.28600000000000003
1748366906085720164,-0.291
1748366906093406449,-0.291
1748366906101092734,-0.274
1748366906108779019,-0.264
1748366906116465304,-0.276
1748366906124151589,-0.276
1748366906131837874,-0.264
1748366906139524159,-0.259
1748366906147210444,-0.262
1748366906154896729,-0.259
1748366906162583014,-0.254
1748366906170269299,-0.252
1748366906177955584,-0.254
1748366906185641869,-0.244
1748366906193328154,-0.22
1748366906201014439,-0.20500000000000002
1748366906208700780,-0.198,89,670
1748366906216387065,-0.181
1748366906224073350,-0.17300000000000001
1748366906231759635,-0.186
1748366906239445920,-0.21
1748366906247132205,-0.227
1748366906254818490,-0.227
1748366906262504775,-0.218
1748366906270191060,-0.215
1748366906277877345,-0.215
1748366906285563630,-0.213
1748366906293249915,-0.20500000000000002
1748366906300936200,-0.193
1748366906308622485,-0.198
1748366906316308770,-0.225
1748366906323995055,-0.28400000000000003
1748366906331681340,-0.318
1748366906339367625,-0.053
1748366906347053910,0.7000000000000001
1748366906354740195,1.577
1748366906362426480,1.866
1748366906370112765,0.9400000000000001
1748366906377799050,-0.48
1748366906385485335,-0.729
1748366906393171620,-0.2
1748366906400857905,-0.178
1748366906408544190,-0.32
1748366906416230475,-0.218
1748366906423916760,-0.176
1748366906431603045,-0.20800000000000002
1748366906439289330,-0.164
1748366906446975615,-0.122
1748366906454661900,-0.122
1748366906462348185,-0.10200000000000001
1748366906470034470,-0.073
1748366906477720755,-0.048
1748366906485407040,-0.014
1748366906493093325,0.024
1748366906500779610,0.051000000000000004
1748366906508465895,0.085
1748366906516152180,0.129
1748366906523838465,0.169
1748366906531524750,0.203
1748366906539211035,0.23700000000000002
1748366906546897320,0.254
1748366906554583605,0.259
1748366906562269890,0.264
1748366906569956175,0.259
1748366906577642460,0.24
1748366906585328745,0.21
1748366906593015030,0.161
1748366906600701315,0.09
1748366906608387600,0.002
1748366906616073885,-0.093
1748366906623760170,-0.186
1748366906631446455,-0.274
1748366906639132740,-0.333
1748366906646819025,-0.367
1748366906654505310,-0.377
1748366906662191595,-0.374
1748366906669877880,-0.369
1748366906677564165,-0.364
1748366906685250450,-0.35000000000000003
1748366906692936735,-0.333
1748366906700623020,-0.32
1748366906708309305,-0.313
1748366906715995590,-0.298
1748366906723681875,-0.28400000000000003
1748366906731368160,-0.279
1748366906739054445,-0.279
1748366906746740730,-0.274
1748366906754427015,-0.269
1748366906762113300,-0.271
1748366906769799641,-0.269
1748366906777485926,-0.259
1748366906785172211,-0.259
1748366906792858496,-0.259
1748366906800544781,-0.252
1748366906808231066,-0.254
1748366906815917351,-0.259
1748366906823603636,-0.257
1748366906831289921,-0.257
1748366906838976206,-0.257
1748366906846662491,-0.23500000000000001
1748366906854348776,-0.20800000000000002
1748366906862035061,-0.2
1748366906869721346,-0.195
1748366906877407631,-0.183
1748366906885093916,-0.188
1748366906892780201,-0.218
1748366906900466486,-0.23700000000000002
1748366906908152771,-0.232
1748366906915839056,-0.222
1748366906923525341,-0.22
1748366906931211626,-0.215
1748366906938897911,-0.20500000000000002
1748366906946584196,-0.203
1748366906954270481,-0.20800000000000002
1748366906961956766,-0.215
1748366906969643051,-0.24
1748366906977329336,-0.301
1748366906985015621,-0.267
1748366906992701906,0.171
1748366907000388191,0.999
1748366907008074476,1.641
1748366907015760761,1.452
1748366907023447046,0.28400000000000003
1748366907031133331,-0.71
1748366907038819616,-0.529
1748366907046505901,-0.154
1748366907054192186,-0.257
1748366907061878471,-0.262
1748366907069564756,-0.146
1748366907077251041,-0.166
1748366907084937326,-0.17300000000000001
1748366907092623611,-0.122
1748366907100309896,-0.117
1748366907107996181,-0.105
1748366907115682466,-0.056
1748366907123368751,-0.029
1748366907131055036,-0.017
1748366907138741321,0.017
1748366907146427606,0.058
1748366907154113891,0.085
1748366907161800176,0.117
1748366907169486461,0.159
1748366907177172746,0.2
1748366907184859031,0.23500000000000001
1748366907192545316,0.257
1748366907200231601,0.279
1748366907207917886,0.279
1748366907215604171,0.262
1748366907223290456,0.252
1748366907230976741,0.232
1748366907238663026,0.188
1748366907246349311,0.129
1748366907254035596,0.051000000000000004
1748366907261721881,-0.046
1748366907269408166,-0.137
1748366907277094451,-0.222
1748366907284780736,-0.301
1748366907292467021,-0.357
1748366907300153306,-0.372
1748366907307839591,-0.357
1748366907315525876,-0.36
1748366907323212161,-0.374
1748366907330898506,-0.357,89,677
1748366907338584791,-0.33,,670
1748366907346271076,-0.328
1748366907353957361,-0.315
1748366907361643646,-0.293
1748366907369329931,-0.28400000000000003
1748366907377016216,-0.276
1748366907384702501,-0.271
1748366907392388786,-0.271
1748366907400075071,-0.271
1748366907407761356,-0.259
1748366907415447641,-0.252
1748366907423133926,-0.254
1748366907430820211,-0.259
1748366907438506496,-0.267
1748366907446192781,-0.264
1748366907453879066,-0.257
1748366907461565351,-0.252
1748366907469251636,-0.257
1748366907476937921,-0.259
1748366907484624206,-0.247
1748366907492310491,-0.244
1748366907499996776,-0.23700000000000002
1748366907507683061,-0.20500000000000002
1748366907515369346,-0.186
1748366907523055631,-0.195
1748366907530741916,-0.215
1748366907538428201,-0.23
1748366907546114486,-0.24
1748366907553800771,-0.244
1748366907561487056,-0.23500000000000001
1748366907569173341,-0.222
1748366907576859626,-0.218
1748366907584545911,-0.21
1748366907592232196,-0.203
1748366907599918481,-0.21
1748366907607604766,-0.24
1748366907615291051,-0.298
1748366907622977336,-0.281
1748366907630663621,0.107
1748366907638349906,0.889
1748366907646036191,1.484
1748366907653722476,1.327
1748366907661408761,0.335
1748366907669095046,-0.617
1748366907676781331,-0.5630000000000001
1748366907684467616,-0.203
1748366907692153901,-0.252
1748366907699840186,-0.257
1748366907707526471,-0.149
1748366907715212756,-0.17300000000000001
1748366907722899041,-0.195
1748366907730585326,-0.139
1748366907738271611,-0.107
1748366907745957896,-0.097
1748366907753644181,-0.075
1748366907761330466,-0.053
1748366907769016751,-0.026000000000000002
1748366907776703036,0.007
1748366907784389321,0.039
1748366907792075606,0.066
1748366907799761891,0.1
1748366907807448176,0.14400000000000002
1748366907815134461,0.178
1748366907822820746,0.20500000000000002
1748366907830507031,0.232
1748366907838193316,0.254
1748366907845879601,0.244
1748366907853565886,0.22
1748366907861252171,0.20800000000000002
1748366907868938456,0.193
1748366907876624741,0.156
1748366907884311026,0.095
1748366907891997367,0.017
1748366907899683652,-0.068
1748366907907369937,-0.159
1748366907915056222,-0.252
1748366907922742507,-0.318
1748366907930428792,-0.355
1748366907938115077,-0.382
1748366907945801362,-0.396
1748366907953487647,-0.387
1748366907961173932,-0.374
1748366907968860217,-0.372
1748366907976546502,-0.357
1748366907984232787,-0.34
1748366907991919072,-0.333
1748366907999605357,-0.323
1748366908007291642,-0.308
1748366908014977927,-0.298
1748366908022664212,-0.293
1748366908030350497,-0.281
1748366908038036782,-0.276
1748366908045723067,-0.276
1748366908053409352,-0.271
1748366908061095637,-0.264
1748366908068781922,-0.262
1748366908076468207,-0.264
1748366908084154492,-0.267
1748366908091840777,-0.262
1748366908099527062,-0.259
1748366908107213347,-0.267
1748366908114899632,-0.271
1748366908122585917,-0.264
1748366908130272202,-0.254
1748366908137958487,-0.24
1748366908145644772,-0.23
1748366908153331057,-0.225
1748366908161017342,-0.20500000000000002
1748366908168703627,-0.193
1748366908176389912,-0.22
1748366908184076197,-0.252
1748366908191762482,-0.247
1748366908199448767,-0.24
1748366908207135052,-0.24
1748366908214821337,-0.23
1748366908222507622,-0.218
1748366908230193907,-0.218
1748366908237880192,-0.22
1748366908245566477,-0.225
1748366908253252762,-0.257
1748366908260939047,-0.311
1748366908268625332,-0.193
1748366908276311617,0.362
1748366908283997902,1.141
1748366908291684187,1.592
1748366908299370472,1.205
1748366908307056757,-0.017
1748366908314743042,-0.783
1748366908322429327,-0.445
1748366908330115612,-0.159
1748366908337801897,-0.291
1748366908345488182,-0.269
1748366908353174467,-0.181
1748366908360860752,-0.213
1748366908368547037,-0.203
1748366908376233322,-0.154
1748366908383919607,-0.14400000000000002
1748366908391605892,-0.134
1748366908399292177,-0.097
1748366908406978462,-0.075
1748366908414664747,-0.058
1748366908422351032,-0.026000000000000002
1748366908430037317,0.002
1748366908437723602,0.034
1748366908445409887,0.07100000000000001
1748366908453096228,0.105,89,660
1748366908460782513,0.139
1748366908468468798,0.169
1748366908476155083,0.181
1748366908483841368,0.193
1748366908491527653,0.198
1748366908499213938,0.186
1748366908506900223,0.169
1748366908514586508,0.146
1748366908522272793,0.107
1748366908529959078,0.048
1748366908537645363,-0.024
1748366908545331648,-0.115
1748366908553017933,-0.20500000000000002
1748366908560704218,-0.28400000000000003
1748366908568390503,-0.34
1748366908576076788,-0.372
1748366908583763073,-0.389
1748366908591449358,-0.394
1748366908599135643,-0.384
1748366908606821928,-0.372
1748366908614508213,-0.362
1748366908622194498,-0.35000000000000003
1748366908629880783,-0.333
1748366908637567068,-0.32
1748366908645253353,-0.311
1748366908652939638,-0.298
1748366908660625923,-0.289
1748366908668312208,-0.281
1748366908675998493,-0.276
1748366908683684778,-0.274
1748366908691371063,-0.276
1748366908699057348,-0.276
1748366908706743633,-0.269
1748366908714429918,-0.267
1748366908722116203,-0.269
1748366908729802488,-0.269
1748366908737488773,-0.267
1748366908745175058,-0.264
1748366908752861343,-0.267
1748366908760547628,-0.267
1748366908768233913,-0.264
1748366908775920198,-0.267
1748366908783606483,-0.257
1748366908791292768,-0.23500000000000001
1748366908798979053,-0.222
1748366908806665338,-0.215
1748366908814351623,-0.198
1748366908822037908,-0.191
1748366908829724193,-0.21
1748366908837410478,-0.23700000000000002
1748366908845096763,-0.242
1748366908852783048,-0.23
1748366908860469333,-0.227
1748366908868155618,-0.225
1748366908875841903,-0.215
1748366908883528188,-0.21
1748366908891214473,-0.213
1748366908898900758,-0.218
1748366908906587043,-0.242
1748366908914273328,-0.306
1748366908921959613,-0.28400000000000003
1748366908929645898,0.124
1748366908937332183,0.925
1748366908945018468,1.6460000000000001
1748366908952704753,1.633
1748366908960391038,0.494
1748366908968077323,-0.6980000000000001
1748366908975763608,-0.614
1748366908983449893,-0.129
1748366908991136178,-0.23
1748366908998822463,-0.328
1748366909006508748,-0.203
1748366909014195089,-0.193,89,650
1748366909021881374,-0.227,,639
1748366909029567659,-0.176
1748366909037253944,-0.14200000000000002
1748366909044940229,-0.14400000000000002
1748366909052626514,-0.115
1748366909060312799,-0.08
1748366909067999084,-0.063
1748366909075685369,-0.039
1748366909083371654,-0.004
1748366909091057939,0.026000000000000002
1748366909098744224,0.058
1748366909106430509,0.097
1748366909114116794,0.134
1748366909121803079,0.164
1748366909129489364,0.188
1748366909137175649,0.20800000000000002
1748366909144861934,0.213
1748366909152548219,0.20500000000000002
1748366909160234504,0.193
1748366909167920789,0.178
1748366909175607074,0.149
1748366909183293359,0.097
1748366909190979644,0.022
1748366909198665929,-0.07100000000000001
1748366909206352214,-0.161
1748366909214038499,-0.247
1748366909221724784,-0.318
1748366909229411069,-0.364
1748366909237097354,-0.384
1748366909244783639,-0.394
1748366909252469924,-0.391
1748366909260156209,-0.382
1748366909267842494,-0.367
1748366909275528779,-0.352
1748366909283215064,-0.34
1748366909290901349,-0.325
1748366909298587634,-0.315
1748366909306273919,-0.306
1748366909313960204,-0.293
1748366909321646489,-0.28600000000000003
1748366909329332774,-0.281
1748366909337019059,-0.281
1748366909344705344,-0.276
1748366909352391629,-0.274
1748366909360077914,-0.271
1748366909367764199,-0.271
1748366909375450484,-0.271
1748366909383136769,-0.267
1748366909390823054,-0.264
1748366909398509339,-0.262
1748366909406195624,-0.259
1748366909413881909,-0.257
1748366909421568194,-0.254
1748366909429254479,-0.257
1748366909436940764,-0.259
1748366909444627049,-0.252
1748366909452313334,-0.23
1748366909459999619,-0.20800000000000002
1748366909467685904,-0.198
1748366909475372189,-0.195
1748366909483058474,-0.191
1748366909490744759,-0.195
1748366909498431044,-0.222
1748366909506117329,-0.247
1748366909513803614,-0.24
1748366909521489899,-0.225
1748366909529176184,-0.225
1748366909536862469,-0.22
1748366909544548754,-0.215
1748366909552235039,-0.21
1748366909559921324,-0.20800000000000002
1748366909567607609,-0.215
1748366909575293950,-0.249
1748366909582980235,-0.315
1748366909590666520,-0.296
1748366909598352805,0.105
1748366909606039090,0.916
1748366909613725375,1.707
1748366909621411660,1.7610000000000001
1748366909629097945,0.5700000000000001
1748366909636784230,-0.71
1748366909644470515,-0.614
1748366909652156800,-0.107
1748366909659843085,-0.232
1748366909667529370,-0.34
1748366909675215655,-0.203
1748366909682901940,-0.193
1748366909690588225,-0.232
1748366909698274510,-0.181
1748366909705960795,-0.146
1748366909713647080,-0.14400000000000002
1748366909721333365,-0.115
1748366909729019650,-0.08
1748366909736705935,-0.058
1748366909744392220,-0.034
1748366909752078505,-0.002
1748366909759764790,0.029
1748366909767451075,0.063
1748366909775137360,0.10200000000000001
1748366909782823645,0.137
1748366909790509930,0.17300000000000001
1748366909798196215,0.203
1748366909805882500,0.222
1748366909813568785,0.23
1748366909821255070,0.227
1748366909828941355,0.22
1748366909836627640,0.203
1748366909844313925,0.178
1748366909852000210,0.132
1748366909859686495,0.056
1748366909867372780,-0.036000000000000004
1748366909875059065,-0.134
1748366909882745350,-0.227
1748366909890431635,-0.301
1748366909898117920,-0.35000000000000003
1748366909905804205,-0.377
1748366909913490490,-0.384
1748366909921176775,-0.382
1748366909928863060,-0.374
1748366909936549345,-0.362
1748366909944235630,-0.35000000000000003
1748366909951921915,-0.335
1748366909959608200,-0.323
1748366909967294485,-0.311
1748366909974980770,-0.301
1748366909982667055,-0.296
1748366909990353340,-0.289
1748366909998039625,-0.28400000000000003
1748366910005725910,-0.281
1748366910013412195,-0.281
1748366910021098480,-0.279
1748366910028784765,-0.276
1748366910036471050,-0.274
1748366910044157335,-0.271
1748366910051843620,-0.267
1748366910059529905,-0.267
1748366910067216190,-0.264
1748366910074902475,-0.259
1748366910082588760,-0.257
1748366910090275045,-0.257
1748366910097961330,-0.252
1748366910105647615,-0.252
1748366910113333900,-0.257
1748366910121020185,-0.249
1748366910128706470,-0.222
1748366910136392811,-0.193,90,644
1748366910144079166,-0.183
1748366910151765521,-0.183
1748366910159451876,-0.176
1748366910167138231,-0.186
1748366910174824586,-0.227
