time,ecg,hr,rr,marker
1748368427598728403,-0.355,111,539
1748368427606415455,-0.36,,531
1748368427614102507,-0.365
1748368427621789559,-0.37
1748368427629476611,-0.379
1748368427637163663,-0.384
1748368427644850715,-0.377
1748368427652537767,-0.36
1748368427660224819,-0.358
1748368427667911871,-0.36
1748368427675598923,-0.331
1748368427683285975,-0.31
1748368427690973027,-0.324
1748368427698660079,-0.343
1748368427706347131,-0.341
1748368427714034183,-0.343
1748368427721721235,-0.343
1748368427729408287,-0.334
1748368427737095339,-0.334
1748368427744782391,-0.367
1748368427752469443,-0.41600000000000004
1748368427760156495,-0.298
1748368427767843547,0.17
1748368427775530599,0.593
1748368427783217651,0.334
1748368427790904703,-0.42
1748368427798591755,-0.803
1748368427806278807,-0.601
1748368427813965859,-0.43
1748368427821652911,-0.435
1748368427829339963,-0.34600000000000003
1748368427837027015,-0.274
1748368427844714067,-0.3
1748368427852401119,-0.298
1748368427860088171,-0.259
1748368427867775223,-0.25
1748368427875462275,-0.257
1748368427883149327,-0.252
1748368427890836379,-0.228
1748368427898523431,-0.209
1748368427906210483,-0.202
1748368427913897535,-0.194
1748368427921584587,-0.177
1748368427929271639,-0.153
1748368427936958691,-0.137
1748368427944645743,-0.129
1748368427952332795,-0.122
1748368427960019847,-0.12
1748368427967706899,-0.125
1748368427975393951,-0.129
1748368427983081003,-0.132
1748368427990768055,-0.127
1748368427998455107,-0.12
1748368428006142159,-0.122
1748368428013829211,-0.137
1748368428021516263,-0.168
1748368428029203315,-0.197
1748368428036890367,-0.218
1748368428044577419,-0.242
1748368428052264471,-0.266
1748368428059951523,-0.281
1748368428067638575,-0.293
1748368428075325627,-0.303
1748368428083012679,-0.305
1748368428090699731,-0.305
1748368428098386783,-0.312
1748368428106073835,-0.317
1748368428113760887,-0.317
1748368428121447939,-0.319
1748368428129134991,-0.327
1748368428136822043,-0.331
1748368428144509095,-0.336
1748368428152196147,-0.34600000000000003
1748368428159883217,-0.355
1748368428167570408,-0.358
1748368428175257599,-0.353
1748368428182944790,-0.341
1748368428190631981,-0.336
1748368428198319172,-0.336
1748368428206006363,-0.315
1748368428213693554,-0.29
1748368428221380745,-0.298
1748368428229067936,-0.324
1748368428236755127,-0.334
1748368428244442318,-0.331
1748368428252129509,-0.329
1748368428259816700,-0.324
1748368428267503891,-0.327
1748368428275191082,-0.35100000000000003
1748368428282878273,-0.41100000000000003
1748368428290565464,-0.355
1748368428298252655,0.06
1748368428305939846,0.524
1748368428313627037,0.37
1748368428321314228,-0.339
1748368428329001419,-0.779
1748368428336688610,-0.622
1748368428344375801,-0.437
1748368428352062992,-0.435
1748368428359750183,-0.355
1748368428367437374,-0.274
1748368428375124565,-0.293
1748368428382811756,-0.29
1748368428390498947,-0.264
1748368428398186138,-0.262
1748368428405873329,-0.262
1748368428413560520,-0.25
1748368428421247711,-0.242
1748368428428934902,-0.233
1748368428436622093,-0.218
1748368428444309284,-0.20600000000000002
1748368428451996475,-0.194
1748368428459683666,-0.18
1748368428467370857,-0.168
1748368428475058048,-0.158
1748368428482745239,-0.156
1748368428490432430,-0.153
1748368428498119621,-0.153
1748368428505806812,-0.151
1748368428513494003,-0.14400000000000002
1748368428521181194,-0.139
1748368428528868385,-0.14100000000000001
1748368428536555576,-0.156
1748368428544242767,-0.177
1748368428551929958,-0.202
1748368428559617149,-0.233
1748368428567304340,-0.266
1748368428574991531,-0.293
1748368428582678722,-0.317
1748368428590365913,-0.334
1748368428598053104,-0.34600000000000003
1748368428605740295,-0.353
1748368428613427486,-0.358
1748368428621114677,-0.358
1748368428628801868,-0.365
1748368428636489059,-0.37
1748368428644176250,-0.365
1748368428651863441,-0.365
1748368428659550632,-0.377
1748368428667237823,-0.379
1748368428674925014,-0.379
1748368428682612205,-0.396
1748368428690299396,-0.40800000000000003
1748368428697986587,-0.406
1748368428705673778,-0.406
1748368428713360969,-0.401
1748368428721048197,-0.387,111,535
1748368428728735318,-0.382
1748368428736422439,-0.372
1748368428744109560,-0.353
1748368428751796681,-0.355
1748368428759483802,-0.375
1748368428767170923,-0.387
1748368428774858044,-0.389
1748368428782545165,-0.391
1748368428790232286,-0.387
1748368428797919407,-0.377
1748368428805606528,-0.389
1748368428813293649,-0.444
1748368428820980770,-0.459
1748368428828667891,-0.185
1748368428836355012,0.331
1748368428844042133,0.464
1748368428851729254,-0.115
1748368428859416375,-0.762
1748368428867103496,-0.805
1748368428874790617,-0.545
1748368428882477738,-0.49
1748368428890164859,-0.48
1748368428897851980,-0.367
1748368428905539101,-0.334
1748368428913226222,-0.363
1748368428920913343,-0.343
1748368428928600464,-0.322
1748368428936287585,-0.319
1748368428943974706,-0.307
1748368428951661827,-0.298
1748368428959348948,-0.293
1748368428967036069,-0.276
1748368428974723190,-0.257
1748368428982410311,-0.24
1748368428990097432,-0.23
1748368428997784553,-0.216
1748368429005471674,-0.20400000000000001
1748368429013158795,-0.192
1748368429020845916,-0.182
1748368429028533037,-0.17500000000000002
1748368429036220158,-0.17
1748368429043907279,-0.163
1748368429051594400,-0.153
1748368429059281521,-0.149
1748368429066968642,-0.158
1748368429074655763,-0.182
1748368429082342884,-0.216
1748368429090030005,-0.247
1748368429097717126,-0.281
1748368429105404247,-0.315
1748368429113091368,-0.339
1748368429120778489,-0.355
1748368429128465610,-0.372
1748368429136152731,-0.384
1748368429143839852,-0.384
1748368429151526973,-0.387
1748368429159214094,-0.396
1748368429166901215,-0.394
1748368429174588336,-0.389
1748368429182275457,-0.394
1748368429189962578,-0.396
1748368429197649699,-0.399
1748368429205336820,-0.40800000000000003
1748368429213023941,-0.41600000000000004
1748368429220711062,-0.418
1748368429228398183,-0.425
1748368429236085304,-0.428
1748368429243772425,-0.41600000000000004
1748368429251459546,-0.406
1748368429259146667,-0.404
1748368429266833788,-0.384
1748368429274520909,-0.363
1748368429282208098,-0.363
1748368429289895219,-0.379
1748368429297582340,-0.384
1748368429305269461,-0.384
1748368429312956582,-0.391
1748368429320643703,-0.396
1748368429328330824,-0.391
1748368429336017945,-0.40800000000000003
1748368429343705066,-0.456
1748368429351392187,-0.355
1748368429359079308,0.088
1748368429366766429,0.483
1748368429374453550,0.189
1748368429382140671,-0.562
1748368429389827792,-0.896
1748368429397514913,-0.663
1748368429405202034,-0.497
1748368429412889155,-0.497
1748368429420576276,-0.391
1748368429428263397,-0.298
1748368429435950518,-0.319
1748368429443637639,-0.315
1748368429451324760,-0.28300000000000003
1748368429459011881,-0.28600000000000003
1748368429466699002,-0.28600000000000003
1748368429474386123,-0.266
1748368429482073244,-0.252
1748368429489760365,-0.245
1748368429497447486,-0.23
1748368429505134607,-0.218
1748368429512821728,-0.20400000000000001
1748368429520508849,-0.185
1748368429528195970,-0.168
1748368429535883091,-0.151
1748368429543570212,-0.14100000000000001
1748368429551257333,-0.137
1748368429558944454,-0.132
1748368429566631575,-0.127
1748368429574318696,-0.127
1748368429582005817,-0.122
1748368429589692938,-0.12
1748368429597380059,-0.137
1748368429605067180,-0.17
1748368429612754301,-0.209
1748368429620441422,-0.247
1748368429628128543,-0.281
1748368429635815664,-0.307
1748368429643502785,-0.329
1748368429651189906,-0.34600000000000003
1748368429658877027,-0.353
1748368429666564148,-0.353
1748368429674251269,-0.353
1748368429681938390,-0.358
1748368429689625511,-0.36
1748368429697312632,-0.358
1748368429704999753,-0.36
1748368429712686874,-0.367
1748368429720373995,-0.365
1748368429728061116,-0.363
1748368429735748237,-0.372
1748368429743435358,-0.382
1748368429751122479,-0.389
1748368429758809600,-0.396
1748368429766496721,-0.396
1748368429774183842,-0.389
1748368429781870963,-0.372
1748368429789558084,-0.36
1748368429797245205,-0.34800000000000003
1748368429804932326,-0.331
1748368429812619447,-0.331
1748368429820306568,-0.34600000000000003
1748368429827993689,-0.358
1748368429835680810,-0.358
1748368429843367995,-0.353,112,532
1748368429851055116,-0.34600000000000003,,531
1748368429858742237,-0.341
1748368429866429358,-0.36
1748368429874116479,-0.42
1748368429881803600,-0.406
1748368429889490721,-0.076
1748368429897177842,0.444
1748368429904864963,0.519
1748368429912552084,-0.108
1748368429920239205,-0.735
1748368429927926326,-0.711
1748368429935613447,-0.456
1748368429943300568,-0.437
1748368429950987689,-0.41100000000000003
1748368429958674810,-0.305
1748368429966361931,-0.3
1748368429974049052,-0.315
1748368429981736173,-0.28300000000000003
1748368429989423294,-0.274
1748368429997110415,-0.281
1748368430004797536,-0.269
1748368430012484657,-0.254
1748368430020171778,-0.25
1748368430027858899,-0.23800000000000002
1748368430035546020,-0.221
1748368430043233141,-0.209
1748368430050920262,-0.194
1748368430058607383,-0.177
1748368430066294504,-0.168
1748368430073981625,-0.161
1748368430081668746,-0.158
1748368430089355867,-0.165
1748368430097042988,-0.177
1748368430104730109,-0.18
1748368430112417230,-0.17300000000000001
1748368430120104351,-0.168
1748368430127791472,-0.168
1748368430135478593,-0.177
1748368430143165714,-0.199
1748368430150852835,-0.226
1748368430158539956,-0.252
1748368430166227077,-0.276
1748368430173914198,-0.295
1748368430181601319,-0.307
1748368430189288440,-0.317
1748368430196975561,-0.327
1748368430204662682,-0.327
1748368430212349803,-0.327
1748368430220036924,-0.327
1748368430227724045,-0.327
1748368430235411166,-0.327
1748368430243098287,-0.329
1748368430250785408,-0.327
1748368430258472529,-0.329
1748368430266159650,-0.331
1748368430273846771,-0.336
1748368430281533892,-0.341
1748368430289221013,-0.35100000000000003
1748368430296908134,-0.36
1748368430304595255,-0.37
1748368430312282376,-0.36
1748368430319969497,-0.339
1748368430327656618,-0.331
1748368430335343739,-0.322
1748368430343030860,-0.298
1748368430350717981,-0.295
1748368430358405102,-0.319
1748368430366092223,-0.331
1748368430373779344,-0.331
1748368430381466465,-0.334
1748368430389153586,-0.334
1748368430396840707,-0.329
1748368430404527892,-0.336
1748368430412215013,-0.37
1748368430419902134,-0.423
1748368430427589255,-0.31
1748368430435276376,0.165
1748368430442963497,0.596
1748368430450650618,0.339
1748368430458337739,-0.41300000000000003
1748368430466024860,-0.798
1748368430473711981,-0.606
1748368430481399102,-0.44
1748368430489086223,-0.456
1748368430496773344,-0.379
1748368430504460465,-0.298
1748368430512147586,-0.315
1748368430519834707,-0.312
1748368430527521828,-0.281
1748368430535208949,-0.281
1748368430542896070,-0.278
1748368430550583191,-0.259
1748368430558270312,-0.25
1748368430565957433,-0.23800000000000002
1748368430573644554,-0.216
1748368430581331675,-0.202
1748368430589018796,-0.192
1748368430596705917,-0.177
1748368430604393038,-0.158
1748368430612080159,-0.146
1748368430619767280,-0.137
1748368430627454401,-0.132
1748368430635141522,-0.14100000000000001
1748368430642828643,-0.153
1748368430650515764,-0.146
1748368430658202885,-0.14100000000000001
1748368430665890006,-0.14400000000000002
1748368430673577127,-0.149
1748368430681264248,-0.165
1748368430688951369,-0.202
1748368430696638490,-0.23800000000000002
1748368430704325611,-0.262
1748368430712012732,-0.28600000000000003
1748368430719699853,-0.303
1748368430727386974,-0.317
1748368430735074095,-0.327
1748368430742761216,-0.329
1748368430750448337,-0.329
1748368430758135458,-0.329
1748368430765822579,-0.329
1748368430773509700,-0.329
1748368430781196821,-0.336
1748368430788883942,-0.339
1748368430796571063,-0.339
1748368430804258184,-0.343
1748368430811945305,-0.343
1748368430819632426,-0.34600000000000003
1748368430827319547,-0.353
1748368430835006668,-0.358
1748368430842693789,-0.358
1748368430850380910,-0.365
1748368430858068031,-0.372
1748368430865755152,-0.36
1748368430873442273,-0.341
1748368430881129394,-0.343
1748368430888816515,-0.331
1748368430896503636,-0.303
1748368430904190757,-0.31
1748368430911877878,-0.339
1748368430919564999,-0.341
1748368430927252120,-0.336
1748368430934939241,-0.341
1748368430942626362,-0.336
1748368430950313483,-0.334
1748368430958000604,-0.34600000000000003
1748368430965687789,-0.391,112,533
1748368430973375259,-0.41600000000000004,,526
1748368430981062729,-0.168
1748368430988750199,0.355
1748368430996437669,0.543
1748368431004125139,-0.002
1748368431011812609,-0.6900000000000001
1748368431019500079,-0.783
1748368431027187549,-0.524
1748368431034875019,-0.452
1748368431042562489,-0.432
1748368431050249959,-0.319
1748368431057937429,-0.28300000000000003
1748368431065624899,-0.307
1748368431073312369,-0.28300000000000003
1748368431080999839,-0.262
1748368431088687309,-0.266
1748368431096374779,-0.262
1748368431104062249,-0.25
1748368431111749719,-0.242
1748368431119437189,-0.228
1748368431127124659,-0.211
1748368431134812129,-0.194
1748368431142499599,-0.177
1748368431150187069,-0.163
1748368431157874539,-0.149
1748368431165562009,-0.139
1748368431173249479,-0.132
1748368431180936949,-0.127
1748368431188624419,-0.127
1748368431196311889,-0.125
1748368431203999359,-0.12
1748368431211686829,-0.115
1748368431219374299,-0.117
1748368431227061769,-0.132
1748368431234749239,-0.163
1748368431242436709,-0.202
1748368431250124179,-0.23500000000000001
1748368431257811649,-0.262
1748368431265499119,-0.28300000000000003
1748368431273186589,-0.307
1748368431280874059,-0.319
1748368431288561529,-0.327
1748368431296248999,-0.324
1748368431303936469,-0.329
1748368431311623939,-0.336
1748368431319311409,-0.331
1748368431326998879,-0.329
1748368431334686349,-0.329
1748368431342373819,-0.327
1748368431350061289,-0.334
1748368431357748759,-0.341
1748368431365436229,-0.334
1748368431373123699,-0.334
1748368431380811169,-0.35100000000000003
1748368431388498639,-0.353
1748368431396186109,-0.339
1748368431403873579,-0.34800000000000003
1748368431411561049,-0.358
1748368431419248519,-0.353
1748368431426935989,-0.35100000000000003
1748368431434623459,-0.34600000000000003
1748368431442310929,-0.334
1748368431449998399,-0.312
1748368431457685869,-0.295
1748368431465373339,-0.305
1748368431473060809,-0.324
1748368431480748279,-0.329
1748368431488435749,-0.329
1748368431496123219,-0.324
1748368431503810689,-0.317
1748368431511498159,-0.322
1748368431519185629,-0.339
1748368431526873121,-0.384,113,534
1748368431534560312,-0.387,,543
1748368431542247503,-0.08600000000000001
1748368431549934694,0.444
1748368431557621885,0.56
1748368431565309076,-0.043000000000000003
1748368431572996267,-0.6990000000000001
1748368431580683458,-0.726
1748368431588370649,-0.47600000000000003
1748368431596057840,-0.442
1748368431603745031,-0.425
1748368431611432222,-0.31
1748368431619119413,-0.3
1748368431626806604,-0.343
1748368431634493795,-0.298
1748368431642180986,-0.23500000000000001
1748368431649868177,-0.218
1748368431657555368,-0.211
1748368431665242559,-0.202
1748368431672929750,-0.214
1748368431680616941,-0.228
1748368431688304132,-0.23500000000000001
1748368431695991323,-0.23500000000000001
1748368431703678514,-0.223
1748368431711365705,-0.209
1748368431719052896,-0.177
1748368431726740087,-0.125
1748368431734427278,-0.098
1748368431742114469,-0.117
1748368431749801660,-0.132
1748368431757488851,-0.129
1748368431765176042,-0.134
1748368431772863233,-0.149
1748368431780550424,-0.149
1748368431788237615,-0.149
1748368431795924806,-0.177
1748368431803611997,-0.221
1748368431811299188,-0.257
1748368431818986379,-0.278
1748368431826673570,-0.28800000000000003
1748368431834360761,-0.298
1748368431842047952,-0.315
1748368431849735143,-0.322
1748368431857422334,-0.312
1748368431865109525,-0.312
1748368431872796716,-0.322
1748368431880483907,-0.329
1748368431888171098,-0.327
1748368431895858289,-0.329
1748368431903545480,-0.329
1748368431911232671,-0.329
1748368431918919862,-0.331
1748368431926607053,-0.329
1748368431934294244,-0.324
1748368431941981435,-0.336
1748368431949668626,-0.339
1748368431957355817,-0.322
1748368431965043008,-0.307
1748368431972730199,-0.312
1748368431980417390,-0.34600000000000003
1748368431988104581,-0.36
1748368431995791772,-0.322
1748368432003478963,-0.28600000000000003
1748368432011166154,-0.303
1748368432018853345,-0.317
1748368432026540536,-0.298
1748368432034227727,-0.28800000000000003
1748368432041914918,-0.293
1748368432049602109,-0.298
1748368432057289300,-0.293
1748368432064976491,-0.29
1748368432072663682,-0.298
1748368432080350873,-0.307
1748368432088038105,-0.327
1748368432095725226,-0.37
1748368432103412347,-0.295
1748368432111099468,0.115
1748368432118786589,0.591
1748368432126473710,0.485
1748368432134160831,-0.218
1748368432141847952,-0.728
1748368432149535073,-0.627
1748368432157222194,-0.435
1748368432164909315,-0.435
1748368432172596436,-0.353
1748368432180283557,-0.257
1748368432187970678,-0.274
1748368432195657799,-0.259
1748368432203344920,-0.221
1748368432211032041,-0.216
1748368432218719162,-0.223
1748368432226406283,-0.242
1748368432234093404,-0.23800000000000002
1748368432241780525,-0.20400000000000001
1748368432249467646,-0.182
1748368432257154767,-0.177
1748368432264841888,-0.163
1748368432272529009,-0.125
1748368432280216130,-0.088
1748368432287903251,-0.096
1748368432295590372,-0.14400000000000002
1748368432303277493,-0.151
1748368432310964614,-0.117
1748368432318651735,-0.11
1748368432326338856,-0.127
1748368432334025977,-0.125
1748368432341713098,-0.113
1748368432349400219,-0.117
1748368432357087340,-0.137
1748368432364774461,-0.168
1748368432372461582,-0.20600000000000002
1748368432380148703,-0.247
1748368432387835824,-0.274
1748368432395522945,-0.28800000000000003
1748368432403210066,-0.298
1748368432410897187,-0.3
1748368432418584308,-0.298
1748368432426271429,-0.305
1748368432433958550,-0.31
1748368432441645671,-0.307
1748368432449332792,-0.312
1748368432457019913,-0.324
1748368432464707034,-0.327
1748368432472394155,-0.319
1748368432480081276,-0.322
1748368432487768397,-0.334
1748368432495455518,-0.331
1748368432503142639,-0.329
1748368432510829760,-0.329
1748368432518516881,-0.331
1748368432526204002,-0.336
1748368432533891123,-0.339
1748368432541578244,-0.343
1748368432549265365,-0.34800000000000003
1748368432556952486,-0.34600000000000003
1748368432564639607,-0.343
1748368432572326728,-0.343
1748368432580013849,-0.329
1748368432587700970,-0.312
1748368432595388091,-0.293
1748368432603075212,-0.28600000000000003
1748368432610762333,-0.303
1748368432618449454,-0.319
1748368432626136575,-0.315
1748368432633823696,-0.307
1748368432641510817,-0.307
1748368432649198002,-0.312,112,550
1748368432656885123,-0.324,,561
1748368432664572244,-0.35100000000000003
1748368432672259365,-0.404
1748368432679946486,-0.334
1748368432687633607,0.081
1748368432695320728,0.584
1748368432703007849,0.514
1748368432710694970,-0.194
1748368432718382091,-0.745
1748368432726069212,-0.656
1748368432733756333,-0.432
1748368432741443454,-0.41600000000000004
1748368432749130575,-0.367
1748368432756817696,-0.28800000000000003
1748368432764504817,-0.295
1748368432772191938,-0.293
1748368432779879059,-0.259
1748368432787566180,-0.252
1748368432795253301,-0.257
1748368432802940422,-0.247
1748368432810627543,-0.233
1748368432818314664,-0.223
1748368432826001785,-0.211
1748368432833688906,-0.199
1748368432841376027,-0.185
1748368432849063148,-0.163
1748368432856750269,-0.14400000000000002
1748368432864437390,-0.14100000000000001
1748368432872124511,-0.151
1748368432879811632,-0.14400000000000002
1748368432887498753,-0.132
1748368432895185874,-0.134
1748368432902872995,-0.14100000000000001
1748368432910560116,-0.139
1748368432918247237,-0.139
1748368432925934358,-0.139
1748368432933621479,-0.149
1748368432941308600,-0.17300000000000001
1748368432948995721,-0.20600000000000002
1748368432956682842,-0.242
1748368432964369963,-0.274
1748368432972057084,-0.28800000000000003
1748368432979744205,-0.295
1748368432987431326,-0.307
1748368432995118447,-0.319
1748368433002805568,-0.315
1748368433010492689,-0.303
1748368433018179810,-0.315
1748368433025866931,-0.327
1748368433033554052,-0.317
1748368433041241173,-0.315
1748368433048928294,-0.327
1748368433056615415,-0.329
1748368433064302536,-0.327
1748368433071989657,-0.322
1748368433079676778,-0.331
1748368433087363899,-0.343
1748368433095051020,-0.341
1748368433102738141,-0.331
1748368433110425262,-0.334
1748368433118112383,-0.334
1748368433125799504,-0.339
1748368433133486625,-0.343
1748368433141173746,-0.343
1748368433148860867,-0.343
1748368433156547988,-0.343
1748368433164235109,-0.331
1748368433171922230,-0.319
1748368433179609351,-0.305
1748368433187296472,-0.281
1748368433194983593,-0.28300000000000003
1748368433202670714,-0.315
1748368433210357899,-0.322
1748368433218045020,-0.315
1748368433225732141,-0.317
1748368433233419262,-0.317
1748368433241106383,-0.317
1748368433248793504,-0.324
1748368433256480625,-0.355
1748368433264167746,-0.372
1748368433271854867,-0.137
1748368433279541988,0.41100000000000003
1748368433287229109,0.654
1748368433294916230,0.117
1748368433302603351,-0.627
1748368433310290472,-0.798
1748368433317977593,-0.55
1748368433325664714,-0.459
1748368433333351835,-0.452
1748368433341038956,-0.334
1748368433348726077,-0.271
1748368433356413198,-0.295
1748368433364100319,-0.28600000000000003
1748368433371787440,-0.257
1748368433379474561,-0.254
1748368433387161682,-0.25
1748368433394848803,-0.233
1748368433402535924,-0.221
1748368433410223045,-0.211
1748368433417910166,-0.192
1748368433425597287,-0.177
1748368433433284408,-0.165
1748368433440971529,-0.139
1748368433448658650,-0.115
1748368433456345771,-0.108
1748368433464032892,-0.105
1748368433471720013,-0.096
1748368433479407134,-0.08600000000000001
1748368433487094255,-0.084
1748368433494781376,-0.08600000000000001
1748368433502468497,-0.08600000000000001
1748368433510155618,-0.084
1748368433517842739,-0.101
1748368433525529860,-0.137
1748368433533216981,-0.177
1748368433540904102,-0.218
1748368433548591223,-0.252
1748368433556278344,-0.276
1748368433563965465,-0.3
1748368433571652586,-0.317
1748368433579339707,-0.322
1748368433587026828,-0.324
1748368433594713949,-0.327
1748368433602401070,-0.327
1748368433610088191,-0.324
1748368433617775312,-0.324
1748368433625462433,-0.324
1748368433633149554,-0.324
1748368433640836675,-0.331
1748368433648523796,-0.336
1748368433656210917,-0.339
1748368433663898038,-0.34800000000000003
1748368433671585159,-0.353
1748368433679272280,-0.35100000000000003
1748368433686959401,-0.34600000000000003
1748368433694646522,-0.34600000000000003
1748368433702333643,-0.353
1748368433710020764,-0.355
1748368433717707885,-0.355
1748368433725395006,-0.355
1748368433733082127,-0.343
1748368433740769248,-0.336
1748368433748456369,-0.336
1748368433756143490,-0.319
1748368433763830611,-0.298
1748368433771517796,-0.303,111,566
1748368433779204917,-0.329
1748368433786892038,-0.331
1748368433794579159,-0.322
1748368433802266280,-0.319
1748368433809953401,-0.319
1748368433817640522,-0.319
1748368433825327643,-0.331
1748368433833014764,-0.363
1748368433840701885,-0.315
1748368433848389006,0.043000000000000003
1748368433856076127,0.55
1748368433863763248,0.495
1748368433871450369,-0.28300000000000003
1748368433879137490,-0.887
1748368433886824611,-0.769
1748368433894511732,-0.514
1748368433902198853,-0.495
1748368433909885974,-0.418
1748368433917573095,-0.281
1748368433925260216,-0.262
1748368433932947337,-0.278
1748368433940634458,-0.245
1748368433948321579,-0.226
1748368433956008700,-0.228
1748368433963695821,-0.214
1748368433971382942,-0.194
1748368433979070063,-0.197
1748368433986757184,-0.189
1748368433994444305,-0.168
1748368434002131426,-0.146
1748368434009818547,-0.127
1748368434017505668,-0.105
1748368434025192789,-0.088
1748368434032879910,-0.076
1748368434040567031,-0.064
1748368434048254152,-0.055
1748368434055941273,-0.05
1748368434063628394,-0.052000000000000005
1748368434071315515,-0.052000000000000005
1748368434079002636,-0.052000000000000005
1748368434086689757,-0.062
1748368434094376878,-0.096
1748368434102063999,-0.137
1748368434109751120,-0.185
1748368434117438241,-0.233
1748368434125125362,-0.269
1748368434132812483,-0.295
1748368434140499604,-0.315
1748368434148186725,-0.324
1748368434155873846,-0.327
1748368434163560967,-0.322
1748368434171248088,-0.315
1748368434178935209,-0.31
1748368434186622330,-0.305
1748368434194309451,-0.307
1748368434201996572,-0.315
1748368434209683693,-0.317
1748368434217370814,-0.319
1748368434225057935,-0.324
1748368434232745056,-0.334
1748368434240432177,-0.334
1748368434248119298,-0.334
1748368434255806419,-0.343
1748368434263493540,-0.35100000000000003
1748368434271180661,-0.353
1748368434278867782,-0.355
1748368434286554903,-0.358
1748368434294242024,-0.355
1748368434301929145,-0.341
1748368434309616266,-0.334
1748368434317303387,-0.339
1748368434324990508,-0.317
1748368434332677693,-0.298
1748368434340365163,-0.312
1748368434348052633,-0.329
1748368434355740103,-0.329
1748368434363427573,-0.331
1748368434371115043,-0.334
1748368434378802513,-0.319
1748368434386489983,-0.319
1748368434394177453,-0.34800000000000003
1748368434401864923,-0.387
1748368434409552393,-0.276
1748368434417239863,0.17500000000000002
1748368434424927333,0.661
1748368434432614803,0.509
1748368434440302273,-0.278
1748368434447989743,-0.788
1748368434455677213,-0.613
1748368434463364683,-0.406
1748368434471052153,-0.43
1748368434478739623,-0.36
1748368434486427093,-0.259
1748368434494114563,-0.278
1748368434501802033,-0.28600000000000003
1748368434509489503,-0.252
1748368434517176973,-0.254
1748368434524864443,-0.257
1748368434532551913,-0.245
1748368434540239383,-0.23500000000000001
1748368434547926853,-0.223
1748368434555614323,-0.20600000000000002
1748368434563301793,-0.192
1748368434570989263,-0.17500000000000002
1748368434578676733,-0.158
1748368434586364203,-0.14400000000000002
1748368434594051673,-0.127
1748368434601739143,-0.11
1748368434609426613,-0.098
1748368434617114083,-0.098
1748368434624801553,-0.108
1748368434632489023,-0.117
1748368434640176493,-0.122
1748368434647863963,-0.125
1748368434655551433,-0.129
1748368434663238903,-0.146
1748368434670926373,-0.168
1748368434678613843,-0.199
1748368434686301313,-0.233
1748368434693988783,-0.259
1748368434701676253,-0.276
1748368434709363723,-0.28800000000000003
1748368434717051193,-0.295
1748368434724738663,-0.3
1748368434732426133,-0.303
1748368434740113603,-0.303
1748368434747801073,-0.305
1748368434755488543,-0.3
1748368434763176013,-0.303
1748368434770863483,-0.31
1748368434778550953,-0.31
1748368434786238423,-0.303
1748368434793925893,-0.307
1748368434801613363,-0.317
1748368434809300833,-0.317
1748368434816988303,-0.317
1748368434824675773,-0.322
1748368434832363243,-0.324
1748368434840050713,-0.331
1748368434847738183,-0.343
1748368434855425653,-0.343
1748368434863113123,-0.329
1748368434870800593,-0.317
1748368434878488063,-0.307
1748368434886175533,-0.293
1748368434893863025,-0.271,109,577
1748368434901550216,-0.269,,587
1748368434909237407,-0.295
1748368434916924598,-0.305
1748368434924611789,-0.293
1748368434932298980,-0.28800000000000003
1748368434939986171,-0.29
1748368434947673362,-0.28600000000000003
1748368434955360553,-0.28300000000000003
1748368434963047744,-0.312
1748368434970734935,-0.365
1748368434978422126,-0.245
1748368434986109317,0.226
1748368434993796508,0.685
1748368435001483699,0.492
1748368435009170890,-0.274
1748368435016858081,-0.716
1748368435024545272,-0.533
1748368435032232463,-0.377
1748368435039919654,-0.41300000000000003
1748368435047606845,-0.339
1748368435055294036,-0.266
1748368435062981227,-0.29
1748368435070668418,-0.281
1748368435078355609,-0.245
1748368435086042800,-0.245
1748368435093729991,-0.242
1748368435101417182,-0.226
1748368435109104373,-0.221
1748368435116791564,-0.216
1748368435124478755,-0.199
1748368435132165946,-0.182
1748368435139853137,-0.165
1748368435147540328,-0.149
1748368435155227519,-0.129
1748368435162914710,-0.115
1748368435170601901,-0.11
1748368435178289092,-0.11
1748368435185976283,-0.11
1748368435193663474,-0.113
1748368435201350665,-0.125
1748368435209037856,-0.132
1748368435216725047,-0.132
1748368435224412238,-0.139
1748368435232099429,-0.158
1748368435239786620,-0.185
1748368435247473811,-0.214
1748368435255161002,-0.242
1748368435262848193,-0.264
1748368435270535384,-0.278
1748368435278222575,-0.29
1748368435285909766,-0.3
1748368435293596957,-0.305
1748368435301284148,-0.303
1748368435308971339,-0.295
1748368435316658530,-0.29
1748368435324345721,-0.293
1748368435332032912,-0.293
1748368435339720103,-0.29
1748368435347407294,-0.293
1748368435355094485,-0.295
1748368435362781676,-0.295
1748368435370468867,-0.3
1748368435378156058,-0.303
1748368435385843249,-0.303
1748368435393530440,-0.3
1748368435401217631,-0.303
1748368435408904822,-0.307
1748368435416592013,-0.315
1748368435424279204,-0.322
1748368435431966395,-0.322
1748368435439653586,-0.315
1748368435447340777,-0.3
1748368435455028009,-0.293,107,573
1748368435462715130,-0.281,,567
1748368435470402251,-0.257
1748368435478089372,-0.252
1748368435485776493,-0.274
1748368435493463614,-0.28800000000000003
1748368435501150735,-0.28800000000000003
1748368435508837856,-0.28800000000000003
1748368435516524977,-0.29
1748368435524212098,-0.28600000000000003
1748368435531899219,-0.28300000000000003
1748368435539586340,-0.305
1748368435547273461,-0.358
1748368435554960582,-0.281
1748368435562647703,0.151
1748368435570334824,0.658
1748368435578021945,0.56
1748368435585709066,-0.18
1748368435593396187,-0.711
1748368435601083308,-0.593
1748368435608770429,-0.391
1748368435616457550,-0.401
1748368435624144671,-0.343
1748368435631831792,-0.252
1748368435639518913,-0.264
1748368435647206034,-0.274
1748368435654893155,-0.245
1748368435662580276,-0.23800000000000002
1748368435670267397,-0.24
1748368435677954518,-0.226
1748368435685641639,-0.216
1748368435693328760,-0.209
1748368435701015881,-0.192
1748368435708703002,-0.177
1748368435716390123,-0.163
1748368435724077244,-0.14400000000000002
1748368435731764365,-0.129
1748368435739451486,-0.115
1748368435747138607,-0.10300000000000001
1748368435754825728,-0.098
1748368435762512849,-0.10300000000000001
1748368435770199970,-0.11
1748368435777887091,-0.11
1748368435785574212,-0.115
1748368435793261333,-0.117
1748368435800948454,-0.117
1748368435808635575,-0.134
1748368435816322696,-0.17
1748368435824009817,-0.20600000000000002
1748368435831696938,-0.23800000000000002
1748368435839384059,-0.262
1748368435847071180,-0.28300000000000003
1748368435854758301,-0.295
1748368435862445422,-0.298
1748368435870132543,-0.298
1748368435877819664,-0.307
1748368435885506785,-0.31
1748368435893193906,-0.298
1748368435900881027,-0.29
1748368435908568148,-0.295
1748368435916255269,-0.298
1748368435923942390,-0.295
1748368435931629511,-0.3
1748368435939316632,-0.307
1748368435947003753,-0.307
1748368435954690874,-0.303
1748368435962377995,-0.3
1748368435970065116,-0.303
1748368435977752237,-0.3
1748368435985439358,-0.305
1748368435993126479,-0.307
1748368436000813600,-0.305
1748368436008500721,-0.312
1748368436016187906,-0.319
1748368436023875167,-0.312
1748368436031562428,-0.3
1748368436039249689,-0.3
1748368436046936950,-0.295
1748368436054624211,-0.271
1748368436062311472,-0.266
1748368436069998733,-0.28800000000000003
1748368436077685994,-0.298
1748368436085373255,-0.303
1748368436093060516,-0.307
1748368436100747777,-0.295
1748368436108435038,-0.29
1748368436116122299,-0.298
1748368436123809560,-0.319
1748368436131496821,-0.343
1748368436139184082,-0.192
1748368436146871343,0.295
1748368436154558604,0.67
1748368436162245865,0.281
1748368436169933126,-0.529
1748368436177620387,-0.8240000000000001
1748368436185307648,-0.5740000000000001
1748368436192994909,-0.44
1748368436200682170,-0.449
1748368436208369431,-0.329
1748368436216056692,-0.23800000000000002
1748368436223743953,-0.264
1748368436231431214,-0.259
1748368436239118475,-0.223
1748368436246805736,-0.226
1748368436254492997,-0.223
1748368436262180258,-0.20400000000000001
1748368436269867519,-0.194
1748368436277554780,-0.177
1748368436285242041,-0.151
1748368436292929302,-0.137
1748368436300616563,-0.129
1748368436308303824,-0.11
1748368436315991085,-0.08600000000000001
1748368436323678346,-0.076
1748368436331365607,-0.062
1748368436339052868,-0.045
1748368436346740129,-0.043000000000000003
1748368436354427390,-0.031
1748368436362114651,-0.014
1748368436369801912,-0.021
1748368436377489173,-0.033
1748368436385176434,-0.048
1748368436392863695,-0.076
1748368436400550956,-0.129
1748368436408238217,-0.192
1748368436415925478,-0.233
1748368436423612739,-0.262
1748368436431300000,-0.28600000000000003
1748368436438987261,-0.298
1748368436446674522,-0.305
1748368436454361783,-0.31
1748368436462049044,-0.305
1748368436469736305,-0.303
1748368436477423566,-0.305
1748368436485110827,-0.303
1748368436492798088,-0.3
1748368436500485349,-0.303
1748368436508172610,-0.305
1748368436515859871,-0.31
1748368436523547132,-0.315
1748368436531234393,-0.317
1748368436538921654,-0.312
1748368436546608915,-0.315
1748368436554296176,-0.331
1748368436561983437,-0.334
1748368436569670698,-0.327
1748368436577357977,-0.327,106,568
1748368436585045168,-0.327,,577
1748368436592732359,-0.327
1748368436600419550,-0.319
1748368436608106741,-0.307
1748368436615793932,-0.29
1748368436623481123,-0.271
1748368436631168314,-0.274
1748368436638855505,-0.29
1748368436646542696,-0.298
1748368436654229887,-0.298
1748368436661917078,-0.298
1748368436669604269,-0.29
1748368436677291460,-0.28300000000000003
1748368436684978651,-0.28300000000000003
1748368436692665842,-0.3
1748368436700353033,-0.315
1748368436708040224,-0.14100000000000001
1748368436715727415,0.34600000000000003
1748368436723414606,0.675
1748368436731101797,0.23800000000000002
1748368436738788988,-0.577
1748368436746476179,-0.8290000000000001
1748368436754163370,-0.553
1748368436761850561,-0.418
1748368436769537752,-0.41600000000000004
1748368436777224943,-0.293
1748368436784912134,-0.214
1748368436792599325,-0.23500000000000001
1748368436800286516,-0.226
1748368436807973707,-0.189
1748368436815660898,-0.187
1748368436823348089,-0.189
1748368436831035280,-0.177
1748368436838722471,-0.168
1748368436846409662,-0.158
1748368436854096853,-0.14400000000000002
1748368436861784044,-0.129
1748368436869471235,-0.11
1748368436877158426,-0.08600000000000001
1748368436884845617,-0.067
1748368436892532808,-0.052000000000000005
1748368436900219999,-0.043000000000000003
1748368436907907190,-0.033
1748368436915594381,-0.026000000000000002
1748368436923281572,-0.026000000000000002
1748368436930968763,-0.033
1748368436938655954,-0.038
1748368436946343145,-0.04
1748368436954030336,-0.057
1748368436961717527,-0.091
1748368436969404718,-0.134
1748368436977091909,-0.177
1748368436984779100,-0.221
1748368436992466291,-0.252
1748368437000153482,-0.276
1748368437007840673,-0.29
1748368437015527864,-0.295
1748368437023215055,-0.29
1748368437030902246,-0.278
1748368437038589437,-0.274
1748368437046276628,-0.274
1748368437053963819,-0.269
1748368437061651010,-0.266
1748368437069338201,-0.269
1748368437077025392,-0.276
1748368437084712583,-0.281
1748368437092399774,-0.28600000000000003
1748368437100086965,-0.28600000000000003
1748368437107774156,-0.28800000000000003
1748368437115461347,-0.295
1748368437123148538,-0.298
1748368437130835729,-0.303
1748368437138522961,-0.312
1748368437146210152,-0.317
1748368437153897343,-0.315
1748368437161584534,-0.31
1748368437169271725,-0.3
1748368437176958916,-0.298
1748368437184646107,-0.28800000000000003
1748368437192333298,-0.262
1748368437200020489,-0.252
1748368437207707680,-0.276
1748368437215394871,-0.28800000000000003
1748368437223082062,-0.278
1748368437230769253,-0.276
1748368437238456444,-0.276
1748368437246143635,-0.271
1748368437253830826,-0.278
1748368437261518017,-0.305
1748368437269205208,-0.334
1748368437276892399,-0.17300000000000001
1748368437284579590,0.315
1748368437292266781,0.707
1748368437299953972,0.382
1748368437307641163,-0.43
1748368437315328354,-0.798
1748368437323015545,-0.555
1748368437330702736,-0.389
1748368437338389927,-0.41100000000000003
1748368437346077118,-0.317
1748368437353764309,-0.24
1748368437361451500,-0.266
1748368437369138691,-0.257
1748368437376825882,-0.223
1748368437384513073,-0.223
1748368437392200264,-0.223
1748368437399887455,-0.20600000000000002
1748368437407574646,-0.197
1748368437415261837,-0.187
1748368437422949028,-0.17300000000000001
1748368437430636219,-0.163
1748368437438323410,-0.14400000000000002
1748368437446010601,-0.122
1748368437453697792,-0.105
1748368437461384983,-0.08600000000000001
1748368437469072174,-0.067
1748368437476759365,-0.064
1748368437484446556,-0.064
1748368437492133747,-0.067
1748368437499820938,-0.081
1748368437507508129,-0.093
1748368437515195320,-0.098
1748368437522882511,-0.108
1748368437530569702,-0.132
1748368437538256893,-0.165
1748368437545944084,-0.199
1748368437553631275,-0.23
1748368437561318466,-0.254
1748368437569005657,-0.271
1748368437576692848,-0.28600000000000003
1748368437584380039,-0.28800000000000003
1748368437592067230,-0.28300000000000003
1748368437599754421,-0.28600000000000003
1748368437607441612,-0.28600000000000003
1748368437615128803,-0.281
1748368437622815994,-0.274
1748368437630503185,-0.274
1748368437638190376,-0.276
1748368437645877567,-0.276
1748368437653564758,-0.276
1748368437661251949,-0.278
1748368437668939140,-0.278
1748368437676626331,-0.28300000000000003
1748368437684313522,-0.29
1748368437692000713,-0.28800000000000003
1748368437699687945,-0.28600000000000003,106,582
1748368437707375206,-0.293
1748368437715062467,-0.3
1748368437722749728,-0.305
1748368437730436989,-0.303
1748368437738124250,-0.298
1748368437745811511,-0.281
1748368437753498772,-0.264
1748368437761186033,-0.257
1748368437768873294,-0.23500000000000001
1748368437776560555,-0.223
1748368437784247816,-0.242
1748368437791935077,-0.259
1748368437799622338,-0.259
1748368437807309599,-0.259
1748368437814996860,-0.262
1748368437822684121,-0.257
1748368437830371382,-0.262
1748368437838058643,-0.278
1748368437845745904,-0.322
1748368437853433165,-0.28600000000000003
1748368437861120426,0.06
1748368437868807687,0.581
1748368437876494948,0.644
1748368437884182209,-0.004
1748368437891869470,-0.646
1748368437899556731,-0.62
1748368437907243992,-0.377
1748368437914931253,-0.37
1748368437922618514,-0.341
1748368437930305775,-0.245
1748368437937993036,-0.247
1748368437945680297,-0.257
1748368437953367558,-0.226
1748368437961054819,-0.216
1748368437968742080,-0.221
1748368437976429341,-0.202
1748368437984116602,-0.187
1748368437991803863,-0.187
1748368437999491124,-0.18
1748368438007178385,-0.163
1748368438014865646,-0.146
1748368438022552907,-0.129
1748368438030240168,-0.11
1748368438037927429,-0.093
1748368438045614690,-0.081
1748368438053301951,-0.07200000000000001
1748368438060989212,-0.069
1748368438068676473,-0.081
1748368438076363734,-0.098
1748368438084050995,-0.10300000000000001
1748368438091738256,-0.11
1748368438099425517,-0.129
1748368438107112778,-0.14400000000000002
1748368438114800039,-0.163
1748368438122487300,-0.192
1748368438130174561,-0.218
1748368438137861822,-0.24
1748368438145549083,-0.262
1748368438153236344,-0.276
1748368438160923605,-0.281
1748368438168610866,-0.276
1748368438176298127,-0.274
1748368438183985388,-0.276
1748368438191672649,-0.278
1748368438199359910,-0.274
1748368438207047171,-0.269
1748368438214734432,-0.269
1748368438222421693,-0.271
1748368438230108954,-0.271
1748368438237796215,-0.271
1748368438245483476,-0.274
1748368438253170737,-0.274
1748368438260858012,-0.274
1748368438268545133,-0.271
1748368438276232254,-0.271
1748368438283919375,-0.274
1748368438291606496,-0.274
1748368438299293617,-0.271
1748368438306980738,-0.271
1748368438314667859,-0.274
1748368438322354980,-0.278
1748368438330042101,-0.28300000000000003
1748368438337729222,-0.28800000000000003
1748368438345416343,-0.281
1748368438353103464,-0.266
1748368438360790585,-0.259
1748368438368477706,-0.247
1748368438376164827,-0.228
1748368438383851948,-0.233
1748368438391539069,-0.257
1748368438399226190,-0.264
1748368438406913311,-0.262
1748368438414600432,-0.262
1748368438422287553,-0.262
1748368438429974674,-0.259
1748368438437661795,-0.262
1748368438445348916,-0.28800000000000003
1748368438453036037,-0.319
1748368438460723158,-0.17300000000000001
1748368438468410279,0.3
1748368438476097400,0.6990000000000001
1748368438483784521,0.41600000000000004
1748368438491471642,-0.36
1748368438499158763,-0.735
1748368438506845884,-0.517
1748368438514533005,-0.365
1748368438522220126,-0.389
1748368438529907247,-0.3
1748368438537594368,-0.223
1748368438545281489,-0.247
1748368438552968610,-0.242
1748368438560655731,-0.209
1748368438568342852,-0.209
1748368438576029973,-0.20600000000000002
1748368438583717094,-0.192
1748368438591404215,-0.182
1748368438599091336,-0.17500000000000002
1748368438606778457,-0.161
1748368438614465578,-0.146
1748368438622152699,-0.127
1748368438629839820,-0.105
1748368438637526941,-0.088
1748368438645214062,-0.076
1748368438652901183,-0.062
1748368438660588304,-0.06
1748368438668275425,-0.062
1748368438675962546,-0.069
1748368438683649667,-0.084
1748368438691336788,-0.098
1748368438699023909,-0.098
1748368438706711030,-0.105
1748368438714398151,-0.122
1748368438722085272,-0.156
1748368438729772393,-0.199
1748368438737459514,-0.226
1748368438745146635,-0.247
1748368438752833756,-0.271
1748368438760520877,-0.28600000000000003
1748368438768207998,-0.293
1748368438775895119,-0.298
1748368438783582240,-0.293
1748368438791269361,-0.28800000000000003
1748368438798956482,-0.293
1748368438806643603,-0.28600000000000003
1748368438814330724,-0.276
1748368438822017909,-0.278,105,568
1748368438829705100,-0.28300000000000003,,570
1748368438837392291,-0.278
1748368438845079482,-0.278
1748368438852766673,-0.28300000000000003
1748368438860453864,-0.28300000000000003
1748368438868141055,-0.28600000000000003
1748368438875828246,-0.29
1748368438883515437,-0.293
1748368438891202628,-0.28800000000000003
1748368438898889819,-0.29
1748368438906577010,-0.295
1748368438914264201,-0.295
1748368438921951392,-0.295
1748368438929638583,-0.3
1748368438937325774,-0.307
1748368438945012965,-0.312
1748368438952700156,-0.312
1748368438960387347,-0.315
1748368438968074538,-0.307
1748368438975761729,-0.295
1748368438983448920,-0.28600000000000003
1748368438991136111,-0.269
1748368438998823302,-0.25
1748368439006510493,-0.257
1748368439014197684,-0.278
1748368439021884875,-0.29
1748368439029572066,-0.28800000000000003
1748368439037259257,-0.278
1748368439044946448,-0.276
1748368439052633639,-0.278
1748368439060320830,-0.28300000000000003
1748368439068008021,-0.3
1748368439075695212,-0.24
1748368439083382403,0.108
1748368439091069594,0.591
1748368439098756785,0.529
1748368439106443976,-0.23500000000000001
1748368439114131167,-0.8290000000000001
1748368439121818358,-0.714
1748368439129505549,-0.47600000000000003
1748368439137192740,-0.464
1748368439144879931,-0.391
1748368439152567122,-0.264
1748368439160254313,-0.242
1748368439167941504,-0.252
1748368439175628695,-0.226
1748368439183315886,-0.209
1748368439191003077,-0.20600000000000002
1748368439198690268,-0.197
1748368439206377459,-0.177
1748368439214064650,-0.163
1748368439221751841,-0.149
1748368439229439032,-0.139
1748368439237126223,-0.132
1748368439244813414,-0.113
1748368439252500605,-0.08600000000000001
1748368439260187796,-0.067
1748368439267874987,-0.05
1748368439275562178,-0.038
1748368439283249369,-0.028
1748368439290936560,-0.028
1748368439298623751,-0.031
1748368439306310942,-0.033
1748368439313998133,-0.04
1748368439321685324,-0.052000000000000005
1748368439329372515,-0.067
1748368439337059706,-0.101
1748368439344746897,-0.158
1748368439352434088,-0.209
1748368439360121279,-0.242
1748368439367808470,-0.276
1748368439375495661,-0.295
1748368439383182897,-0.293
1748368439390870088,-0.295
1748368439398557279,-0.295
1748368439406244470,-0.28600000000000003
1748368439413931661,-0.28300000000000003
1748368439421618852,-0.281
1748368439429306043,-0.271
1748368439436993234,-0.271
1748368439444680425,-0.276
1748368439452367616,-0.276
1748368439460054807,-0.276
1748368439467741998,-0.28800000000000003
1748368439475429189,-0.3
1748368439483116380,-0.305
1748368439490803571,-0.307
1748368439498490762,-0.307
1748368439506177953,-0.31
1748368439513865144,-0.312
1748368439521552335,-0.31
1748368439529239526,-0.315
1748368439536926717,-0.319
1748368439544613908,-0.319
1748368439552301099,-0.315
1748368439559988290,-0.31
1748368439567675481,-0.3
1748368439575362672,-0.293
1748368439583049863,-0.28300000000000003
1748368439590737054,-0.259
1748368439598424245,-0.252
1748368439606111436,-0.271
1748368439613798627,-0.281
1748368439621485818,-0.281
1748368439629173009,-0.281
1748368439636860200,-0.278
1748368439644547391,-0.269
1748368439652234582,-0.264
1748368439659921773,-0.28300000000000003
1748368439667608964,-0.303
1748368439675296155,-0.158
1748368439682983346,0.305
1748368439690670537,0.6970000000000001
1748368439698357728,0.363
1748368439706044919,-0.47300000000000003
1748368439713732110,-0.853
1748368439721419301,-0.601
1748368439729106492,-0.42
1748368439736793683,-0.425
1748368439744480874,-0.312
1748368439752168065,-0.211
1748368439759855256,-0.23
1748368439767542447,-0.223
1748368439775229638,-0.185
1748368439782916829,-0.185
1748368439790604020,-0.182
1748368439798291211,-0.161
1748368439805978402,-0.153
1748368439813665593,-0.146
1748368439821352784,-0.132
1748368439829039975,-0.115
1748368439836727166,-0.093
1748368439844414357,-0.064
1748368439852101548,-0.043000000000000003
1748368439859788739,-0.026000000000000002
1748368439867475930,-0.004
1748368439875163121,0.004
1748368439882850312,0.002
1748368439890537503,-0.004
1748368439898224694,-0.009000000000000001
1748368439905911885,-0.019
1748368439913599076,-0.028
1748368439921286267,-0.04
1748368439928973458,-0.069
1748368439936660649,-0.105
1748368439944347881,-0.149,105,580
1748368439952035281,-0.194,,604
1748368439959722681,-0.23800000000000002
1748368439967410081,-0.262
1748368439975097481,-0.269
1748368439982784881,-0.269
1748368439990472281,-0.269
1748368439998159681,-0.269
1748368440005847081,-0.259
1748368440013534481,-0.25
1748368440021221881,-0.25
1748368440028909281,-0.25
1748368440036596681,-0.245
1748368440044284081,-0.245
1748368440051971481,-0.25
1748368440059658881,-0.252
1748368440067346281,-0.252
1748368440075033681,-0.259
1748368440082721081,-0.264
1748368440090408481,-0.262
1748368440098095881,-0.266
1748368440105783281,-0.271
1748368440113470681,-0.269
1748368440121158081,-0.266
1748368440128845481,-0.266
1748368440136532881,-0.276
1748368440144220281,-0.278
1748368440151907681,-0.276
1748368440159595081,-0.274
1748368440167282481,-0.264
1748368440174969881,-0.25
1748368440182657281,-0.23500000000000001
1748368440190344681,-0.218
1748368440198032081,-0.216
1748368440205719481,-0.23500000000000001
1748368440213406881,-0.245
1748368440221094281,-0.24
1748368440228781681,-0.245
1748368440236469081,-0.245
1748368440244156481,-0.23800000000000002
1748368440251843881,-0.24
1748368440259531281,-0.264
1748368440267218681,-0.305
1748368440274906081,-0.197
1748368440282593481,0.228
1748368440290280881,0.678
1748368440297968281,0.536
1748368440305655681,-0.199
1748368440313343081,-0.6900000000000001
1748368440321030481,-0.531
1748368440328717881,-0.334
1748368440336405281,-0.35100000000000003
1748368440344092681,-0.28600000000000003
1748368440351780081,-0.20600000000000002
1748368440359467481,-0.226
1748368440367154881,-0.226
1748368440374842281,-0.187
1748368440382529681,-0.185
1748368440390217081,-0.189
1748368440397904481,-0.17500000000000002
1748368440405591881,-0.163
1748368440413279281,-0.153
1748368440420966681,-0.139
1748368440428654081,-0.125
1748368440436341481,-0.113
1748368440444028881,-0.098
1748368440451716281,-0.079
1748368440459403681,-0.06
1748368440467091081,-0.043000000000000003
1748368440474778481,-0.031
1748368440482465881,-0.028
1748368440490153281,-0.04
1748368440497840681,-0.055
1748368440505528122,-0.067,104,617
1748368440513215243,-0.079
1748368440520902364,-0.096
1748368440528589485,-0.12
1748368440536276606,-0.146
1748368440543963727,-0.17500000000000002
1748368440551650848,-0.20400000000000001
1748368440559337969,-0.226
1748368440567025090,-0.245
1748368440574712211,-0.257
1748368440582399332,-0.259
1748368440590086453,-0.254
1748368440597773574,-0.254
1748368440605460695,-0.257
1748368440613147816,-0.254
1748368440620834937,-0.25
1748368440628522058,-0.247
1748368440636209179,-0.245
1748368440643896300,-0.242
1748368440651583421,-0.242
1748368440659270542,-0.242
1748368440666957663,-0.242
1748368440674644784,-0.247
1748368440682331905,-0.252
1748368440690019026,-0.254
1748368440697706147,-0.257
1748368440705393268,-0.257
1748368440713080389,-0.257
1748368440720767510,-0.257
1748368440728454631,-0.259
1748368440736141752,-0.259
1748368440743828873,-0.257
1748368440751515994,-0.264
1748368440759203115,-0.274
1748368440766890236,-0.271
1748368440774577357,-0.266
1748368440782264478,-0.254
1748368440789951599,-0.24
1748368440797638720,-0.23
1748368440805325841,-0.214
1748368440813012962,-0.202
1748368440820700083,-0.221
1748368440828387204,-0.24
1748368440836074325,-0.24
1748368440843761446,-0.23500000000000001
1748368440851448567,-0.23800000000000002
1748368440859135688,-0.23500000000000001
1748368440866822809,-0.23500000000000001
1748368440874509930,-0.247
1748368440882197051,-0.28600000000000003
1748368440889884172,-0.266
1748368440897571293,0.045
1748368440905258414,0.5690000000000001
1748368440912945535,0.6920000000000001
1748368440920632656,0.088
1748368440928319777,-0.593
1748368440936006898,-0.634
1748368440943694019,-0.384
1748368440951381140,-0.35100000000000003
1748368440959068261,-0.334
1748368440966755382,-0.228
1748368440974442503,-0.209
1748368440982129624,-0.228
1748368440989816745,-0.20400000000000001
1748368440997503866,-0.189
1748368441005190987,-0.192
1748368441012878108,-0.18
1748368441020565229,-0.168
1748368441028252350,-0.165
1748368441035939471,-0.153
1748368441043626592,-0.132
1748368441051313713,-0.113
1748368441059000834,-0.098
1748368441066688019,-0.081
1748368441074375140,-0.062
1748368441082062261,-0.045
1748368441089749382,-0.033
1748368441097436503,-0.031
1748368441105123624,-0.036000000000000004
1748368441112810745,-0.048
1748368441120497866,-0.06
1748368441128184987,-0.074
1748368441135872108,-0.084
1748368441143559229,-0.10300000000000001
1748368441151246350,-0.129
1748368441158933471,-0.158
1748368441166620592,-0.187
1748368441174307713,-0.218
1748368441181994834,-0.247
1748368441189681955,-0.262
1748368441197369076,-0.266
1748368441205056197,-0.269
1748368441212743318,-0.269
1748368441220430439,-0.266
1748368441228117560,-0.262
1748368441235804681,-0.257
1748368441243491802,-0.252
1748368441251178923,-0.252
1748368441258866044,-0.252
1748368441266553165,-0.25
1748368441274240286,-0.25
1748368441281927407,-0.254
1748368441289614528,-0.257
1748368441297301649,-0.259
1748368441304988770,-0.262
1748368441312675891,-0.264
1748368441320363012,-0.264
1748368441328050133,-0.266
1748368441335737254,-0.264
1748368441343424375,-0.262
1748368441351111496,-0.264
1748368441358798617,-0.264
1748368441366485738,-0.262
1748368441374172859,-0.264
1748368441381859980,-0.271
1748368441389547101,-0.274
1748368441397234222,-0.276
1748368441404921343,-0.274
1748368441412608464,-0.259
1748368441420295585,-0.247
1748368441427982706,-0.242
1748368441435669827,-0.226
1748368441443356948,-0.211
1748368441451044069,-0.221
1748368441458731190,-0.24
1748368441466418311,-0.252
1748368441474105432,-0.25
1748368441481792553,-0.242
1748368441489479674,-0.23800000000000002
1748368441497166795,-0.24
1748368441504853916,-0.25
1748368441512541037,-0.276
1748368441520228158,-0.271
1748368441527915279,-0.016
1748368441535602400,0.5
1748368441543289521,0.709
1748368441550976642,0.17
1748368441558663763,-0.5670000000000001
1748368441566350884,-0.6990000000000001
1748368441574038005,-0.44
1748368441581725126,-0.372
1748368441589412247,-0.365
1748368441597099368,-0.254
1748368441604786489,-0.223
1748368441612473610,-0.245
1748368441620160731,-0.221
1748368441627847916,-0.202,102,598
1748368441635535037,-0.20400000000000001,,602
1748368441643222158,-0.187
1748368441650909279,-0.17
1748368441658596400,-0.17
1748368441666283521,-0.161
1748368441673970642,-0.137
1748368441681657763,-0.12
1748368441689344884,-0.10300000000000001
1748368441697032005,-0.079
1748368441704719126,-0.062
1748368441712406247,-0.048
1748368441720093368,-0.031
1748368441727780489,-0.028
1748368441735467610,-0.033
1748368441743154731,-0.038
1748368441750841852,-0.048
1748368441758528973,-0.052000000000000005
1748368441766216094,-0.057
1748368441773903215,-0.076
1748368441781590336,-0.105
1748368441789277457,-0.139
1748368441796964578,-0.177
1748368441804651699,-0.214
1748368441812338820,-0.245
1748368441820025941,-0.257
1748368441827713062,-0.266
1748368441835400183,-0.271
1748368441843087304,-0.269
1748368441850774425,-0.271
1748368441858461546,-0.274
1748368441866148667,-0.264
1748368441873835788,-0.259
1748368441881522909,-0.264
1748368441889210030,-0.264
1748368441896897151,-0.259
1748368441904584272,-0.259
1748368441912271393,-0.266
1748368441919958514,-0.266
1748368441927645635,-0.264
1748368441935332756,-0.274
1748368441943019877,-0.281
1748368441950706998,-0.274
1748368441958394119,-0.266
1748368441966081240,-0.262
1748368441973768361,-0.269
1748368441981455482,-0.278
1748368441989142603,-0.274
1748368441996829724,-0.269
1748368442004516845,-0.274
1748368442012203966,-0.271
1748368442019891087,-0.266
1748368442027578208,-0.266
1748368442035265329,-0.262
1748368442042952450,-0.25
1748368442050639571,-0.25
1748368442058326692,-0.233
1748368442066013813,-0.209
1748368442073700934,-0.218
1748368442081388055,-0.24
1748368442089075176,-0.24
1748368442096762297,-0.23500000000000001
1748368442104449418,-0.233
1748368442112136539,-0.233
1748368442119823660,-0.23
1748368442127510781,-0.233
1748368442135197902,-0.242
1748368442142885023,-0.197
1748368442150572144,0.093
1748368442158259265,0.584
1748368442165946386,0.656
1748368442173633507,-0.055
1748368442181320628,-0.767
1748368442189007813,-0.738
1748368442196695004,-0.452
1748368442204382195,-0.41600000000000004
1748368442212069386,-0.367
1748368442219756577,-0.209
1748368442227443768,-0.165
1748368442235130959,-0.197
1748368442242818150,-0.17500000000000002
1748368442250505341,-0.156
1748368442258192532,-0.156
1748368442265879723,-0.137
1748368442273566914,-0.117
1748368442281254105,-0.11
1748368442288941296,-0.098
1748368442296628487,-0.079
1748368442304315678,-0.057
1748368442312002869,-0.045
1748368442319690060,-0.031
1748368442327377251,-0.007
1748368442335064442,0.016
1748368442342751633,0.033
1748368442350438824,0.045
1748368442358126015,0.045
1748368442365813206,0.028
1748368442373500397,0.021
1748368442381187588,0.021
1748368442388874779,0.012
1748368442396561970,-0.012
1748368442404249161,-0.045
1748368442411936352,-0.093
1748368442419623543,-0.151
1748368442427310734,-0.199
1748368442434997925,-0.23800000000000002
1748368442442685116,-0.259
1748368442450372307,-0.257
1748368442458059498,-0.257
1748368442465746689,-0.262
1748368442473433880,-0.257
1748368442481121071,-0.247
1748368442488808262,-0.24
1748368442496495453,-0.233
1748368442504182644,-0.233
1748368442511869835,-0.23500000000000001
1748368442519557026,-0.23500000000000001
1748368442527244217,-0.24
1748368442534931408,-0.245
1748368442542618599,-0.242
1748368442550305790,-0.242
1748368442557992981,-0.252
1748368442565680172,-0.262
1748368442573367363,-0.262
1748368442581054554,-0.262
1748368442588741745,-0.257
1748368442596428936,-0.257
1748368442604116127,-0.266
1748368442611803318,-0.274
1748368442619490509,-0.264
1748368442627177700,-0.262
1748368442634864891,-0.266
1748368442642552082,-0.257
1748368442650239273,-0.247
1748368442657926464,-0.24
1748368442665613655,-0.216
1748368442673300846,-0.202
1748368442680988037,-0.221
1748368442688675228,-0.242
1748368442696362419,-0.24
1748368442704049610,-0.233
1748368442711736801,-0.233
1748368442719423992,-0.23
1748368442727111183,-0.226
1748368442734798374,-0.23800000000000002
1748368442742485565,-0.269
1748368442750172801,-0.17500000000000002,101,618
1748368442757859992,0.23,,631
1748368442765547183,0.6920000000000001
1748368442773234374,0.541
1748368442780921565,-0.252
1748368442788608756,-0.793
1748368442796295947,-0.639
1748368442803983138,-0.406
1748368442811670329,-0.399
1748368442819357520,-0.31
1748368442827044711,-0.185
1748368442834731902,-0.192
1748368442842419093,-0.197
1748368442850106284,-0.161
1748368442857793475,-0.156
1748368442865480666,-0.163
1748368442873167857,-0.146
1748368442880855048,-0.132
1748368442888542239,-0.12
1748368442896229430,-0.105
1748368442903916621,-0.093
1748368442911603812,-0.074
1748368442919291003,-0.055
1748368442926978194,-0.033
1748368442934665385,-0.012
1748368442942352576,0.004
1748368442950039767,0.014
1748368442957726958,0.019
1748368442965414149,0.016
1748368442973101340,0.007
1748368442980788531,-0.004
1748368442988475722,-0.016
1748368442996162913,-0.033
1748368443003850104,-0.06
1748368443011537295,-0.093
1748368443019224486,-0.134
1748368443026911677,-0.177
1748368443034598868,-0.218
1748368443042286059,-0.25
1748368443049973250,-0.266
1748368443057660441,-0.266
1748368443065347632,-0.264
1748368443073034823,-0.264
1748368443080722014,-0.259
1748368443088409205,-0.25
1748368443096096396,-0.247
1748368443103783587,-0.242
1748368443111470778,-0.24
1748368443119157969,-0.24
1748368443126845160,-0.242
1748368443134532351,-0.245
1748368443142219542,-0.25
1748368443149906733,-0.252
1748368443157593924,-0.259
1748368443165281115,-0.262
1748368443172968306,-0.262
1748368443180655497,-0.262
1748368443188342688,-0.264
1748368443196029879,-0.266
1748368443203717070,-0.266
1748368443211404261,-0.264
1748368443219091452,-0.269
1748368443226778643,-0.278
1748368443234465834,-0.278
1748368443242153025,-0.276
1748368443249840216,-0.274
1748368443257527407,-0.257
1748368443265214598,-0.245
1748368443272901789,-0.233
1748368443280588980,-0.216
1748368443288276171,-0.221
1748368443295963362,-0.242
1748368443303650553,-0.247
1748368443311337785,-0.242
1748368443319024767,-0.25
1748368443326711749,-0.247
1748368443334398731,-0.23800000000000002
1748368443342085713,-0.242
1748368443349772695,-0.271
1748368443357459677,-0.3
1748368443365146659,-0.153
1748368443372833641,0.307
1748368443380520623,0.707
1748368443388207605,0.456
1748368443395894587,-0.303
1748368443403581569,-0.704
1748368443411268551,-0.5
1748368443418955533,-0.334
1748368443426642515,-0.353
1748368443434329497,-0.278
1748368443442016479,-0.214
1748368443449703461,-0.23
1748368443457390443,-0.221
1748368443465077425,-0.194
1748368443472764407,-0.197
1748368443480451389,-0.192
1748368443488138371,-0.17300000000000001
1748368443495825353,-0.165
1748368443503512335,-0.158
1748368443511199317,-0.14400000000000002
1748368443518886299,-0.127
1748368443526573281,-0.113
1748368443534260263,-0.093
1748368443541947245,-0.07200000000000001
1748368443549634227,-0.052000000000000005
1748368443557321209,-0.038
1748368443565008191,-0.028
1748368443572695173,-0.026000000000000002
1748368443580382155,-0.033
1748368443588069137,-0.045
1748368443595756119,-0.06
1748368443603443101,-0.076
1748368443611130083,-0.096
1748368443618817065,-0.122
1748368443626504047,-0.151
1748368443634191029,-0.182
1748368443641878011,-0.209
1748368443649564993,-0.233
1748368443657251975,-0.254
1748368443664938957,-0.266
1748368443672625939,-0.266
1748368443680312921,-0.262
1748368443687999903,-0.259
1748368443695686885,-0.262
1748368443703373867,-0.259
1748368443711060849,-0.257
1748368443718747831,-0.252
1748368443726434813,-0.252
1748368443734121795,-0.252
1748368443741808777,-0.247
1748368443749495759,-0.247
1748368443757182741,-0.25
1748368443764869723,-0.25
1748368443772556705,-0.25
1748368443780243687,-0.254
1748368443787930669,-0.257
1748368443795617651,-0.259
1748368443803304633,-0.257
1748368443810991615,-0.257
1748368443818678597,-0.262
1748368443826365579,-0.259
1748368443834052561,-0.252
1748368443841739543,-0.254
1748368443849426525,-0.264
1748368443857113507,-0.269
1748368443864800489,-0.271
1748368443872487508,-0.269,100,621
1748368443880174908,-0.252
1748368443887862308,-0.24
1748368443895549708,-0.23
1748368443903237108,-0.216
1748368443910924508,-0.20600000000000002
1748368443918611908,-0.218
1748368443926299308,-0.23500000000000001
1748368443933986708,-0.23800000000000002
1748368443941674108,-0.23500000000000001
1748368443949361508,-0.233
1748368443957048908,-0.233
1748368443964736308,-0.233
1748368443972423708,-0.23800000000000002
1748368443980111108,-0.269
1748368443987798508,-0.276
1748368443995485908,-0.043000000000000003
1748368444003173308,0.468
1748368444010860708,0.731
1748368444018548108,0.266
1748368444026235508,-0.47300000000000003
1748368444033922908,-0.673
1748368444041610308,-0.428
1748368444049297708,-0.343
1748368444056985108,-0.34800000000000003
1748368444064672508,-0.242
1748368444072359908,-0.202
1748368444080047308,-0.228
1748368444087734708,-0.20600000000000002
1748368444095422108,-0.177
1748368444103109508,-0.182
1748368444110796908,-0.18
1748368444118484308,-0.161
1748368444126171708,-0.151
1748368444133859108,-0.14100000000000001
1748368444141546508,-0.127
1748368444149233908,-0.108
1748368444156921308,-0.091
1748368444164608708,-0.069
1748368444172296108,-0.05
1748368444179983508,-0.033
1748368444187670908,-0.016
1748368444195358308,-0.004
1748368444203045708,-0.012
1748368444210733108,-0.024
1748368444218420508,-0.033
1748368444226107908,-0.043000000000000003
1748368444233795308,-0.057
1748368444241482708,-0.079
1748368444249170108,-0.108
1748368444256857508,-0.14100000000000001
1748368444264544908,-0.17
1748368444272232308,-0.199
1748368444279919708,-0.228
1748368444287607108,-0.245
1748368444295294508,-0.252
1748368444302981908,-0.257
1748368444310669308,-0.257
1748368444318356708,-0.254
1748368444326044108,-0.25
1748368444333731508,-0.247
1748368444341418908,-0.242
1748368444349106308,-0.23800000000000002
1748368444356793708,-0.23800000000000002
1748368444364481108,-0.24
1748368444372168508,-0.242
1748368444379855908,-0.24
1748368444387543308,-0.23800000000000002
1748368444395230708,-0.24
1748368444402918108,-0.247
1748368444410605508,-0.25
1748368444418292908,-0.247
1748368444425980308,-0.25
1748368444433667753,-0.254
1748368444441354596,-0.257
1748368444449041439,-0.25
1748368444456728282,-0.247
1748368444464415125,-0.25
1748368444472101968,-0.247
1748368444479788811,-0.24
1748368444487475654,-0.242
1748368444495162497,-0.245
1748368444502849340,-0.245
1748368444510536183,-0.247
1748368444518223026,-0.257
1748368444525909869,-0.262
1748368444533596712,-0.252
1748368444541283555,-0.233
1748368444548970398,-0.218
1748368444556657241,-0.216
1748368444564344084,-0.20400000000000001
1748368444572030927,-0.197
1748368444579717770,-0.214
1748368444587404613,-0.23
1748368444595091456,-0.223
1748368444602778299,-0.221
1748368444610465142,-0.20600000000000002
1748368444618151985,-0.17300000000000001
1748368444625838828,-0.199
1748368444633525671,-0.269
1748368444641212514,-0.28800000000000003
1748368444648899357,-0.214
1748368444656586200,0.11
1748368444664273043,0.608
1748368444671959886,0.639
1748368444679646729,-0.045
1748368444687333572,-0.668
1748368444695020415,-0.637
1748368444702707258,-0.406
1748368444710394101,-0.384
1748368444718080944,-0.341
1748368444725767787,-0.23800000000000002
1748368444733454630,-0.216
1748368444741141473,-0.216
1748368444748828316,-0.199
1748368444756515159,-0.197
1748368444764202002,-0.20400000000000001
1748368444771888845,-0.187
1748368444779575688,-0.158
1748368444787262531,-0.151
1748368444794949374,-0.14100000000000001
1748368444802636217,-0.117
1748368444810323060,-0.108
1748368444818009903,-0.096
1748368444825696746,-0.062
1748368444833383589,-0.036000000000000004
1748368444841070432,-0.024
1748368444848757275,-0.014
1748368444856444118,-0.009000000000000001
1748368444864130961,-0.021
1748368444871817804,-0.031
1748368444879504647,-0.024
1748368444887191490,-0.031
1748368444894878333,-0.052000000000000005
1748368444902565176,-0.076
1748368444910252019,-0.105
1748368444917938862,-0.134
1748368444925625705,-0.165
1748368444933312548,-0.202
1748368444940999391,-0.245
1748368444948686234,-0.269
1748368444956373077,-0.271
1748368444964059920,-0.271
1748368444971746763,-0.274
1748368444979433606,-0.269
1748368444987120449,-0.264
1748368444994807302,-0.257,99,605
1748368445002494423,-0.245,,614
1748368445010181544,-0.25
1748368445017868665,-0.259
1748368445025555786,-0.257
1748368445033242907,-0.254
1748368445040930028,-0.259
1748368445048617149,-0.266
1748368445056304270,-0.266
1748368445063991391,-0.266
1748368445071678512,-0.264
1748368445079365633,-0.266
1748368445087052754,-0.274
1748368445094739875,-0.274
1748368445102426996,-0.269
1748368445110114117,-0.271
1748368445117801238,-0.274
1748368445125488359,-0.264
1748368445133175480,-0.257
1748368445140862601,-0.269
1748368445148549722,-0.271
1748368445156236843,-0.259
1748368445163923964,-0.259
1748368445171611085,-0.269
1748368445179298206,-0.271
1748368445186985327,-0.266
1748368445194672448,-0.259
1748368445202359569,-0.247
1748368445210046690,-0.242
1748368445217733811,-0.228
1748368445225420932,-0.20600000000000002
1748368445233108053,-0.20600000000000002
1748368445240795174,-0.233
1748368445248482295,-0.24
1748368445256169416,-0.228
1748368445263856537,-0.23
1748368445271543658,-0.23500000000000001
1748368445279230779,-0.228
1748368445286917900,-0.226
1748368445294605021,-0.242
1748368445302292142,-0.262
1748368445309979263,-0.125
1748368445317666384,0.315
1748368445325353505,0.709
1748368445333040626,0.425
1748368445340727747,-0.372
1748368445348414868,-0.781
1748368445356101989,-0.5740000000000001
1748368445363789110,-0.391
1748368445371476231,-0.387
1748368445379163352,-0.278
1748368445386850473,-0.185
1748368445394537594,-0.209
1748368445402224715,-0.209
1748368445409911836,-0.17
1748368445417598957,-0.161
1748368445425286078,-0.158
1748368445432973199,-0.14100000000000001
1748368445440660320,-0.127
1748368445448347441,-0.122
1748368445456034562,-0.11
1748368445463721683,-0.093
1748368445471408804,-0.074
1748368445479095925,-0.055
1748368445486783046,-0.036000000000000004
1748368445494470167,-0.019
1748368445502157288,0.002
1748368445509844409,0.019
1748368445517531530,0.024
1748368445525218651,0.012
1748368445532905772,0.002
1748368445540592893,-0.004
1748368445548280014,-0.012
1748368445555967199,-0.033,99,628
1748368445563654390,-0.055
1748368445571341581,-0.079
1748368445579028772,-0.115
1748368445586715963,-0.158
1748368445594403154,-0.199
1748368445602090345,-0.23
1748368445609777536,-0.25
1748368445617464727,-0.25
1748368445625151918,-0.242
1748368445632839109,-0.242
1748368445640526300,-0.242
1748368445648213491,-0.24
1748368445655900682,-0.233
1748368445663587873,-0.228
1748368445671275064,-0.226
1748368445678962255,-0.221
1748368445686649446,-0.226
1748368445694336637,-0.228
1748368445702023828,-0.226
1748368445709711019,-0.233
1748368445717398210,-0.24
1748368445725085401,-0.23500000000000001
1748368445732772592,-0.233
1748368445740459783,-0.242
1748368445748146974,-0.247
1748368445755834165,-0.242
1748368445763521356,-0.23
1748368445771208547,-0.223
1748368445778895738,-0.223
1748368445786582929,-0.221
1748368445794270120,-0.216
1748368445801957311,-0.233
1748368445809644502,-0.25
1748368445817331693,-0.242
1748368445825018884,-0.233
1748368445832706075,-0.23800000000000002
1748368445840393266,-0.23500000000000001
1748368445848080457,-0.228
1748368445855767648,-0.20400000000000001
1748368445863454839,-0.158
1748368445871142030,-0.158
1748368445878829221,-0.20400000000000001
1748368445886516412,-0.199
1748368445894203603,-0.192
1748368445901890794,-0.216
1748368445909577985,-0.20400000000000001
1748368445917265176,-0.17300000000000001
1748368445924952367,-0.177
1748368445932639558,-0.187
1748368445940326749,-0.187
1748368445948013940,-0.226
1748368445955701131,-0.223
1748368445963388322,0.043000000000000003
1748368445971075513,0.555
1748368445978762704,0.764
1748368445986449895,0.264
1748368445994137086,-0.452
1748368446001824277,-0.644
1748368446009511468,-0.41600000000000004
1748368446017198659,-0.305
1748368446024885850,-0.293
1748368446032573041,-0.209
1748368446040260232,-0.153
1748368446047947423,-0.146
1748368446055634614,-0.139
1748368446063321805,-0.137
1748368446071008996,-0.125
1748368446078696187,-0.105
1748368446086383378,-0.105
1748368446094070569,-0.08600000000000001
1748368446101757760,-0.05
1748368446109444951,-0.045
1748368446117132187,-0.048
1748368446124819239,-0.028
1748368446132506291,-0.019
1748368446140193343,0.014
1748368446147880395,0.07200000000000001
1748368446155567447,0.067
1748368446163254499,0.05
1748368446170941551,0.074
1748368446178628603,0.07200000000000001
1748368446186315655,0.04
1748368446194002707,0.026000000000000002
1748368446201689759,0.021
1748368446209376811,0.009000000000000001
1748368446217063863,0.004
1748368446224750915,-0.021
1748368446232437967,-0.096
1748368446240125019,-0.151
1748368446247812071,-0.151
1748368446255499123,-0.165
1748368446263186175,-0.202
1748368446270873227,-0.199
1748368446278560279,-0.17500000000000002
1748368446286247331,-0.161
1748368446293934383,-0.151
1748368446301621435,-0.182
1748368446309308487,-0.214
1748368446316995539,-0.194
1748368446324682591,-0.197
1748368446332369643,-0.192
1748368446340056695,-0.14400000000000002
1748368446347743747,-0.156
1748368446355430799,-0.185
1748368446363117851,-0.17500000000000002
1748368446370804903,-0.20600000000000002
1748368446378491955,-0.23800000000000002
1748368446386179007,-0.226
1748368446393866059,-0.214
1748368446401553111,-0.189
1748368446409240163,-0.194
1748368446416927215,-0.223
1748368446424614267,-0.233
1748368446432301319,-0.24
1748368446439988371,-0.24
1748368446447675423,-0.242
1748368446455362475,-0.247
1748368446463049527,-0.226
1748368446470736579,-0.226
1748368446478423631,-0.262
1748368446486110683,-0.274
1748368446493797735,-0.264
1748368446501484787,-0.29
1748368446509171839,-0.307
1748368446516858891,-0.257
1748368446524545943,-0.228
1748368446532232995,-0.252
1748368446539920047,-0.25
1748368446547607099,-0.259
1748368446555294151,-0.298
1748368446562981203,-0.305
1748368446570668255,-0.295
1748368446578355307,-0.31
1748368446586042359,-0.331
1748368446593729411,-0.331
1748368446601416463,-0.339
1748368446609103515,-0.384
1748368446616790567,-0.377
1748368446624477619,-0.07200000000000001
1748368446632164671,0.464
1748368446639851723,0.577
1748368446647538775,-0.057
1748368446655225827,-0.779
1748368446662912879,-0.87
1748368446670599931,-0.62
1748368446678286997,-0.562,97,658
1748368446685974118,-0.553,,658
1748368446693661239,-0.444
1748368446701348360,-0.40800000000000003
1748368446709035481,-0.43
1748368446716722602,-0.418
1748368446724409723,-0.404
1748368446732096844,-0.404
1748368446739783965,-0.399
1748368446747471086,-0.391
1748368446755158207,-0.384
1748368446762845328,-0.377
1748368446770532449,-0.372
1748368446778219570,-0.358
1748368446785906691,-0.334
1748368446793593812,-0.31
1748368446801280933,-0.28800000000000003
1748368446808968054,-0.269
1748368446816655175,-0.262
1748368446824342296,-0.252
1748368446832029417,-0.242
1748368446839716538,-0.257
1748368446847403659,-0.276
1748368446855090780,-0.29
1748368446862777901,-0.31
1748368446870465022,-0.329
1748368446878152143,-0.35100000000000003
1748368446885839264,-0.384
1748368446893526385,-0.428
1748368446901213506,-0.47100000000000003
1748368446908900627,-0.505
1748368446916587748,-0.521
1748368446924274869,-0.536
1748368446931961990,-0.541
1748368446939649111,-0.533
1748368446947336232,-0.533
1748368446955023353,-0.536
1748368446962710474,-0.531
1748368446970397595,-0.521
1748368446978084716,-0.512
1748368446985771837,-0.502
1748368446993458958,-0.505
1748368447001146079,-0.514
1748368447008833200,-0.509
1748368447016520321,-0.509
1748368447024207442,-0.514
1748368447031894563,-0.505
1748368447039581684,-0.502
1748368447047268805,-0.512
1748368447054955926,-0.5
1748368447062643047,-0.485
1748368447070330168,-0.495
1748368447078017289,-0.502
1748368447085704410,-0.49
1748368447093391531,-0.485
1748368447101078652,-0.483
1748368447108765773,-0.47800000000000004
1748368447116452894,-0.47600000000000003
1748368447124140015,-0.47600000000000003
1748368447131827136,-0.47100000000000003
1748368447139514257,-0.456
1748368447147201378,-0.447
1748368447154888499,-0.444
1748368447162575620,-0.42
1748368447170262741,-0.394
1748368447177949862,-0.404
1748368447185636983,-0.423
1748368447193324104,-0.418
1748368447201011225,-0.41100000000000003
1748368447208698346,-0.41300000000000003
1748368447216385467,-0.41100000000000003
1748368447224072588,-0.406
1748368447231759709,-0.40800000000000003
1748368447239446894,-0.42
1748368447247134015,-0.423
1748368447254821136,-0.242
1748368447262508257,0.254
1748368447270195378,0.601
1748368447277882499,0.182
1748368447285569620,-0.632
1748368447293256741,-0.9570000000000001
1748368447300943862,-0.738
1748368447308630983,-0.581
1748368447316318104,-0.56
1748368447324005225,-0.432
1748368447331692346,-0.336
1748368447339379467,-0.34600000000000003
1748368447347066588,-0.336
1748368447354753709,-0.307
1748368447362440830,-0.295
1748368447370127951,-0.28300000000000003
1748368447377815072,-0.271
1748368447385502193,-0.266
1748368447393189314,-0.254
1748368447400876435,-0.23
1748368447408563556,-0.211
1748368447416250677,-0.194
1748368447423937798,-0.17
1748368447431624919,-0.14400000000000002
1748368447439312040,-0.12
1748368447446999161,-0.10300000000000001
1748368447454686282,-0.088
1748368447462373403,-0.076
1748368447470060524,-0.081
1748368447477747645,-0.101
1748368447485434766,-0.108
1748368447493121887,-0.108
1748368447500809008,-0.132
1748368447508496129,-0.168
1748368447516183250,-0.199
1748368447523870371,-0.23800000000000002
1748368447531557492,-0.28600000000000003
1748368447539244613,-0.327
1748368447546931734,-0.355
1748368447554618855,-0.375
1748368447562305976,-0.377
1748368447569993097,-0.365
1748368447577680218,-0.36
1748368447585367339,-0.367
1748368447593054460,-0.358
1748368447600741581,-0.339
1748368447608428702,-0.334
1748368447616115823,-0.331
1748368447623802944,-0.324
1748368447631490065,-0.322
1748368447639177186,-0.327
1748368447646864307,-0.331
1748368447654551428,-0.329
1748368447662238549,-0.329
1748368447669925670,-0.334
1748368447677612791,-0.341
1748368447685299912,-0.343
1748368447692987033,-0.341
1748368447700674154,-0.339
1748368447708361275,-0.339
1748368447716048396,-0.336
1748368447723735517,-0.334
1748368447731422638,-0.329
1748368447739109759,-0.327
1748368447746796880,-0.327
1748368447754484001,-0.336
1748368447762171122,-0.341
1748368447769858243,-0.329
1748368447777545364,-0.312
1748368447785232485,-0.3
1748368447792919606,-0.28600000000000003
1748368447800606791,-0.259,96,651
1748368447808293912,-0.247
1748368447815981033,-0.274
1748368447823668154,-0.29
1748368447831355275,-0.28300000000000003
1748368447839042396,-0.278
1748368447846729517,-0.28300000000000003
1748368447854416638,-0.28300000000000003
1748368447862103759,-0.271
1748368447869790880,-0.271
1748368447877478001,-0.315
1748368447885165122,-0.293
1748368447892852243,0.031
1748368447900539364,0.5670000000000001
1748368447908226485,0.6970000000000001
1748368447915913606,0.101
1748368447923600727,-0.62
1748368447931287848,-0.74
1748368447938974969,-0.485
1748368447946662090,-0.401
1748368447954349211,-0.375
1748368447962036332,-0.269
1748368447969723453,-0.242
1748368447977410574,-0.264
1748368447985097695,-0.23500000000000001
1748368447992784816,-0.209
1748368448000471937,-0.209
1748368448008159058,-0.199
1748368448015846179,-0.182
1748368448023533300,-0.177
1748368448031220421,-0.163
1748368448038907542,-0.137
1748368448046594663,-0.12
1748368448054281784,-0.105
1748368448061968905,-0.079
1748368448069656026,-0.055
1748368448077343147,-0.033
1748368448085030268,-0.009000000000000001
1748368448092717389,0.007
1748368448100404510,0.004
1748368448108091631,-0.007
1748368448115778752,-0.012
1748368448123465873,-0.021
1748368448131152994,-0.045
1748368448138840115,-0.069
1748368448146527236,-0.093
1748368448154214357,-0.127
1748368448161901478,-0.165
1748368448169588599,-0.197
1748368448177275720,-0.23
1748368448184962841,-0.254
1748368448192649962,-0.259
1748368448200337083,-0.259
1748368448208024204,-0.259
1748368448215711325,-0.257
1748368448223398446,-0.252
1748368448231085567,-0.247
1748368448238772688,-0.242
1748368448246459809,-0.24
1748368448254146930,-0.228
1748368448261834051,-0.216
1748368448269521172,-0.223
1748368448277208293,-0.23
1748368448284895414,-0.221
1748368448292582535,-0.221
1748368448300269656,-0.228
1748368448307956777,-0.228
1748368448315643898,-0.223
1748368448323331019,-0.226
1748368448331018140,-0.226
1748368448338705261,-0.221
1748368448346392382,-0.218
1748368448354079503,-0.218
1748368448361766688,-0.216
1748368448369453809,-0.218
1748368448377140930,-0.218
1748368448384828051,-0.216
1748368448392515172,-0.214
1748368448400202293,-0.216
1748368448407889414,-0.214
1748368448415576535,-0.194
1748368448423263656,-0.182
1748368448430950777,-0.17500000000000002
1748368448438637898,-0.156
1748368448446325019,-0.14100000000000001
1748368448454012140,-0.158
1748368448461699261,-0.17500000000000002
1748368448469386382,-0.17300000000000001
1748368448477073503,-0.17
1748368448484760624,-0.17
1748368448492447745,-0.168
1748368448500134866,-0.161
1748368448507821987,-0.17
1748368448515509108,-0.211
1748368448523196229,-0.197
1748368448530883350,0.096
1748368448538570471,0.634
1748368448546257592,0.8240000000000001
1748368448553944713,0.28300000000000003
1748368448561631834,-0.454
1748368448569318955,-0.634
1748368448577006076,-0.394
1748368448584693197,-0.3
1748368448592380318,-0.28300000000000003
1748368448600067439,-0.17
1748368448607754560,-0.137
1748368448615441681,-0.165
1748368448623128802,-0.14100000000000001
1748368448630815923,-0.11
1748368448638503044,-0.115
1748368448646190165,-0.10300000000000001
1748368448653877286,-0.08600000000000001
1748368448661564407,-0.079
1748368448669251528,-0.064
1748368448676938649,-0.05
1748368448684625770,-0.036000000000000004
1748368448692312891,-0.012
1748368448700000012,0.009000000000000001
1748368448707687133,0.031
1748368448715374254,0.057
1748368448723061375,0.081
1748368448730748496,0.091
1748368448738435617,0.093
1748368448746122738,0.08600000000000001
1748368448753809859,0.074
1748368448761496980,0.062
1748368448769184101,0.045
1748368448776871222,0.019
1748368448784558343,-0.009000000000000001
1748368448792245464,-0.045
1748368448799932585,-0.079
1748368448807619706,-0.113
1748368448815306827,-0.14400000000000002
1748368448822993948,-0.163
1748368448830681069,-0.177
1748368448838368190,-0.182
1748368448846055311,-0.177
1748368448853742432,-0.17
1748368448861429553,-0.168
1748368448869116674,-0.163
1748368448876803795,-0.158
1748368448884490916,-0.153
1748368448892178037,-0.151
1748368448899865158,-0.151
1748368448907552279,-0.146
1748368448915239400,-0.146
1748368448922926585,-0.146,95,660
1748368448930613706,-0.146,,633
1748368448938300827,-0.149
1748368448945987948,-0.156
1748368448953675069,-0.156
1748368448961362190,-0.149
1748368448969049311,-0.151
1748368448976736432,-0.153
1748368448984423553,-0.149
1748368448992110674,-0.149
1748368448999797795,-0.153
1748368449007484916,-0.151
1748368449015172037,-0.14400000000000002
1748368449022859158,-0.14400000000000002
1748368449030546279,-0.149
1748368449038233400,-0.153
1748368449045920521,-0.153
1748368449053607642,-0.149
1748368449061294763,-0.134
1748368449068981884,-0.12
1748368449076669005,-0.115
1748368449084356126,-0.101
1748368449092043247,-0.084
1748368449099730368,-0.098
1748368449107417489,-0.125
1748368449115104610,-0.125
1748368449122791731,-0.12
1748368449130478852,-0.125
1748368449138165973,-0.122
1748368449145853094,-0.113
1748368449153540215,-0.12
1748368449161227336,-0.156
1748368449168914457,-0.17500000000000002
1748368449176601578,0.031
1748368449184288699,0.55
1748368449191975820,0.887
1748368449199662941,0.495
1748368449207350062,-0.28300000000000003
1748368449215037183,-0.618
1748368449222724304,-0.41100000000000003
1748368449230411425,-0.264
1748368449238098546,-0.266
1748368449245785667,-0.17500000000000002
1748368449253472788,-0.11
1748368449261159909,-0.127
1748368449268847030,-0.113
1748368449276534151,-0.084
1748368449284221272,-0.08600000000000001
1748368449291908393,-0.081
1748368449299595514,-0.064
1748368449307282635,-0.057
1748368449314969756,-0.045
1748368449322656877,-0.026000000000000002
1748368449330343998,-0.014
1748368449338031119,0.004
1748368449345718240,0.033
1748368449353405361,0.052000000000000005
1748368449361092482,0.069
1748368449368779603,0.098
1748368449376466724,0.113
1748368449384153845,0.113
1748368449391840966,0.113
1748368449399528087,0.10300000000000001
1748368449407215208,0.08600000000000001
1748368449414902329,0.069
1748368449422589450,0.048
1748368449430276571,0.021
1748368449437963692,-0.014
1748368449445650813,-0.05
1748368449453337934,-0.084
1748368449461025055,-0.125
1748368449468712176,-0.156
1748368449476399297,-0.165
1748368449484086486,-0.17,94,636
1748368449491773607,-0.17500000000000002
1748368449499460728,-0.17
1748368449507147849,-0.168
1748368449514834970,-0.163
1748368449522522091,-0.156
1748368449530209212,-0.153
1748368449537896333,-0.156
1748368449545583454,-0.156
1748368449553270575,-0.151
1748368449560957696,-0.151
1748368449568644817,-0.156
1748368449576331938,-0.156
1748368449584019059,-0.153
1748368449591706180,-0.156
1748368449599393301,-0.158
1748368449607080422,-0.156
1748368449614767543,-0.158
1748368449622454664,-0.165
1748368449630141785,-0.165
1748368449637828906,-0.163
1748368449645516027,-0.165
1748368449653203148,-0.158
1748368449660890269,-0.156
1748368449668577390,-0.165
1748368449676264511,-0.168
1748368449683951632,-0.168
1748368449691638753,-0.17
1748368449699325874,-0.156
1748368449707012995,-0.14100000000000001
1748368449714700116,-0.139
1748368449722387237,-0.122
1748368449730074358,-0.105
1748368449737761479,-0.122
1748368449745448600,-0.14400000000000002
1748368449753135721,-0.146
1748368449760822842,-0.14400000000000002
1748368449768509963,-0.146
1748368449776197084,-0.14100000000000001
1748368449783884205,-0.134
1748368449791571326,-0.137
1748368449799258447,-0.158
1748368449806945568,-0.122
1748368449814632689,0.187
1748368449822319810,0.714
1748368449830006931,0.803
1748368449837694052,0.11
1748368449845381173,-0.598
1748368449853068294,-0.627
1748368449860755415,-0.377
1748368449868442536,-0.324
1748368449876129657,-0.281
1748368449883816778,-0.139
1748368449891503899,-0.096
1748368449899191020,-0.12
1748368449906878141,-0.093
1748368449914565262,-0.067
1748368449922252383,-0.07200000000000001
1748368449929939504,-0.06
1748368449937626625,-0.043000000000000003
1748368449945313746,-0.033
1748368449953000867,-0.016
1748368449960687988,-0.002
1748368449968375109,0.012
1748368449976062230,0.033
1748368449983749351,0.06
1748368449991436472,0.08600000000000001
1748368449999123593,0.11
1748368450006810714,0.127
1748368450014497835,0.137
1748368450022184956,0.14400000000000002
1748368450029872077,0.137
1748368450037559198,0.122
1748368450045246383,0.108
1748368450052933504,0.091
1748368450060620625,0.07200000000000001
1748368450068307746,0.038
1748368450075994867,-0.004
1748368450083681988,-0.055
1748368450091369109,-0.101
1748368450099056230,-0.14400000000000002
1748368450106743351,-0.177
1748368450114430472,-0.192
1748368450122117593,-0.192
1748368450129804714,-0.189
1748368450137491835,-0.187
1748368450145178956,-0.177
1748368450152866077,-0.165
1748368450160553198,-0.156
1748368450168240319,-0.149
1748368450175927440,-0.14100000000000001
1748368450183614561,-0.14100000000000001
1748368450191301682,-0.14100000000000001
1748368450198988803,-0.14100000000000001
1748368450206675924,-0.149
1748368450214363045,-0.151
1748368450222050166,-0.153
1748368450229737287,-0.158
1748368450237424408,-0.165
1748368450245111529,-0.168
1748368450252798650,-0.168
1748368450260485771,-0.168
1748368450268172892,-0.17300000000000001
1748368450275860013,-0.18
1748368450283547134,-0.177
1748368450291234255,-0.177
1748368450298921376,-0.18
1748368450306608497,-0.17300000000000001
1748368450314295618,-0.161
1748368450321982739,-0.153
1748368450329669860,-0.137
1748368450337356981,-0.117
1748368450345044102,-0.122
1748368450352731223,-0.137
1748368450360418344,-0.14100000000000001
1748368450368105465,-0.14100000000000001
1748368450375792586,-0.146
1748368450383479707,-0.139
1748368450391166828,-0.134
1748368450398853949,-0.14100000000000001
1748368450406541070,-0.163
1748368450414228191,-0.185
1748368450421915312,-0.028
1748368450429602433,0.466
1748368450437289554,0.887
1748368450444976675,0.581
1748368450452663796,-0.245
1748368450460350917,-0.682
1748368450468038038,-0.492
1748368450475725159,-0.307
1748368450483412280,-0.303
1748368450491099401,-0.20600000000000002
1748368450498786522,-0.11
1748368450506473643,-0.127
1748368450514160764,-0.127
1748368450521847885,-0.088
1748368450529535006,-0.084
1748368450537222127,-0.084
1748368450544909248,-0.069
1748368450552596369,-0.06
1748368450560283490,-0.048
1748368450567970611,-0.028
1748368450575657732,-0.009000000000000001
1748368450583344853,0.007
1748368450591031974,0.024
1748368450598719095,0.043000000000000003
1748368450606406280,0.064,94,639
1748368450614093401,0.091,,647
1748368450621780522,0.113
1748368450629467643,0.12
1748368450637154764,0.117
1748368450644841885,0.11
1748368450652529006,0.098
1748368450660216127,0.084
1748368450667903248,0.062
1748368450675590369,0.031
1748368450683277490,-0.012
1748368450690964611,-0.055
1748368450698651732,-0.091
1748368450706338853,-0.129
1748368450714025974,-0.163
1748368450721713095,-0.182
1748368450729400216,-0.187
1748368450737087337,-0.187
1748368450744774458,-0.182
1748368450752461579,-0.17500000000000002
1748368450760148700,-0.168
1748368450767835821,-0.158
1748368450775522942,-0.153
1748368450783210063,-0.153
1748368450790897184,-0.151
1748368450798584305,-0.146
1748368450806271426,-0.149
1748368450813958547,-0.153
1748368450821645668,-0.153
1748368450829332789,-0.153
1748368450837019910,-0.158
1748368450844707031,-0.165
1748368450852394152,-0.165
1748368450860081273,-0.165
1748368450867768394,-0.165
1748368450875455515,-0.168
1748368450883142636,-0.168
1748368450890829757,-0.17
1748368450898516878,-0.17500000000000002
1748368450906203999,-0.177
1748368450913891120,-0.18
1748368450921578241,-0.18
1748368450929265362,-0.17
1748368450936952483,-0.153
1748368450944639604,-0.14400000000000002
1748368450952326725,-0.129
1748368450960013846,-0.11
1748368450967700967,-0.115
1748368450975388088,-0.14100000000000001
1748368450983075209,-0.151
1748368450990762330,-0.149
1748368450998449451,-0.146
1748368451006136572,-0.14400000000000002
1748368451013823693,-0.139
1748368451021510814,-0.139
1748368451029197935,-0.165
1748368451036885056,-0.20600000000000002
1748368451044572177,-0.08600000000000001
1748368451052259298,0.375
1748368451059946419,0.841
1748368451067633540,0.6970000000000001
1748368451075320661,-0.038
1748368451083007782,-0.5740000000000001
1748368451090694903,-0.48
1748368451098382024,-0.278
1748368451106069145,-0.274
1748368451113756266,-0.214
1748368451121443387,-0.129
1748368451129130508,-0.139
1748368451136817629,-0.14400000000000002
1748368451144504750,-0.11
1748368451152191871,-0.10300000000000001
1748368451159878992,-0.10300000000000001
1748368451167566177,-0.088
1748368451175253298,-0.081
1748368451182940419,-0.069
1748368451190627540,-0.05
1748368451198314661,-0.036000000000000004
1748368451206001782,-0.024
1748368451213688903,-0.004
1748368451221376024,0.019
1748368451229063145,0.043000000000000003
1748368451236750266,0.067
1748368451244437387,0.088
1748368451252124508,0.098
1748368451259811629,0.096
1748368451267498750,0.08600000000000001
1748368451275185871,0.074
1748368451282872992,0.06
1748368451290560113,0.036000000000000004
1748368451298247234,-0.002
1748368451305934355,-0.038
1748368451313621476,-0.067
1748368451321308597,-0.11
1748368451328995718,-0.14400000000000002
1748368451336682839,-0.163
1748368451344369960,-0.182
1748368451352057081,-0.194
1748368451359744202,-0.194
1748368451367431323,-0.189
1748368451375118444,-0.187
1748368451382805565,-0.185
1748368451390492686,-0.18
1748368451398179807,-0.177
1748368451405866928,-0.17500000000000002
1748368451413554049,-0.17
1748368451421241170,-0.168
1748368451428928291,-0.163
1748368451436615412,-0.161
1748368451444302533,-0.165
1748368451451989654,-0.17
1748368451459676775,-0.17300000000000001
1748368451467363896,-0.17
1748368451475051017,-0.17300000000000001
1748368451482738138,-0.17500000000000002
1748368451490425259,-0.17500000000000002
1748368451498112380,-0.17500000000000002
1748368451505799501,-0.17500000000000002
1748368451513486622,-0.17500000000000002
1748368451521173743,-0.17300000000000001
1748368451528860864,-0.17
1748368451536547985,-0.17
1748368451544235106,-0.17300000000000001
1748368451551922227,-0.177
1748368451559609348,-0.185
1748368451567296469,-0.177
1748368451574983590,-0.163
1748368451582670711,-0.151
1748368451590357832,-0.14400000000000002
1748368451598044953,-0.129
1748368451605732074,-0.113
1748368451613419195,-0.115
1748368451621106316,-0.137
1748368451628793437,-0.146
1748368451636480558,-0.14100000000000001
1748368451644167679,-0.14400000000000002
1748368451651854800,-0.14400000000000002
1748368451659541921,-0.137
1748368451667229042,-0.137
1748368451674916163,-0.163
1748368451682603284,-0.20600000000000002
1748368451690290405,-0.127
1748368451697977526,0.281
1748368451705664647,0.786
1748368451713351768,0.752
1748368451721038889,0.06
1748368451728726074,-0.553,94,635
1748368451736413195,-0.536,,611
1748368451744100316,-0.31
1748368451751787437,-0.28600000000000003
1748368451759474558,-0.245
1748368451767161679,-0.149
1748368451774848800,-0.14100000000000001
1748368451782535921,-0.153
1748368451790223042,-0.122
1748368451797910163,-0.108
1748368451805597284,-0.11
1748368451813284405,-0.098
1748368451820971526,-0.084
1748368451828658647,-0.076
1748368451836345768,-0.062
1748368451844032889,-0.048
1748368451851720010,-0.028
1748368451859407131,-0.009000000000000001
1748368451867094252,0.012
1748368451874781373,0.036000000000000004
1748368451882468494,0.06
1748368451890155615,0.076
1748368451897842736,0.088
1748368451905529857,0.093
1748368451913216978,0.08600000000000001
1748368451920904099,0.074
1748368451928591220,0.057
1748368451936278341,0.036000000000000004
1748368451943965462,0.007
1748368451951652583,-0.024
1748368451959339704,-0.062
1748368451967026825,-0.098
1748368451974713946,-0.132
1748368451982401067,-0.165
1748368451990088188,-0.189
1748368451997775309,-0.199
1748368452005462430,-0.199
1748368452013149551,-0.197
1748368452020836672,-0.192
1748368452028523793,-0.187
1748368452036210914,-0.185
1748368452043898035,-0.185
1748368452051585156,-0.177
1748368452059272277,-0.168
1748368452066959398,-0.17300000000000001
1748368452074646519,-0.17500000000000002
1748368452082333640,-0.17
1748368452090020761,-0.168
1748368452097707882,-0.17
1748368452105395003,-0.17500000000000002
1748368452113082124,-0.18
1748368452120769245,-0.177
1748368452128456366,-0.17500000000000002
1748368452136143487,-0.18
1748368452143830608,-0.182
1748368452151517729,-0.185
1748368452159204850,-0.185
1748368452166891971,-0.18
1748368452174579092,-0.18
1748368452182266213,-0.185
1748368452189953334,-0.185
1748368452197640455,-0.182
1748368452205327576,-0.18
1748368452213014697,-0.177
1748368452220701818,-0.18
1748368452228388939,-0.187
1748368452236076060,-0.189
1748368452243763181,-0.187
1748368452251450302,-0.187
1748368452259137423,-0.177
1748368452266824544,-0.165
1748368452274511665,-0.158
1748368452282198786,-0.14400000000000002
1748368452289885971,-0.129
1748368452297573092,-0.14400000000000002
1748368452305260213,-0.168
1748368452312947334,-0.17300000000000001
1748368452320634455,-0.168
1748368452328321576,-0.168
1748368452336008697,-0.165
1748368452343695818,-0.168
1748368452351382939,-0.17500000000000002
1748368452359070060,-0.199
1748368452366757181,-0.221
1748368452374444302,-0.05
1748368452382131423,0.449
1748368452389818544,0.8150000000000001
1748368452397505665,0.456
1748368452405192786,-0.322
1748368452412879907,-0.678
1748368452420567028,-0.483
1748368452428254149,-0.329
1748368452435941270,-0.331
1748368452443628391,-0.242
1748368452451315512,-0.158
1748368452459002633,-0.168
1748368452466689754,-0.165
1748368452474376875,-0.14100000000000001
1748368452482063996,-0.137
1748368452489751117,-0.132
1748368452497438238,-0.117
1748368452505125359,-0.105
1748368452512812480,-0.091
1748368452520499601,-0.074
1748368452528186722,-0.062
1748368452535873843,-0.043000000000000003
1748368452543560964,-0.019
1748368452551248085,0.0
1748368452558935206,0.026000000000000002
1748368452566622327,0.05
1748368452574309448,0.067
1748368452581996569,0.07200000000000001
1748368452589683690,0.074
1748368452597370811,0.069
1748368452605057932,0.057
1748368452612745053,0.04
1748368452620432174,0.019
1748368452628119295,-0.004
1748368452635806416,-0.038
1748368452643493537,-0.079
1748368452651180658,-0.117
1748368452658867779,-0.158
1748368452666554900,-0.197
1748368452674242021,-0.216
1748368452681929142,-0.223
1748368452689616263,-0.233
1748368452697303384,-0.23500000000000001
1748368452704990505,-0.226
1748368452712677626,-0.221
1748368452720364747,-0.216
1748368452728051868,-0.209
1748368452735738989,-0.199
1748368452743426110,-0.202
1748368452751113231,-0.20600000000000002
1748368452758800352,-0.202
1748368452766487473,-0.197
1748368452774174594,-0.197
1748368452781861715,-0.199
1748368452789548836,-0.20400000000000001
1748368452797235957,-0.214
1748368452804923078,-0.216
1748368452812610199,-0.216
1748368452820297320,-0.218
1748368452827984441,-0.223
1748368452835671562,-0.221
1748368452843358683,-0.216
1748368452851045872,-0.214,94,624
1748368452858732715,-0.211
1748368452866419558,-0.20600000000000002
1748368452874106401,-0.209
1748368452881793244,-0.216
1748368452889480087,-0.216
1748368452897166930,-0.211
1748368452904853773,-0.216
1748368452912540616,-0.221
1748368452920227459,-0.209
1748368452927914302,-0.189
1748368452935601145,-0.182
1748368452943287988,-0.163
1748368452950974831,-0.151
1748368452958661674,-0.168
1748368452966348517,-0.185
1748368452974035360,-0.182
1748368452981722203,-0.182
1748368452989409046,-0.182
1748368452997095889,-0.177
1748368453004782732,-0.17300000000000001
1748368453012469575,-0.182
1748368453020156418,-0.214
1748368453027843261,-0.168
1748368453035530104,0.165
1748368453043216947,0.682
1748368453050903790,0.731
1748368453058590633,0.012
1748368453066277476,-0.68
1748368453073964319,-0.668
1748368453081651162,-0.40800000000000003
1748368453089338005,-0.372
1748368453097024848,-0.329
1748368453104711691,-0.187
1748368453112398534,-0.14400000000000002
1748368453120085377,-0.161
1748368453127772220,-0.137
1748368453135459063,-0.117
1748368453143145906,-0.117
1748368453150832749,-0.11
1748368453158519592,-0.101
1748368453166206435,-0.091
1748368453173893278,-0.076
1748368453181580121,-0.062
1748368453189266964,-0.043000000000000003
1748368453196953807,-0.021
1748368453204640650,0.0
1748368453212327493,0.026000000000000002
1748368453220014336,0.055
1748368453227701179,0.074
1748368453235388022,0.08600000000000001
1748368453243074865,0.096
1748368453250761708,0.093
1748368453258448551,0.084
1748368453266135394,0.067
1748368453273822237,0.04
1748368453281509080,0.009000000000000001
1748368453289195923,-0.021
1748368453296882766,-0.057
1748368453304569609,-0.10300000000000001
1748368453312256452,-0.146
1748368453319943295,-0.189
1748368453327630138,-0.226
1748368453335316981,-0.245
1748368453343003824,-0.242
1748368453350690667,-0.23800000000000002
1748368453358377510,-0.242
1748368453366064353,-0.23800000000000002
1748368453373751196,-0.223
1748368453381438039,-0.209
1748368453389124882,-0.202
1748368453396811725,-0.194
1748368453404498568,-0.187
1748368453412185425,-0.189
1748368453419872407,-0.194
1748368453427559389,-0.192
1748368453435246371,-0.192
1748368453442933353,-0.199
1748368453450620335,-0.202
1748368453458307317,-0.197
1748368453465994299,-0.20400000000000001
1748368453473681281,-0.209
1748368453481368263,-0.20400000000000001
1748368453489055245,-0.209
1748368453496742227,-0.214
1748368453504429209,-0.20600000000000002
1748368453512116191,-0.209
1748368453519803173,-0.218
1748368453527490155,-0.221
1748368453535177137,-0.221
1748368453542864119,-0.226
1748368453550551101,-0.214
1748368453558238083,-0.192
1748368453565925065,-0.187
1748368453573612047,-0.18
1748368453581299029,-0.156
1748368453588986011,-0.149
1748368453596672993,-0.17
1748368453604359975,-0.187
1748368453612046957,-0.182
1748368453619733939,-0.17500000000000002
1748368453627420921,-0.177
1748368453635107903,-0.177
1748368453642794885,-0.17
1748368453650481867,-0.185
1748368453658168849,-0.23
1748368453665855831,-0.158
1748368453673542813,0.247
1748368453681229795,0.769
1748368453688916777,0.733
1748368453696603759,-0.002
1748368453704290741,-0.644
1748368453711977723,-0.601
1748368453719664705,-0.353
1748368453727351687,-0.331
1748368453735038669,-0.281
1748368453742725651,-0.168
1748368453750412633,-0.163
1748368453758099615,-0.18
1748368453765786597,-0.14400000000000002
1748368453773473579,-0.129
1748368453781160561,-0.137
1748368453788847543,-0.122
1748368453796534525,-0.11
1748368453804221507,-0.105
1748368453811908489,-0.096
1748368453819595471,-0.076
1748368453827282453,-0.057
1748368453834969435,-0.04
1748368453842656417,-0.024
1748368453850343399,0.0
1748368453858030381,0.031
1748368453865717363,0.055
1748368453873404345,0.067
1748368453881091327,0.074
1748368453888778309,0.069
1748368453896465291,0.062
1748368453904152273,0.05
1748368453911839255,0.024
1748368453919526237,-0.012
1748368453927213219,-0.05
1748368453934900201,-0.088
1748368453942587183,-0.129
1748368453950274165,-0.168
1748368453957961147,-0.202
1748368453965648129,-0.223
1748368453973335148,-0.23800000000000002,95,646
1748368453981022269,-0.247,,681
1748368453988709390,-0.242
1748368453996396511,-0.23
1748368454004083632,-0.228
1748368454011770753,-0.226
1748368454019457874,-0.216
1748368454027144995,-0.209
1748368454034832116,-0.211
1748368454042519237,-0.211
1748368454050206358,-0.202
1748368454057893479,-0.202
1748368454065580600,-0.20600000000000002
1748368454073267721,-0.209
1748368454080954842,-0.209
1748368454088641963,-0.209
1748368454096329084,-0.211
1748368454104016205,-0.214
1748368454111703326,-0.216
1748368454119390447,-0.214
1748368454127077568,-0.214
1748368454134764689,-0.214
1748368454142451810,-0.214
1748368454150138931,-0.214
1748368454157826052,-0.216
1748368454165513173,-0.218
1748368454173200294,-0.223
1748368454180887415,-0.23
1748368454188574536,-0.226
1748368454196261657,-0.20600000000000002
1748368454203948778,-0.194
1748368454211635899,-0.189
1748368454219323020,-0.168
1748368454227010141,-0.151
1748368454234697262,-0.17300000000000001
1748368454242384383,-0.199
1748368454250071504,-0.194
1748368454257758625,-0.185
1748368454265445746,-0.192
1748368454273132867,-0.194
1748368454280819988,-0.185
1748368454288507109,-0.192
1748368454296194230,-0.233
1748368454303881351,-0.25
1748368454311568472,-0.033
1748368454319255593,0.492
1748368454326942714,0.8240000000000001
1748368454334629835,0.444
1748368454342316956,-0.324
1748368454350004077,-0.646
1748368454357691198,-0.44
1748368454365378319,-0.312
1748368454373065440,-0.315
1748368454380752561,-0.226
1748368454388439682,-0.17500000000000002
1748368454396126803,-0.199
1748368454403813924,-0.182
1748368454411501045,-0.151
1748368454419188166,-0.149
1748368454426875287,-0.14400000000000002
1748368454434562408,-0.127
1748368454442249529,-0.117
1748368454449936650,-0.11
1748368454457623771,-0.096
1748368454465310892,-0.079
1748368454472998013,-0.064
1748368454480685134,-0.043000000000000003
1748368454488372255,-0.019
1748368454496059376,0.007
1748368454503746497,0.031
1748368454511433618,0.05
1748368454519120739,0.06
1748368454526807860,0.057
1748368454534495045,0.05,94,657
1748368454542182166,0.038
1748368454549869287,0.019
1748368454557556408,-0.004
1748368454565243529,-0.04
1748368454572930650,-0.079
1748368454580617771,-0.115
1748368454588304892,-0.156
1748368454595992013,-0.192
1748368454603679134,-0.216
1748368454611366255,-0.233
1748368454619053376,-0.245
1748368454626740497,-0.247
1748368454634427618,-0.242
1748368454642114739,-0.23
1748368454649801860,-0.226
1748368454657488981,-0.226
1748368454665176102,-0.221
1748368454672863223,-0.211
1748368454680550344,-0.209
1748368454688237465,-0.214
1748368454695924586,-0.211
1748368454703611707,-0.209
1748368454711298828,-0.211
1748368454718985949,-0.218
1748368454726673070,-0.216
1748368454734360191,-0.216
1748368454742047312,-0.218
1748368454749734433,-0.221
1748368454757421554,-0.221
1748368454765108675,-0.214
1748368454772795796,-0.214
1748368454780482917,-0.218
1748368454788170038,-0.218
1748368454795857159,-0.214
1748368454803544280,-0.216
1748368454811231401,-0.221
1748368454818918522,-0.221
1748368454826605643,-0.223
1748368454834292764,-0.228
1748368454841979885,-0.228
1748368454849667006,-0.214
1748368454857354127,-0.197
1748368454865041248,-0.194
1748368454872728369,-0.182
1748368454880415490,-0.161
1748368454888102611,-0.17
1748368454895789732,-0.194
1748368454903476853,-0.199
1748368454911163974,-0.197
1748368454918851095,-0.199
1748368454926538216,-0.194
1748368454934225337,-0.192
1748368454941912458,-0.199
1748368454949599579,-0.221
1748368454957286700,-0.23500000000000001
1748368454964973821,-0.088
1748368454972660942,0.387
1748368454980348063,0.798
1748368454988035184,0.519
1748368454995722305,-0.254
1748368455003409426,-0.67
1748368455011096547,-0.509
1748368455018783668,-0.34600000000000003
1748368455026470789,-0.35100000000000003
1748368455034157910,-0.264
1748368455041845031,-0.177
1748368455049532152,-0.194
1748368455057219273,-0.192
1748368455064906394,-0.156
1748368455072593515,-0.158
1748368455080280636,-0.161
1748368455087967757,-0.134
1748368455095654942,-0.12
1748368455103342063,-0.113
1748368455111029184,-0.096
1748368455118716305,-0.079
1748368455126403426,-0.064
1748368455134090547,-0.043000000000000003
1748368455141777668,-0.019
1748368455149464789,0.0
1748368455157151910,0.026000000000000002
1748368455164839031,0.055
1748368455172526152,0.069
1748368455180213273,0.067
1748368455187900394,0.057
1748368455195587515,0.055
1748368455203274636,0.045
1748368455210961757,0.019
1748368455218648878,-0.012
1748368455226335999,-0.05
1748368455234023120,-0.096
1748368455241710241,-0.134
1748368455249397362,-0.17
1748368455257084483,-0.211
1748368455264771604,-0.24
1748368455272458725,-0.252
1748368455280145846,-0.25
1748368455287832967,-0.247
1748368455295520088,-0.25
1748368455303207209,-0.25
1748368455310894330,-0.24
1748368455318581451,-0.23500000000000001
1748368455326268572,-0.23500000000000001
1748368455333955693,-0.226
1748368455341642814,-0.216
1748368455349329935,-0.218
1748368455357017056,-0.218
1748368455364704177,-0.218
1748368455372391298,-0.223
1748368455380078419,-0.228
1748368455387765540,-0.233
1748368455395452661,-0.23
1748368455403139782,-0.23
1748368455410826903,-0.233
1748368455418514024,-0.23
1748368455426201145,-0.23500000000000001
1748368455433888266,-0.242
1748368455441575387,-0.242
1748368455449262508,-0.226
1748368455456949629,-0.226
1748368455464636750,-0.245
1748368455472323871,-0.245
1748368455480010992,-0.23800000000000002
1748368455487698113,-0.242
1748368455495385234,-0.23
1748368455503072355,-0.20400000000000001
1748368455510759476,-0.194
1748368455518446597,-0.182
1748368455526133718,-0.177
1748368455533820839,-0.197
1748368455541507960,-0.211
1748368455549195081,-0.20600000000000002
1748368455556882202,-0.209
1748368455564569323,-0.20600000000000002
1748368455572256444,-0.192
1748368455579943565,-0.194
1748368455587630686,-0.218
1748368455595317807,-0.226
1748368455603004928,-0.113
1748368455610692049,0.303
1748368455618379170,0.757
1748368455626066291,0.555
1748368455633753412,-0.262
1748368455641440533,-0.759
1748368455649127654,-0.593
1748368455656814839,-0.394,93,638
1748368455664501960,-0.401,,643
1748368455672189081,-0.298
1748368455679876202,-0.165
1748368455687563323,-0.185
1748368455695250444,-0.197
1748368455702937565,-0.149
1748368455710624686,-0.137
1748368455718311807,-0.137
1748368455725998928,-0.117
1748368455733686049,-0.115
1748368455741373170,-0.115
1748368455749060291,-0.093
1748368455756747412,-0.07200000000000001
1748368455764434533,-0.05
1748368455772121654,-0.033
1748368455779808775,-0.019
1748368455787495896,0.014
1748368455795183017,0.052000000000000005
1748368455802870138,0.064
1748368455810557259,0.074
1748368455818244380,0.088
1748368455825931501,0.088
1748368455833618622,0.07200000000000001
1748368455841305743,0.052000000000000005
1748368455848992864,0.033
1748368455856679985,0.002
1748368455864367106,-0.036000000000000004
1748368455872054227,-0.079
1748368455879741348,-0.122
1748368455887428469,-0.168
1748368455895115590,-0.209
1748368455902802711,-0.23800000000000002
1748368455910489832,-0.252
1748368455918176953,-0.259
1748368455925864074,-0.259
1748368455933551195,-0.247
1748368455941238316,-0.23500000000000001
1748368455948925437,-0.233
1748368455956612558,-0.233
1748368455964299679,-0.221
1748368455971986800,-0.209
1748368455979673921,-0.209
1748368455987361042,-0.202
1748368455995048163,-0.194
1748368456002735284,-0.202
1748368456010422405,-0.209
1748368456018109526,-0.209
1748368456025796647,-0.20600000000000002
1748368456033483768,-0.214
1748368456041170889,-0.221
1748368456048858010,-0.223
1748368456056545131,-0.218
1748368456064232252,-0.218
1748368456071919373,-0.223
1748368456079606494,-0.226
1748368456087293615,-0.226
1748368456094980736,-0.226
1748368456102667857,-0.233
1748368456110354978,-0.23500000000000001
1748368456118042099,-0.218
1748368456125729220,-0.20400000000000001
1748368456133416341,-0.202
1748368456141103462,-0.18
1748368456148790583,-0.163
1748368456156477704,-0.182
1748368456164164825,-0.20400000000000001
1748368456171851946,-0.197
1748368456179539067,-0.197
1748368456187226188,-0.202
1748368456194913309,-0.194
1748368456202600430,-0.187
1748368456210287551,-0.197
1748368456217974740,-0.221
1748368456225661861,-0.214
1748368456233348982,0.024
1748368456241036103,0.548
1748368456248723224,0.812
1748368456256410345,0.307
1748368456264097466,-0.492
1748368456271784587,-0.723
1748368456279471708,-0.454
1748368456287158829,-0.336
1748368456294845950,-0.334
1748368456302533071,-0.216
1748368456310220192,-0.151
1748368456317907313,-0.177
1748368456325594434,-0.163
1748368456333281555,-0.134
1748368456340968676,-0.137
1748368456348655797,-0.127
1748368456356342918,-0.11
1748368456364030039,-0.108
1748368456371717160,-0.101
1748368456379404281,-0.081
1748368456387091402,-0.064
1748368456394778523,-0.048
1748368456402465644,-0.026000000000000002
1748368456410152765,-0.002
1748368456417839886,0.016
1748368456425527007,0.04
1748368456433214128,0.064
1748368456440901249,0.076
1748368456448588370,0.07200000000000001
1748368456456275491,0.064
1748368456463962612,0.06
1748368456471649733,0.043000000000000003
1748368456479336854,0.016
1748368456487023975,-0.012
1748368456494711096,-0.05
1748368456502398217,-0.096
1748368456510085338,-0.137
1748368456517772459,-0.17
1748368456525459580,-0.202
1748368456533146701,-0.223
1748368456540833822,-0.228
1748368456548520943,-0.226
1748368456556208064,-0.226
1748368456563895185,-0.226
1748368456571582306,-0.216
1748368456579269427,-0.20600000000000002
1748368456586956548,-0.20400000000000001
1748368456594643669,-0.20400000000000001
1748368456602330790,-0.202
1748368456610017911,-0.199
1748368456617705032,-0.197
1748368456625392153,-0.197
1748368456633079274,-0.202
1748368456640766395,-0.20600000000000002
1748368456648453516,-0.20600000000000002
1748368456656140637,-0.209
1748368456663827758,-0.211
1748368456671514879,-0.214
1748368456679202000,-0.216
1748368456686889121,-0.216
1748368456694576242,-0.214
1748368456702263363,-0.209
1748368456709950484,-0.214
1748368456717637605,-0.218
1748368456725324726,-0.226
1748368456733011847,-0.233
1748368456740698968,-0.23
1748368456748386089,-0.223
1748368456756073210,-0.209
1748368456763760331,-0.194
1748368456771447452,-0.185
1748368456779134637,-0.17,93,654
1748368456786821758,-0.161
1748368456794508879,-0.17300000000000001
1748368456802196000,-0.189
1748368456809883121,-0.192
1748368456817570242,-0.192
1748368456825257363,-0.194
1748368456832944484,-0.189
1748368456840631605,-0.182
1748368456848318726,-0.192
1748368456856005847,-0.23
1748368456863692968,-0.25
1748368456871380089,-0.06
1748368456879067210,0.44
1748368456886754331,0.81
1748368456894441452,0.492
1748368456902128573,-0.28300000000000003
1748368456909815694,-0.658
1748368456917502815,-0.456
1748368456925189936,-0.305
1748368456932877057,-0.319
1748368456940564178,-0.24
1748368456948251299,-0.177
1748368456955938420,-0.194
1748368456963625541,-0.187
1748368456971312662,-0.158
1748368456978999783,-0.153
1748368456986686904,-0.146
1748368456994374025,-0.132
1748368457002061146,-0.125
1748368457009748267,-0.115
1748368457017435388,-0.101
1748368457025122509,-0.088
1748368457032809630,-0.074
1748368457040496751,-0.052000000000000005
1748368457048183872,-0.036000000000000004
1748368457055870993,-0.012
1748368457063558114,0.016
1748368457071245235,0.036000000000000004
1748368457078932356,0.045
1748368457086619477,0.048
1748368457094306598,0.038
1748368457101993719,0.026000000000000002
1748368457109680840,0.016
1748368457117367961,-0.002
1748368457125055082,-0.04
1748368457132742203,-0.076
1748368457140429324,-0.105
1748368457148116445,-0.137
1748368457155803566,-0.168
1748368457163490687,-0.194
1748368457171177808,-0.218
1748368457178864929,-0.228
1748368457186552050,-0.223
1748368457194239171,-0.218
1748368457201926292,-0.221
1748368457209613413,-0.221
1748368457217300534,-0.211
1748368457224987655,-0.20600000000000002
1748368457232674776,-0.20400000000000001
1748368457240361897,-0.202
1748368457248049018,-0.20400000000000001
1748368457255736139,-0.20400000000000001
1748368457263423260,-0.199
1748368457271110381,-0.197
1748368457278797502,-0.202
1748368457286484623,-0.20600000000000002
1748368457294171744,-0.20400000000000001
1748368457301858865,-0.20400000000000001
1748368457309545986,-0.211
1748368457317233107,-0.211
1748368457324920228,-0.209
1748368457332607349,-0.209
1748368457340294534,-0.209
1748368457347981655,-0.209
1748368457355668776,-0.209
1748368457363355897,-0.20600000000000002
1748368457371043018,-0.20600000000000002
1748368457378730139,-0.216
1748368457386417260,-0.223
1748368457394104381,-0.218
1748368457401791502,-0.214
1748368457409478623,-0.199
1748368457417165744,-0.187
1748368457424852865,-0.17500000000000002
1748368457432539986,-0.156
1748368457440227107,-0.151
1748368457447914228,-0.17500000000000002
1748368457455601349,-0.192
1748368457463288470,-0.185
1748368457470975591,-0.187
1748368457478662712,-0.189
1748368457486349833,-0.18
1748368457494036954,-0.177
1748368457501724075,-0.192
1748368457509411196,-0.226
1748368457517098317,-0.211
1748368457524785438,0.062
1748368457532472559,0.589
1748368457540159680,0.803
1748368457547846801,0.28800000000000003
1748368457555533922,-0.449
1748368457563221043,-0.637
1748368457570908164,-0.404
1748368457578595285,-0.315
1748368457586282406,-0.307
1748368457593969527,-0.209
1748368457601656648,-0.17300000000000001
1748368457609343769,-0.192
1748368457617030890,-0.168
1748368457624718011,-0.146
1748368457632405132,-0.149
1748368457640092253,-0.139
1748368457647779374,-0.125
1748368457655466495,-0.122
1748368457663153616,-0.117
1748368457670840737,-0.093
1748368457678527858,-0.069
1748368457686214979,-0.057
1748368457693902100,-0.045
1748368457701589221,-0.021
1748368457709276342,0.007
1748368457716963463,0.026000000000000002
1748368457724650584,0.038
1748368457732337705,0.045
1748368457740024826,0.05
1748368457747711947,0.045
1748368457755399068,0.028
1748368457763086189,0.014
1748368457770773310,-0.002
1748368457778460431,-0.033
1748368457786147552,-0.067
1748368457793834673,-0.108
1748368457801521794,-0.151
1748368457809208915,-0.177
1748368457816896036,-0.20400000000000001
1748368457824583157,-0.233
1748368457832270278,-0.242
1748368457839957399,-0.24
1748368457847644520,-0.23800000000000002
1748368457855331641,-0.233
1748368457863018762,-0.23
1748368457870705883,-0.228
1748368457878393004,-0.221
1748368457886080125,-0.218
1748368457893767246,-0.221
1748368457901454431,-0.221,93,639
1748368457909141552,-0.221,,627
1748368457916828673,-0.218
1748368457924515794,-0.218
1748368457932202915,-0.223
1748368457939890036,-0.223
1748368457947577157,-0.226
1748368457955264278,-0.228
1748368457962951399,-0.226
1748368457970638520,-0.226
1748368457978325641,-0.23
1748368457986012762,-0.228
1748368457993699883,-0.223
1748368458001387004,-0.223
1748368458009074125,-0.226
1748368458016761246,-0.23
1748368458024448367,-0.23500000000000001
1748368458032135488,-0.23800000000000002
1748368458039822609,-0.23500000000000001
1748368458047509730,-0.223
1748368458055196851,-0.20600000000000002
1748368458062883972,-0.202
1748368458070571093,-0.189
1748368458078258214,-0.165
1748368458085945335,-0.17500000000000002
1748368458093632456,-0.20600000000000002
1748368458101319577,-0.20400000000000001
1748368458109006698,-0.192
1748368458116693819,-0.199
1748368458124380940,-0.199
1748368458132068061,-0.192
1748368458139755182,-0.197
1748368458147442303,-0.214
1748368458155129424,-0.209
1748368458162816545,-0.021
1748368458170503666,0.47300000000000003
1748368458178190787,0.8
1748368458185877908,0.358
1748368458193565029,-0.447
1748368458201252150,-0.728
1748368458208939271,-0.502
1748368458216626392,-0.375
1748368458224313513,-0.37
1748368458232000634,-0.254
1748368458239687755,-0.17
1748368458247374876,-0.182
1748368458255061997,-0.17500000000000002
1748368458262749118,-0.14100000000000001
1748368458270436239,-0.139
1748368458278123360,-0.134
1748368458285810481,-0.12
1748368458293497602,-0.11
1748368458301184723,-0.096
1748368458308871844,-0.076
1748368458316558965,-0.067
1748368458324246086,-0.05
1748368458331933207,-0.026000000000000002
1748368458339620328,0.0
1748368458347307449,0.021
1748368458354994570,0.04
1748368458362681691,0.062
1748368458370368812,0.074
1748368458378055933,0.07200000000000001
1748368458385743054,0.069
1748368458393430175,0.062
1748368458401117296,0.05
1748368458408804417,0.038
1748368458416491538,0.012
1748368458424178659,-0.026000000000000002
1748368458431865780,-0.067
1748368458439552901,-0.115
1748368458447240022,-0.168
1748368458454927143,-0.211
1748368458462614328,-0.23500000000000001
1748368458470301449,-0.242
1748368458477988570,-0.25
1748368458485675691,-0.247
1748368458493362812,-0.23500000000000001
1748368458501049933,-0.23
1748368458508737054,-0.226
1748368458516424175,-0.214
1748368458524111296,-0.209
1748368458531798417,-0.209
1748368458539485538,-0.209
1748368458547172659,-0.214
1748368458554859780,-0.214
1748368458562546901,-0.209
1748368458570234022,-0.214
1748368458577921143,-0.228
1748368458585608264,-0.228
1748368458593295385,-0.228
1748368458600982506,-0.233
1748368458608669627,-0.228
1748368458616356748,-0.223
1748368458624043869,-0.23
1748368458631730990,-0.23800000000000002
1748368458639418111,-0.24
1748368458647105232,-0.242
1748368458654792353,-0.245
1748368458662479474,-0.242
1748368458670166595,-0.226
1748368458677853716,-0.216
1748368458685540837,-0.211
1748368458693227958,-0.187
1748368458700915079,-0.165
1748368458708602200,-0.185
1748368458716289321,-0.211
1748368458723976442,-0.209
1748368458731663563,-0.202
1748368458739350684,-0.20600000000000002
1748368458747037805,-0.202
1748368458754724926,-0.192
1748368458762412047,-0.192
1748368458770099168,-0.216
1748368458777786289,-0.20400000000000001
1748368458785473410,0.057
1748368458793160531,0.581
1748368458800847652,0.795
1748368458808534773,0.218
1748368458816221894,-0.579
1748368458823909015,-0.735
1748368458831596136,-0.452
1748368458839283257,-0.358
1748368458846970378,-0.35100000000000003
1748368458854657499,-0.221
1748368458862344620,-0.158
1748368458870031741,-0.182
1748368458877718862,-0.165
1748368458885405983,-0.132
1748368458893093104,-0.137
1748368458900780225,-0.129
1748368458908467346,-0.11
1748368458916154467,-0.10300000000000001
1748368458923841588,-0.091
1748368458931528709,-0.074
1748368458939215830,-0.06
1748368458946902951,-0.04
1748368458954590072,-0.016
1748368458962277193,0.002
1748368458969964314,0.024
1748368458977651435,0.052000000000000005
1748368458985338556,0.07200000000000001
1748368458993025677,0.076
1748368459000712798,0.074
1748368459008399919,0.07200000000000001
1748368459016087040,0.064
1748368459023774225,0.055,93,640
1748368459031461346,0.036000000000000004
1748368459039148467,0.002
1748368459046835588,-0.038
1748368459054522709,-0.079
1748368459062209830,-0.115
1748368459069896951,-0.161
1748368459077584072,-0.202
1748368459085271193,-0.223
1748368459092958314,-0.23
1748368459100645435,-0.23500000000000001
1748368459108332556,-0.23
1748368459116019677,-0.218
1748368459123706798,-0.20600000000000002
1748368459131393919,-0.20400000000000001
1748368459139081040,-0.20400000000000001
1748368459146768161,-0.197
1748368459154455282,-0.194
1748368459162142403,-0.192
1748368459169829524,-0.189
1748368459177516645,-0.192
1748368459185203766,-0.199
1748368459192890887,-0.20400000000000001
1748368459200578008,-0.20400000000000001
1748368459208265129,-0.20600000000000002
1748368459215952250,-0.209
1748368459223639371,-0.214
1748368459231326492,-0.218
1748368459239013613,-0.214
1748368459246700734,-0.214
1748368459254387855,-0.218
1748368459262074976,-0.223
1748368459269762097,-0.228
1748368459277449218,-0.228
1748368459285136339,-0.221
1748368459292823460,-0.20600000000000002
1748368459300510581,-0.202
1748368459308197702,-0.185
1748368459315884823,-0.161
1748368459323571944,-0.161
1748368459331259065,-0.182
1748368459338946186,-0.194
1748368459346633307,-0.192
1748368459354320428,-0.192
1748368459362007549,-0.185
1748368459369694670,-0.18
1748368459377381791,-0.185
1748368459385068912,-0.202
1748368459392756033,-0.23500000000000001
1748368459400443154,-0.153
1748368459408130275,0.254
1748368459415817396,0.757
1748368459423504517,0.704
1748368459431191638,-0.024
1748368459438878759,-0.639
1748368459446565880,-0.5720000000000001
1748368459454253001,-0.329
1748368459461940122,-0.322
1748368459469627243,-0.278
1748368459477314364,-0.17
1748368459485001485,-0.168
1748368459492688606,-0.18
1748368459500375727,-0.14400000000000002
1748368459508062848,-0.132
1748368459515749969,-0.134
1748368459523437090,-0.117
1748368459531124211,-0.105
1748368459538811332,-0.10300000000000001
1748368459546498453,-0.08600000000000001
1748368459554185574,-0.069
1748368459561872695,-0.06
1748368459569559816,-0.043000000000000003
1748368459577246937,-0.014
1748368459584934126,0.007,94,651
1748368459592621247,0.031,,640
1748368459600308368,0.055
1748368459607995489,0.069
1748368459615682610,0.074
1748368459623369731,0.074
1748368459631056852,0.069
1748368459638743973,0.062
1748368459646431094,0.043000000000000003
1748368459654118215,0.016
1748368459661805336,-0.014
1748368459669492457,-0.05
1748368459677179578,-0.08600000000000001
1748368459684866699,-0.122
1748368459692553820,-0.153
1748368459700240941,-0.177
1748368459707928062,-0.192
1748368459715615183,-0.197
