time,ecg,hr,rr,marker
1747853758680183041,-0.123,82,760
1747853758687870162,-0.11800000000000001
1747853758695557283,-0.11
1747853758703244404,-0.10300000000000001
1747853758710931525,-0.108
1747853758718618646,-0.105
1747853758726305767,-0.096
1747853758733992888,-0.093
1747853758741680009,-0.091
1747853758749367130,-0.08600000000000001
1747853758757054251,-0.091
1747853758764741372,-0.093
1747853758772428493,-0.081
1747853758780115614,-0.059000000000000004
1747853758787802735,-0.032
1747853758795489856,-0.022
1747853758803176977,-0.027
1747853758810864098,-0.032
1747853758818551219,-0.041
1747853758826238340,-0.066
1747853758833925461,-0.08600000000000001
1747853758841612582,-0.078
1747853758849299703,-0.068
1747853758856986824,-0.066
1747853758864673945,-0.068
1747853758872361066,-0.068
1747853758880048187,-0.061
1747853758887735308,-0.059000000000000004
1747853758895422429,-0.078
1747853758903109550,-0.123
1747853758910796671,-0.182
1747853758918483792,-0.076
1747853758926170913,0.428
1747853758933858034,1.216
1747853758941545155,1.905
1747853758949232276,1.735
1747853758956919397,0.327
1747853758964606518,-0.6910000000000001
1747853758972293639,-0.31
1747853758979980760,0.012
1747853758987667881,-0.211
1747853758995355002,-0.187
1747853759003042123,-0.061
1747853759010729244,-0.115
1747853759018416365,-0.11800000000000001
1747853759026103486,-0.056
1747853759033790607,-0.054
1747853759041477728,-0.051000000000000004
1747853759049164849,-0.014
1747853759056851970,0.007
1747853759064539091,0.019
1747853759072226212,0.046
1747853759079913333,0.078
1747853759087600454,0.10300000000000001
1747853759095287575,0.13
1747853759102974696,0.164
1747853759110661817,0.199
1747853759118348938,0.23800000000000002
1747853759126036059,0.278
1747853759133723180,0.315
1747853759141410301,0.34400000000000003
1747853759149097422,0.361
1747853759156784543,0.366
1747853759164471664,0.361
1747853759172158785,0.34700000000000003
1747853759179845906,0.32
1747853759187533027,0.28300000000000003
1747853759195220148,0.219
1747853759202907269,0.128
1747853759210594390,0.024
1747853759218281511,-0.073
1747853759225968632,-0.16
1747853759233655753,-0.224
1747853759241342938,-0.26
1747853759249030059,-0.278
1747853759256717180,-0.28800000000000003
1747853759264404301,-0.29
1747853759272091422,-0.28
1747853759279778543,-0.268
1747853759287465664,-0.256
1747853759295152785,-0.246
1747853759302839906,-0.231
1747853759310527027,-0.216
1747853759318214148,-0.209
1747853759325901269,-0.199
1747853759333588390,-0.189
1747853759341275511,-0.184
1747853759348962632,-0.182
1747853759356649753,-0.177
1747853759364336874,-0.17200000000000001
1747853759372023995,-0.17200000000000001
1747853759379711116,-0.169
1747853759387398237,-0.164
1747853759395085358,-0.164
1747853759402772479,-0.162
1747853759410459600,-0.16
1747853759418146721,-0.16
1747853759425833842,-0.16
1747853759433520963,-0.157
1747853759441208084,-0.155
1747853759448895205,-0.15
1747853759456582326,-0.145
1747853759464269447,-0.145
1747853759471956568,-0.14
1747853759479643689,-0.135
1747853759487330810,-0.128
1747853759495017931,-0.125
1747853759502705052,-0.125
1747853759510392173,-0.123
1747853759518079294,-0.115
1747853759525766415,-0.113
1747853759533453536,-0.108
1747853759541140657,-0.1
1747853759548827778,-0.1
1747853759556514899,-0.10300000000000001
1747853759564202020,-0.098
1747853759571889141,-0.08600000000000001
1747853759579576262,-0.066
1747853759587263383,-0.044
1747853759594950504,-0.041
1747853759602637625,-0.049
1747853759610324746,-0.049
1747853759618011867,-0.056
1747853759625698988,-0.088
1747853759633386109,-0.105
1747853759641073230,-0.096
1747853759648760351,-0.091
1747853759656447472,-0.088
1747853759664134593,-0.08600000000000001
1747853759671821714,-0.083
1747853759679508835,-0.081
1747853759687195956,-0.083
1747853759694883077,-0.1
1747853759702570198,-0.15
1747853759710257319,-0.192
1747853759717944440,-0.029
1747853759725631561,0.504
1747853759733318682,1.282
1747853759741005803,1.937
1747853759748692924,1.59
1747853759756380045,0.093
1747853759764067166,-0.704
1747853759771754287,-0.219
1747853759779441408,-0.009000000000000001
1747853759787128529,-0.246
1747853759794815650,-0.194
1747853759802502839,-0.093,82,784
1747853759810189960,-0.147,,790
1747853759817877081,-0.137
1747853759825564202,-0.078
1747853759833251323,-0.073
1747853759840938444,-0.068
1747853759848625565,-0.034
1747853759856312686,-0.014
1747853759863999807,0.0
1747853759871686928,0.024
1747853759879374049,0.051000000000000004
1747853759887061170,0.078
1747853759894748291,0.11
1747853759902435412,0.14200000000000002
1747853759910122533,0.177
1747853759917809654,0.216
1747853759925496775,0.253
1747853759933183896,0.29
1747853759940871017,0.322
1747853759948558138,0.34400000000000003
1747853759956245259,0.352
1747853759963932380,0.34900000000000003
1747853759971619501,0.339
1747853759979306622,0.317
1747853759986993743,0.28300000000000003
1747853759994680864,0.224
1747853760002367985,0.137
1747853760010055106,0.039
1747853760017742227,-0.056
1747853760025429348,-0.135
1747853760033116469,-0.199
1747853760040803590,-0.241
1747853760048490711,-0.26
1747853760056177832,-0.268
1747853760063864953,-0.265
1747853760071552074,-0.26
1747853760079239195,-0.251
1747853760086926316,-0.23600000000000002
1747853760094613437,-0.221
1747853760102300558,-0.211
1747853760109987679,-0.201
1747853760117674800,-0.192
1747853760125361921,-0.182
1747853760133049042,-0.177
1747853760140736163,-0.17200000000000001
1747853760148423284,-0.167
1747853760156110405,-0.167
1747853760163797526,-0.162
1747853760171484647,-0.157
1747853760179171768,-0.157
1747853760186858889,-0.157
1747853760194546010,-0.155
1747853760202233131,-0.15
1747853760209920252,-0.15
1747853760217607373,-0.147
1747853760225294494,-0.145
1747853760232981615,-0.14200000000000002
1747853760240668736,-0.14
1747853760248355857,-0.137
1747853760256042978,-0.132
1747853760263730099,-0.13
1747853760271417220,-0.125
1747853760279104341,-0.12
1747853760286791462,-0.11800000000000001
1747853760294478583,-0.113
1747853760302165704,-0.11
1747853760309852825,-0.105
1747853760317539946,-0.1
1747853760325227067,-0.098
1747853760332914188,-0.096
1747853760340601309,-0.093
1747853760348288430,-0.088
1747853760355975551,-0.08600000000000001
1747853760363662736,-0.083
1747853760371349579,-0.081
1747853760379036422,-0.078
1747853760386723265,-0.081
1747853760394410108,-0.078
1747853760402096951,-0.064
1747853760409783794,-0.044
1747853760417470637,-0.024
1747853760425157480,-0.024
1747853760432844323,-0.032
1747853760440531166,-0.032
1747853760448218009,-0.044
1747853760455904852,-0.073
1747853760463591695,-0.088
1747853760471278538,-0.078
1747853760478965381,-0.073
1747853760486652224,-0.07100000000000001
1747853760494339067,-0.068
1747853760502025910,-0.066
1747853760509712753,-0.066
1747853760517399596,-0.066
1747853760525086439,-0.081
1747853760532773282,-0.13
1747853760540460125,-0.177
1747853760548146968,-0.039
1747853760555833811,0.465
1747853760563520654,1.235
1747853760571207497,1.922
1747853760578894340,1.678
1747853760586581183,0.228
1747853760594268026,-0.676
1747853760601954869,-0.251
1747853760609641712,0.004
1747853760617328555,-0.226
1747853760625015398,-0.199
1747853760632702241,-0.08600000000000001
1747853760640389084,-0.137
1747853760648075927,-0.137
1747853760655762770,-0.078
1747853760663449613,-0.073
1747853760671136456,-0.066
1747853760678823299,-0.032
1747853760686510142,-0.012
1747853760694196985,0.0
1747853760701883828,0.027
1747853760709570671,0.054
1747853760717257514,0.078
1747853760724944357,0.108
1747853760732631200,0.137
1747853760740318043,0.17200000000000001
1747853760748004886,0.209
1747853760755691729,0.246
1747853760763378572,0.28
1747853760771065415,0.312
1747853760778752258,0.334
1747853760786439101,0.34400000000000003
1747853760794125944,0.342
1747853760801812787,0.332
1747853760809499630,0.312
1747853760817186473,0.28
1747853760824873316,0.228
1747853760832560159,0.152
1747853760840247002,0.056
1747853760847933845,-0.036000000000000004
1747853760855620688,-0.11800000000000001
1747853760863307531,-0.184
1747853760870994374,-0.228
1747853760878681217,-0.251
1747853760886368060,-0.26
1747853760894054903,-0.26
1747853760901741746,-0.256
1747853760909428589,-0.243
1747853760917115432,-0.231
1747853760924802289,-0.219,81,763
1747853760932489480,-0.209
1747853760940176671,-0.199
1747853760947863862,-0.189
1747853760955551053,-0.179
1747853760963238244,-0.17400000000000002
1747853760970925435,-0.169
1747853760978612626,-0.164
1747853760986299817,-0.162
1747853760993987008,-0.157
1747853761001674199,-0.157
1747853761009361390,-0.155
1747853761017048581,-0.152
1747853761024735772,-0.15
1747853761032422963,-0.15
1747853761040110154,-0.147
1747853761047797345,-0.147
1747853761055484536,-0.14200000000000002
1747853761063171727,-0.14
1747853761070858918,-0.14
1747853761078546109,-0.137
1747853761086233300,-0.132
1747853761093920491,-0.128
1747853761101607682,-0.125
1747853761109294873,-0.12
1747853761116982064,-0.11800000000000001
1747853761124669255,-0.113
1747853761132356446,-0.108
1747853761140043637,-0.10300000000000001
1747853761147730828,-0.1
1747853761155418019,-0.098
1747853761163105210,-0.096
1747853761170792401,-0.091
1747853761178479592,-0.08600000000000001
1747853761186166783,-0.083
1747853761193853974,-0.078
1747853761201541165,-0.076
1747853761209228356,-0.076
1747853761216915547,-0.076
1747853761224602738,-0.068
1747853761232289929,-0.054
1747853761239977120,-0.032
1747853761247664311,-0.014
1747853761255351502,-0.022
1747853761263038693,-0.027
1747853761270725884,-0.027
1747853761278413075,-0.046
1747853761286100266,-0.081
1747853761293787457,-0.083
1747853761301474648,-0.07100000000000001
1747853761309161839,-0.068
1747853761316849030,-0.066
1747853761324536221,-0.061
1747853761332223412,-0.059000000000000004
1747853761339910603,-0.056
1747853761347597794,-0.064
1747853761355284985,-0.098
1747853761362972176,-0.16
1747853761370659367,-0.147
1747853761378346558,0.169
1747853761386033749,0.836
1747853761393720940,1.6320000000000001
1747853761401408131,1.934
1747853761409095322,0.9420000000000001
1747853761416782513,-0.448
1747853761424469704,-0.514
1747853761432156895,-0.009000000000000001
1747853761439844086,-0.115
1747853761447531277,-0.23600000000000002
1747853761455218468,-0.10300000000000001
1747853761462905659,-0.096
1747853761470592850,-0.14
1747853761478280041,-0.088
1747853761485967273,-0.054
1747853761493654464,-0.061
1747853761501341655,-0.036000000000000004
1747853761509028846,-0.007
1747853761516716037,0.004
1747853761524403228,0.027
1747853761532090419,0.054
1747853761539777610,0.076
1747853761547464801,0.1
1747853761555151992,0.132
1747853761562839183,0.167
1747853761570526374,0.199
1747853761578213565,0.233
1747853761585900756,0.27
1747853761593587947,0.305
1747853761601275138,0.332
1747853761608962329,0.34700000000000003
1747853761616649520,0.352
1747853761624336711,0.34400000000000003
1747853761632023902,0.329
1747853761639711093,0.305
1747853761647398284,0.265
1747853761655085475,0.196
1747853761662772666,0.105
1747853761670459857,0.009000000000000001
1747853761678147048,-0.078
1747853761685834239,-0.152
1747853761693521430,-0.20400000000000001
1747853761701208621,-0.23600000000000002
1747853761708895812,-0.248
1747853761716583003,-0.253
1747853761724270194,-0.251
1747853761731957385,-0.243
1747853761739644576,-0.231
1747853761747331767,-0.221
1747853761755018958,-0.211
1747853761762706149,-0.199
1747853761770393340,-0.187
1747853761778080531,-0.177
1747853761785767722,-0.167
1747853761793454913,-0.164
1747853761801142104,-0.16
1747853761808829295,-0.155
1747853761816516486,-0.15
1747853761824203677,-0.145
1747853761831890868,-0.145
1747853761839578059,-0.147
1747853761847265250,-0.14200000000000002
1747853761854952441,-0.137
1747853761862639632,-0.132
1747853761870326823,-0.135
1747853761878014014,-0.135
1747853761885701205,-0.132
1747853761893388396,-0.132
1747853761901075587,-0.13
1747853761908762778,-0.125
1747853761916449969,-0.12
1747853761924137160,-0.115
1747853761931824351,-0.108
1747853761939511542,-0.1
1747853761947198733,-0.10300000000000001
1747853761954885924,-0.10300000000000001
1747853761962573115,-0.096
1747853761970260306,-0.091
1747853761977947497,-0.093
1747853761985634688,-0.08600000000000001
1747853761993321879,-0.078
1747853762001009070,-0.076
1747853762008696261,-0.073
1747853762016383452,-0.066
1747853762024070643,-0.07100000000000001
1747853762031757834,-0.073
1747853762039445025,-0.066
1747853762047132257,-0.046,81,799
1747853762054819100,-0.024
1747853762062505943,-0.007
1747853762070192786,-0.007
1747853762077879629,-0.014
1747853762085566472,-0.022
1747853762093253315,-0.039
1747853762100940158,-0.064
1747853762108627001,-0.07100000000000001
1747853762116313844,-0.061
1747853762124000687,-0.054
1747853762131687530,-0.054
1747853762139374373,-0.059000000000000004
1747853762147061216,-0.056
1747853762154748059,-0.049
1747853762162434902,-0.054
1747853762170121745,-0.083
1747853762177808588,-0.14200000000000002
1747853762185495431,-0.14200000000000002
1747853762193182274,0.162
1747853762200869117,0.856
1747853762208555960,1.671
1747853762216242803,2.003
1747853762223929646,1.056
1747853762231616489,-0.398
1747853762239303332,-0.556
1747853762246990175,-0.032
1747853762254677018,-0.10300000000000001
1747853762262363861,-0.231
1747853762270050704,-0.091
1747853762277737547,-0.07100000000000001
1747853762285424390,-0.12
1747853762293111233,-0.073
1747853762300798076,-0.041
1747853762308484919,-0.049
1747853762316171762,-0.022
1747853762323858605,0.009000000000000001
1747853762331545448,0.014
1747853762339232291,0.039
1747853762346919134,0.073
1747853762354605977,0.098
1747853762362292820,0.132
1747853762369979663,0.164
1747853762377666506,0.189
1747853762385353349,0.228
1747853762393040192,0.28
1747853762400727035,0.317
1747853762408413878,0.34400000000000003
1747853762416100721,0.379
1747853762423787564,0.40800000000000003
1747853762431474407,0.423
1747853762439161250,0.41600000000000004
1747853762446848093,0.393
1747853762454534936,0.361
1747853762462221779,0.31
1747853762469908622,0.233
1747853762477595465,0.137
1747853762485282308,0.027
1747853762492969151,-0.076
1747853762500655994,-0.152
1747853762508342837,-0.209
1747853762516029680,-0.246
1747853762523716523,-0.27
1747853762531403366,-0.275
1747853762539090209,-0.268
1747853762546777052,-0.258
1747853762554463895,-0.248
1747853762562150738,-0.231
1747853762569837581,-0.214
1747853762577524424,-0.209
1747853762585211267,-0.201
1747853762592898110,-0.184
1747853762600584953,-0.179
1747853762608271806,-0.17400000000000002,80,831
1747853762615958927,-0.164
1747853762623646048,-0.162
1747853762631333169,-0.16
1747853762639020290,-0.15
1747853762646707411,-0.15
1747853762654394532,-0.152
1747853762662081653,-0.152
1747853762669768774,-0.147
1747853762677455895,-0.145
1747853762685143016,-0.147
1747853762692830137,-0.147
1747853762700517258,-0.14
1747853762708204379,-0.13
1747853762715891500,-0.132
1747853762723578621,-0.137
1747853762731265742,-0.128
1747853762738952863,-0.123
1747853762746639984,-0.123
1747853762754327105,-0.113
1747853762762014226,-0.11
1747853762769701347,-0.11800000000000001
1747853762777388468,-0.11
1747853762785075589,-0.096
1747853762792762710,-0.096
1747853762800449831,-0.096
1747853762808136952,-0.08600000000000001
1747853762815824073,-0.066
1747853762823511194,-0.036000000000000004
1747853762831198315,-0.027
1747853762838885436,-0.039
1747853762846572557,-0.049
1747853762854259678,-0.051000000000000004
1747853762861946799,-0.07100000000000001
1747853762869633920,-0.093
1747853762877321041,-0.093
1747853762885008162,-0.083
1747853762892695283,-0.083
1747853762900382404,-0.08600000000000001
1747853762908069525,-0.081
1747853762915756646,-0.07100000000000001
1747853762923443767,-0.07100000000000001
1747853762931130888,-0.088
1747853762938818009,-0.125
1747853762946505130,-0.17400000000000002
1747853762954192251,-0.078
1747853762961879372,0.406
1747853762969566493,1.179
1747853762977253614,1.868
1747853762984940735,1.723
1747853762992627856,0.337
1747853763000314977,-0.706
1747853763008002098,-0.337
1747853763015689219,0.012
1747853763023376340,-0.201
1747853763031063461,-0.184
1747853763038750582,-0.059000000000000004
1747853763046437703,-0.115
1747853763054124824,-0.123
1747853763061811945,-0.049
1747853763069499066,-0.041
1747853763077186187,-0.046
1747853763084873308,-0.009000000000000001
1747853763092560429,0.014
1747853763100247550,0.032
1747853763107934671,0.059000000000000004
1747853763115621792,0.081
1747853763123308913,0.108
1747853763130996034,0.147
1747853763138683155,0.182
1747853763146370276,0.211
1747853763154057397,0.256
1747853763161744518,0.302
1747853763169431703,0.339
1747853763177118824,0.376
1747853763184805945,0.401
1747853763192493066,0.41100000000000003
1747853763200180187,0.41100000000000003
1747853763207867308,0.396
1747853763215554429,0.366
1747853763223241550,0.327
1747853763230928671,0.256
1747853763238615792,0.15
1747853763246302913,0.036000000000000004
1747853763253990034,-0.068
1747853763261677155,-0.162
1747853763269364276,-0.233
1747853763277051397,-0.28
1747853763284738518,-0.305
1747853763292425639,-0.31
1747853763300112760,-0.307
1747853763307799881,-0.302
1747853763315487002,-0.292
1747853763323174123,-0.28
1747853763330861244,-0.268
1747853763338548365,-0.256
1747853763346235486,-0.241
1747853763353922607,-0.231
1747853763361609728,-0.224
1747853763369296849,-0.216
1747853763376983970,-0.20400000000000001
1747853763384671091,-0.196
1747853763392358212,-0.194
1747853763400045333,-0.192
1747853763407732454,-0.187
1747853763415419575,-0.187
1747853763423106696,-0.187
1747853763430793817,-0.184
1747853763438480938,-0.182
1747853763446168059,-0.184
1747853763453855180,-0.179
1747853763461542301,-0.179
1747853763469229422,-0.179
1747853763476916543,-0.179
1747853763484603664,-0.17400000000000002
1747853763492290785,-0.167
1747853763499977906,-0.164
1747853763507665027,-0.162
1747853763515352148,-0.16
1747853763523039269,-0.155
1747853763530726390,-0.15
1747853763538413511,-0.152
1747853763546100632,-0.157
1747853763553787753,-0.15
1747853763561474874,-0.13
1747853763569161995,-0.105
1747853763576849116,-0.088
1747853763584536237,-0.08600000000000001
1747853763592223358,-0.08600000000000001
1747853763599910479,-0.088
1747853763607597600,-0.11
1747853763615284721,-0.135
1747853763622971842,-0.135
1747853763630658963,-0.125
1747853763638346084,-0.125
1747853763646033205,-0.123
1747853763653720326,-0.11800000000000001
1747853763661407447,-0.115
1747853763669094568,-0.115
1747853763676781689,-0.12
1747853763684468810,-0.152
1747853763692155931,-0.219
1747853763699843052,-0.201
1747853763707530173,0.152
1747853763715217294,0.856
1747853763722904415,1.6460000000000001
1747853763730591604,1.932,79,826
1747853763738278725,0.893,,815
1747853763745965846,-0.541
1747853763753652967,-0.585
1747853763761340088,-0.049
1747853763769027209,-0.162
1747853763776714330,-0.28500000000000003
1747853763784401451,-0.145
1747853763792088572,-0.137
1747853763799775693,-0.184
1747853763807462814,-0.132
1747853763815149935,-0.1
1747853763822837056,-0.105
1747853763830524177,-0.081
1747853763838211298,-0.051000000000000004
1747853763845898419,-0.039
1747853763853585540,-0.014
1747853763861272661,0.014
1747853763868959782,0.041
1747853763876646903,0.068
1747853763884334024,0.10300000000000001
1747853763892021145,0.14200000000000002
1747853763899708266,0.182
1747853763907395387,0.224
1747853763915082508,0.265
1747853763922769629,0.302
1747853763930456750,0.332
1747853763938143871,0.34900000000000003
1747853763945830992,0.352
1747853763953518113,0.34400000000000003
1747853763961205234,0.327
1747853763968892355,0.295
1747853763976579476,0.23800000000000002
1747853763984266597,0.152
1747853763991953718,0.046
1747853763999640839,-0.061
1747853764007327960,-0.152
1747853764015015081,-0.226
1747853764022702202,-0.275
1747853764030389323,-0.3
1747853764038076444,-0.307
1747853764045763565,-0.31
1747853764053450686,-0.302
1747853764061137807,-0.29
1747853764068824928,-0.28
1747853764076512049,-0.268
1747853764084199170,-0.253
1747853764091886291,-0.241
1747853764099573412,-0.228
1747853764107260533,-0.219
1747853764114947654,-0.211
1747853764122634775,-0.20400000000000001
1747853764130321896,-0.196
1747853764138009017,-0.192
1747853764145696138,-0.189
1747853764153383259,-0.184
1747853764161070380,-0.179
1747853764168757501,-0.177
1747853764176444622,-0.17400000000000002
1747853764184131743,-0.17400000000000002
1747853764191818864,-0.169
1747853764199505985,-0.167
1747853764207193106,-0.164
1747853764214880227,-0.162
1747853764222567348,-0.16
1747853764230254469,-0.157
1747853764237941590,-0.152
1747853764245628711,-0.147
1747853764253315832,-0.145
1747853764261002953,-0.14200000000000002
1747853764268690074,-0.137
1747853764276377195,-0.132
1747853764284064316,-0.128
1747853764291751501,-0.123
1747853764299438622,-0.11800000000000001
1747853764307125743,-0.115
1747853764314812864,-0.11
1747853764322499985,-0.105
1747853764330187106,-0.105
1747853764337874227,-0.105
1747853764345561348,-0.10300000000000001
1747853764353248469,-0.091
1747853764360935590,-0.068
1747853764368622711,-0.046
1747853764376309832,-0.041
1747853764383996953,-0.049
1747853764391684074,-0.051000000000000004
1747853764399371195,-0.059000000000000004
1747853764407058316,-0.08600000000000001
1747853764414745437,-0.108
1747853764422432558,-0.1
1747853764430119679,-0.091
1747853764437806800,-0.093
1747853764445493921,-0.088
1747853764453181042,-0.083
1747853764460868163,-0.083
1747853764468555284,-0.081
1747853764476242405,-0.088
1747853764483929526,-0.125
1747853764491616647,-0.189
1747853764499303768,-0.152
1747853764506990889,0.216
1747853764514678010,0.925
1747853764522365131,1.718
1747853764530052252,1.947
1747853764537739373,0.836
1747853764545426494,-0.546
1747853764553113615,-0.512
1747853764560800736,-0.007
1747853764568487857,-0.155
1747853764576174978,-0.263
1747853764583862099,-0.12
1747853764591549220,-0.123
1747853764599236341,-0.164
1747853764606923462,-0.108
1747853764614610583,-0.076
1747853764622297704,-0.083
1747853764629984825,-0.059000000000000004
1747853764637671946,-0.029
1747853764645359067,-0.014
1747853764653046188,0.009000000000000001
1747853764660733309,0.039
1747853764668420430,0.061
1747853764676107551,0.088
1747853764683794672,0.123
1747853764691481793,0.16
1747853764699168914,0.196
1747853764706856035,0.23600000000000002
1747853764714543156,0.28
1747853764722230277,0.317
1747853764729917398,0.34400000000000003
1747853764737604519,0.361
1747853764745291640,0.366
1747853764752978761,0.359
1747853764760665882,0.34400000000000003
1747853764768353003,0.317
1747853764776040124,0.265
1747853764783727245,0.187
1747853764791414366,0.088
1747853764799101487,-0.017
1747853764806788608,-0.11
1747853764814475729,-0.184
1747853764822162850,-0.23600000000000002
1747853764829849971,-0.265
1747853764837537092,-0.28
1747853764845224213,-0.28300000000000003
1747853764852911398,-0.275,78,766
1747853764860598519,-0.265
1747853764868285640,-0.256
1747853764875972761,-0.243
1747853764883659882,-0.228
1747853764891347003,-0.216
1747853764899034124,-0.20600000000000002
1747853764906721245,-0.196
1747853764914408366,-0.189
1747853764922095487,-0.182
1747853764929782608,-0.17400000000000002
1747853764937469729,-0.169
1747853764945156850,-0.167
1747853764952843971,-0.162
1747853764960531092,-0.16
1747853764968218213,-0.16
1747853764975905334,-0.157
1747853764983592455,-0.155
1747853764991279576,-0.152
1747853764998966697,-0.15
1747853765006653818,-0.147
1747853765014340939,-0.145
1747853765022028060,-0.14
1747853765029715181,-0.137
1747853765037402302,-0.132
1747853765045089423,-0.13
1747853765052776544,-0.125
1747853765060463665,-0.12
1747853765068150786,-0.115
1747853765075837907,-0.113
1747853765083525028,-0.11
1747853765091212149,-0.105
1747853765098899270,-0.1
1747853765106586391,-0.098
1747853765114273512,-0.096
1747853765121960633,-0.091
1747853765129647754,-0.088
1747853765137334875,-0.083
1747853765145021996,-0.081
1747853765152709117,-0.078
1747853765160396238,-0.073
1747853765168083359,-0.068
1747853765175770480,-0.066
1747853765183457601,-0.064
1747853765191144722,-0.064
1747853765198831843,-0.066
1747853765206518964,-0.061
1747853765214206085,-0.044
1747853765221893206,-0.022
1747853765229580327,-0.007
1747853765237267448,-0.012
1747853765244954569,-0.017
1747853765252641690,-0.019
1747853765260328811,-0.041
1747853765268015932,-0.07100000000000001
1747853765275703053,-0.07100000000000001
1747853765283390174,-0.061
1747853765291077295,-0.056
1747853765298764416,-0.056
1747853765306451537,-0.051000000000000004
1747853765314138658,-0.051000000000000004
1747853765321825779,-0.051000000000000004
1747853765329512900,-0.054
1747853765337200021,-0.076
1747853765344887142,-0.132
1747853765352574263,-0.157
1747853765360261384,0.059000000000000004
1747853765367948505,0.644
1747853765375635626,1.442
1747853765383322747,2.008
1747853765391009868,1.427
1747853765398696989,-0.098
1747853765406384110,-0.647
1747853765414071295,-0.113
1747853765421758416,-0.027
1747853765429445537,-0.241
1747853765437132658,-0.15
1747853765444819779,-0.078
1747853765452506900,-0.14
1747853765460194021,-0.113
1747853765467881142,-0.061
1747853765475568263,-0.064
1747853765483255384,-0.049
1747853765490942505,-0.017
1747853765498629626,0.0
1747853765506316747,0.017
1747853765514003868,0.046
1747853765521690989,0.07100000000000001
1747853765529378110,0.096
1747853765537065231,0.125
1747853765544752352,0.16
1747853765552439473,0.194
1747853765560126594,0.231
1747853765567813715,0.273
1747853765575500836,0.31
1747853765583187957,0.339
1747853765590875078,0.361
1747853765598562199,0.371
1747853765606249320,0.369
1747853765613936441,0.359
1747853765621623562,0.337
1747853765629310683,0.302
1747853765636997804,0.241
1747853765644684925,0.155
1747853765652372046,0.054
1747853765660059167,-0.044
1747853765667746288,-0.125
1747853765675433409,-0.192
1747853765683120530,-0.233
1747853765690807651,-0.256
1747853765698494772,-0.263
1747853765706181893,-0.263
1747853765713869014,-0.258
1747853765721556135,-0.248
1747853765729243256,-0.23600000000000002
1747853765736930377,-0.224
1747853765744617498,-0.211
1747853765752304619,-0.201
1747853765759991740,-0.189
1747853765767678861,-0.182
1747853765775365982,-0.17400000000000002
1747853765783053103,-0.167
1747853765790740224,-0.164
1747853765798427345,-0.16
1747853765806114466,-0.157
1747853765813801587,-0.157
1747853765821488708,-0.155
1747853765829175829,-0.152
1747853765836862950,-0.15
1747853765844550071,-0.15
1747853765852237192,-0.15
1747853765859924313,-0.145
1747853765867611434,-0.14200000000000002
1747853765875298555,-0.14200000000000002
1747853765882985676,-0.14
1747853765890672797,-0.137
1747853765898359918,-0.132
1747853765906047039,-0.13
1747853765913734160,-0.128
1747853765921421281,-0.123
1747853765929108402,-0.12
1747853765936795523,-0.115
1747853765944482644,-0.11
1747853765952169765,-0.108
1747853765959856886,-0.105
1747853765967544007,-0.1
1747853765975231192,-0.096,78,748
1747853765982918313,-0.093
1747853765990605434,-0.091
1747853765998292555,-0.088
1747853766005979676,-0.083
1747853766013666797,-0.081
1747853766021353918,-0.078
1747853766029041039,-0.076
1747853766036728160,-0.076
1747853766044415281,-0.073
1747853766052102402,-0.07100000000000001
1747853766059789523,-0.068
1747853766067476644,-0.064
1747853766075163765,-0.064
1747853766082850886,-0.064
1747853766090538007,-0.064
1747853766098225128,-0.054
1747853766105912249,-0.034
1747853766113599370,-0.014
1747853766121286491,-0.012
1747853766128973612,-0.019
1747853766136660733,-0.019
1747853766144347854,-0.036000000000000004
1747853766152034975,-0.07100000000000001
1747853766159722096,-0.083
1747853766167409217,-0.07100000000000001
1747853766175096338,-0.066
1747853766182783459,-0.066
1747853766190470580,-0.061
1747853766198157701,-0.059000000000000004
1747853766205844822,-0.059000000000000004
1747853766213531943,-0.059000000000000004
1747853766221219064,-0.07100000000000001
1747853766228906185,-0.115
1747853766236593306,-0.17200000000000001
1747853766244280427,-0.068
1747853766251967548,0.386
1747853766259654669,1.139
1747853766267341790,1.875
1747853766275028911,1.799
1747853766282716032,0.438
1747853766290403153,-0.647
1747853766298090274,-0.334
1747853766305777395,0.009000000000000001
1747853766313464516,-0.20400000000000001
1747853766321151637,-0.219
1747853766328838758,-0.096
1747853766336525879,-0.132
1747853766344213000,-0.147
1747853766351900121,-0.08600000000000001
1747853766359587242,-0.073
1747853766367274363,-0.073
1747853766374961484,-0.044
1747853766382648605,-0.019
1747853766390335726,-0.002
1747853766398022847,0.019
1747853766405709968,0.044
1747853766413397089,0.068
1747853766421084210,0.096
1747853766428771331,0.128
1747853766436458452,0.162
1747853766444145573,0.199
1747853766451832694,0.23800000000000002
1747853766459519815,0.275
1747853766467206936,0.31
1747853766474894057,0.334
1747853766482581178,0.34900000000000003
1747853766490268299,0.354
1747853766497955420,0.34700000000000003
1747853766505642541,0.329
1747853766513329662,0.3
1747853766521016783,0.251
1747853766528703904,0.179
1747853766536391093,0.08600000000000001
1747853766544077866,-0.014
1747853766551764639,-0.1
1747853766559451412,-0.17400000000000002
1747853766567138185,-0.228
1747853766574824958,-0.26
1747853766582511731,-0.275
1747853766590198504,-0.278
1747853766597885277,-0.273
1747853766605572050,-0.265
1747853766613258823,-0.256
1747853766620945596,-0.243
1747853766628632369,-0.228
1747853766636319142,-0.216
1747853766644005915,-0.209
1747853766651692688,-0.199
1747853766659379461,-0.192
1747853766667066234,-0.182
1747853766674753007,-0.179
1747853766682439780,-0.177
1747853766690126553,-0.17200000000000001
1747853766697813326,-0.169
1747853766705500099,-0.167
1747853766713186872,-0.164
1747853766720873645,-0.162
1747853766728560418,-0.16
1747853766736247191,-0.157
1747853766743933964,-0.157
1747853766751620737,-0.155
1747853766759307510,-0.155
1747853766766994283,-0.15
1747853766774681056,-0.145
1747853766782367829,-0.145
1747853766790054602,-0.14200000000000002
1747853766797741375,-0.137
1747853766805428148,-0.132
1747853766813114921,-0.13
1747853766820801694,-0.125
1747853766828488467,-0.123
1747853766836175240,-0.12
1747853766843862013,-0.115
1747853766851548786,-0.113
1747853766859235559,-0.108
1747853766866922332,-0.10300000000000001
1747853766874609105,-0.098
1747853766882295878,-0.096
1747853766889982651,-0.096
1747853766897669424,-0.091
1747853766905356197,-0.088
1747853766913042970,-0.08600000000000001
1747853766920729743,-0.083
1747853766928416516,-0.081
1747853766936103289,-0.081
1747853766943790062,-0.076
1747853766951476835,-0.073
1747853766959163608,-0.073
1747853766966850381,-0.073
1747853766974537154,-0.07100000000000001
1747853766982223927,-0.061
1747853766989910700,-0.044
1747853766997597473,-0.024
1747853767005284246,-0.022
1747853767012971019,-0.027
1747853767020657792,-0.024
1747853767028344565,-0.036000000000000004
1747853767036031338,-0.07100000000000001
1747853767043718111,-0.091
1747853767051404884,-0.078
1747853767059091657,-0.07100000000000001
1747853767066778430,-0.073
1747853767074465203,-0.07100000000000001
1747853767082151976,-0.066
1747853767089838749,-0.064
1747853767097525559,-0.064,78,799
1747853767105212750,-0.073
1747853767112899941,-0.11800000000000001
1747853767120587132,-0.179
1747853767128274323,-0.108
1747853767135961514,0.3
1747853767143648705,1.026
1747853767151335896,1.7890000000000001
1747853767159023087,1.861
1747853767166710278,0.625
1747853767174397469,-0.595
1747853767182084660,-0.41100000000000003
1747853767189771851,0.002
1747853767197459042,-0.182
1747853767205146233,-0.23600000000000002
1747853767212833424,-0.10300000000000001
1747853767220520615,-0.12
1747853767228207806,-0.14200000000000002
1747853767235894997,-0.091
1747853767243582188,-0.073
1747853767251269379,-0.066
1747853767258956570,-0.039
1747853767266643761,-0.022
1747853767274330952,-0.012
1747853767282018143,0.017
1747853767289705334,0.049
1747853767297392525,0.073
1747853767305079716,0.098
1747853767312766907,0.137
1747853767320454098,0.184
1747853767328141289,0.216
1747853767335828480,0.226
1747853767343515671,0.256
1747853767351202862,0.317
1747853767358890053,0.354
1747853767366577244,0.356
1747853767374264435,0.369
1747853767381951626,0.369
1747853767389638817,0.34400000000000003
1747853767397326008,0.317
1747853767405013199,0.28
1747853767412700390,0.199
1747853767420387581,0.096
1747853767428074772,-0.004
1747853767435761963,-0.073
1747853767443449154,-0.125
1747853767451136345,-0.196
1747853767458823536,-0.265
1747853767466510727,-0.28500000000000003
1747853767474197918,-0.265
1747853767481885109,-0.26
1747853767489572300,-0.278
1747853767497259491,-0.265
1747853767504946682,-0.23600000000000002
1747853767512633873,-0.233
1747853767520321064,-0.246
1747853767528008255,-0.228
1747853767535695446,-0.209
1747853767543382637,-0.194
1747853767551069828,-0.182
1747853767558757019,-0.187
1747853767566444210,-0.196
1747853767574131401,-0.184
1747853767581818592,-0.167
1747853767589505783,-0.16
1747853767597192974,-0.155
1747853767604880165,-0.145
1747853767612567356,-0.137
1747853767620254547,-0.147
1747853767627941738,-0.162
1747853767635628929,-0.15
1747853767643316120,-0.12
1747853767651003311,-0.12
1747853767658690543,-0.14200000000000002,78,856
1747853767666377525,-0.137
1747853767674064507,-0.108
1747853767681751489,-0.093
1747853767689438471,-0.1
1747853767697125453,-0.108
1747853767704812435,-0.098
1747853767712499417,-0.093
1747853767720186399,-0.10300000000000001
1747853767727873381,-0.096
1747853767735560363,-0.078
1747853767743247345,-0.083
1747853767750934327,-0.098
1747853767758621309,-0.081
1747853767766308291,-0.054
1747853767773995273,-0.059000000000000004
1747853767781682255,-0.059000000000000004
1747853767789369237,-0.041
1747853767797056219,-0.039
1747853767804743201,-0.024
1747853767812430183,0.004
1747853767820117165,-0.014
1747853767827804147,-0.049
1747853767835491129,-0.032
1747853767843178111,-0.012
1747853767850865093,-0.049
1747853767858552075,-0.068
1747853767866239057,-0.049
1747853767873926039,-0.044
1747853767881613021,-0.046
1747853767889300003,-0.044
1747853767896986985,-0.051000000000000004
1747853767904673967,-0.054
1747853767912360949,-0.061
1747853767920047931,-0.093
1747853767927734913,-0.135
1747853767935421895,-0.076
1747853767943108877,0.29
1747853767950795859,1.026
1747853767958482841,1.792
1747853767966169823,1.782
1747853767973856805,0.524
1747853767981543787,-0.6
1747853767989230769,-0.384
1747853767996917751,-0.017
1747853768004604733,-0.184
1747853768012291715,-0.189
1747853768019978697,-0.064
1747853768027665679,-0.11
1747853768035352661,-0.13
1747853768043039643,-0.066
1747853768050726625,-0.051000000000000004
1747853768058413607,-0.054
1747853768066100589,-0.027
1747853768073787571,-0.007
1747853768081474553,0.009000000000000001
1747853768089161535,0.032
1747853768096848517,0.056
1747853768104535499,0.083
1747853768112222481,0.113
1747853768119909463,0.145
1747853768127596445,0.187
1747853768135283427,0.231
1747853768142970409,0.265
1747853768150657391,0.302
1747853768158344373,0.34400000000000003
1747853768166031355,0.376
1747853768173718337,0.393
1747853768181405319,0.401
1747853768189092301,0.391
1747853768196779283,0.364
1747853768204466265,0.332
1747853768212153247,0.278
1747853768219840266,0.17400000000000002
1747853768227527387,0.056
1747853768235214508,-0.051000000000000004
1747853768242901629,-0.152
1747853768250588750,-0.23800000000000002
1747853768258275871,-0.295
1747853768265962992,-0.324
1747853768273650113,-0.339
1747853768281337234,-0.342
1747853768289024355,-0.332
1747853768296711476,-0.322
1747853768304398597,-0.312
1747853768312085718,-0.29
1747853768319772839,-0.273
1747853768327459960,-0.26
1747853768335147081,-0.241
1747853768342834202,-0.226
1747853768350521323,-0.219
1747853768358208444,-0.211
1747853768365895565,-0.196
1747853768373582686,-0.187
1747853768381269807,-0.179
1747853768388956928,-0.169
1747853768396644049,-0.16
1747853768404331170,-0.15
1747853768412018291,-0.145
1747853768419705412,-0.147
1747853768427392533,-0.147
1747853768435079654,-0.14
1747853768442766775,-0.135
1747853768450453896,-0.13
1747853768458141017,-0.125
1747853768465828138,-0.123
1747853768473515259,-0.12
1747853768481202380,-0.11
1747853768488889501,-0.105
1747853768496576622,-0.105
1747853768504263743,-0.1
1747853768511950864,-0.093
1747853768519637985,-0.088
1747853768527325106,-0.093
1747853768535012227,-0.088
1747853768542699348,-0.07100000000000001
1747853768550386469,-0.046
1747853768558073590,-0.032
1747853768565760711,-0.032
1747853768573447832,-0.034
1747853768581134953,-0.039
1747853768588822074,-0.068
1747853768596509195,-0.091
1747853768604196316,-0.08600000000000001
1747853768611883437,-0.078
1747853768619570558,-0.078
1747853768627257679,-0.07100000000000001
1747853768634944800,-0.068
1747853768642631921,-0.068
1747853768650319042,-0.066
1747853768658006163,-0.07100000000000001
1747853768665693284,-0.1
1747853768673380405,-0.162
1747853768681067526,-0.145
1747853768688754647,0.20600000000000002
1747853768696441768,0.923
1747853768704128889,1.6640000000000001
1747853768711816010,1.834
1747853768719503131,0.809
1747853768727190252,-0.507
1747853768734877373,-0.529
1747853768742564494,-0.039
1747853768750251615,-0.135
1747853768757938736,-0.221
1747853768765625857,-0.08600000000000001
1747853768773312978,-0.088
1747853768781000163,-0.13,77,887
1747853768788687284,-0.078,,885
1747853768796374405,-0.051000000000000004
1747853768804061526,-0.054
1747853768811748647,-0.029
1747853768819435768,-0.004
1747853768827122889,0.007
1747853768834810010,0.032
1747853768842497131,0.059000000000000004
1747853768850184252,0.081
1747853768857871373,0.11
1747853768865558494,0.145
1747853768873245615,0.182
1747853768880932736,0.219
1747853768888619857,0.263
1747853768896306978,0.305
1747853768903994099,0.34400000000000003
1747853768911681220,0.374
1747853768919368341,0.391
1747853768927055462,0.393
1747853768934742583,0.381
1747853768942429704,0.361
1747853768950116825,0.324
1747853768957803946,0.26
1747853768965491067,0.167
1747853768973178188,0.056
1747853768980865309,-0.054
1747853768988552430,-0.15
1747853768996239551,-0.224
1747853769003926672,-0.275
1747853769011613793,-0.302
1747853769019300914,-0.315
1747853769026988035,-0.312
1747853769034675156,-0.307
1747853769042362277,-0.302
1747853769050049398,-0.292
1747853769057736519,-0.28
1747853769065423640,-0.268
1747853769073110761,-0.256
1747853769080797882,-0.243
1747853769088485003,-0.233
1747853769096172124,-0.224
1747853769103859245,-0.211
1747853769111546366,-0.201
1747853769119233487,-0.196
1747853769126920608,-0.192
1747853769134607729,-0.184
1747853769142294850,-0.179
1747853769149981971,-0.177
1747853769157669092,-0.17400000000000002
1747853769165356213,-0.17400000000000002
1747853769173043334,-0.17200000000000001
1747853769180730455,-0.169
1747853769188417576,-0.169
1747853769196104697,-0.167
1747853769203791818,-0.164
1747853769211478939,-0.162
1747853769219166060,-0.16
1747853769226853181,-0.157
1747853769234540302,-0.155
1747853769242227423,-0.15
1747853769249914544,-0.145
1747853769257601665,-0.14
1747853769265288786,-0.137
1747853769272975907,-0.14
1747853769280663028,-0.14200000000000002
1747853769288350149,-0.135
1747853769296037270,-0.11800000000000001
1747853769303724391,-0.096
1747853769311411512,-0.081
1747853769319098633,-0.081
1747853769326785754,-0.081
1747853769334472875,-0.08600000000000001
1747853769342160060,-0.108
1747853769349847181,-0.132
1747853769357534302,-0.13
1747853769365221423,-0.12
1747853769372908544,-0.12
1747853769380595665,-0.11800000000000001
1747853769388282786,-0.113
1747853769395969907,-0.113
1747853769403657028,-0.113
1747853769411344149,-0.125
1747853769419031270,-0.162
1747853769426718391,-0.226
1747853769434405512,-0.162
1747853769442092633,0.268
1747853769449779754,1.016
1747853769457466875,1.784
1747853769465153996,1.851
1747853769472841117,0.5680000000000001
1747853769480528238,-0.6910000000000001
1747853769488215359,-0.467
1747853769495902480,-0.007
1747853769503589601,-0.214
1747853769511276722,-0.28
1747853769518963843,-0.132
1747853769526650964,-0.157
1747853769534338085,-0.187
1747853769542025206,-0.125
1747853769549712327,-0.10300000000000001
1747853769557399448,-0.108
1747853769565086569,-0.078
1747853769572773690,-0.051000000000000004
1747853769580460811,-0.039
1747853769588147932,-0.014
1747853769595835053,0.012
1747853769603522174,0.036000000000000004
1747853769611209295,0.068
1747853769618896416,0.10300000000000001
1747853769626583537,0.14
1747853769634270658,0.179
1747853769641957779,0.224
1747853769649644900,0.265
1747853769657332021,0.305
1747853769665019142,0.334
1747853769672706263,0.34900000000000003
1747853769680393384,0.354
1747853769688080505,0.34700000000000003
1747853769695767626,0.327
1747853769703454747,0.295
1747853769711141868,0.233
1747853769718828989,0.14
1747853769726516110,0.032
1747853769734203231,-0.073
1747853769741890352,-0.164
1747853769749577473,-0.23600000000000002
1747853769757264594,-0.28
1747853769764951715,-0.307
1747853769772638836,-0.32
1747853769780325957,-0.32
1747853769788013078,-0.31
1747853769795700199,-0.3
1747853769803387320,-0.28800000000000003
1747853769811074441,-0.275
1747853769818761562,-0.263
1747853769826448683,-0.251
1747853769834135804,-0.23600000000000002
1747853769841822925,-0.226
1747853769849510046,-0.219
1747853769857197167,-0.211
1747853769864884288,-0.20400000000000001
1747853769872571409,-0.196
1747853769880258530,-0.192
1747853769887945651,-0.189
1747853769895632772,-0.184
1747853769903319961,-0.179,76,807
1747853769911007082,-0.177
1747853769918694203,-0.17400000000000002
1747853769926381324,-0.17200000000000001
1747853769934068445,-0.169
1747853769941755566,-0.164
1747853769949442687,-0.164
1747853769957129808,-0.162
1747853769964816929,-0.16
1747853769972504050,-0.155
1747853769980191171,-0.15
1747853769987878292,-0.145
1747853769995565413,-0.14
1747853770003252534,-0.137
1747853770010939655,-0.14
1747853770018626776,-0.14
1747853770026313897,-0.135
1747853770034001018,-0.123
1747853770041688139,-0.098
1747853770049375260,-0.078
1747853770057062381,-0.073
1747853770064749502,-0.068
1747853770072436623,-0.068
1747853770080123744,-0.083
1747853770087810865,-0.108
1747853770095497986,-0.115
1747853770103185107,-0.105
1747853770110872228,-0.10300000000000001
1747853770118559349,-0.098
1747853770126246470,-0.091
1747853770133933591,-0.088
1747853770141620712,-0.08600000000000001
1747853770149307833,-0.08600000000000001
1747853770156994954,-0.105
1747853770164682075,-0.162
1747853770172369196,-0.20400000000000001
1747853770180056317,-0.019
1747853770187743438,0.548
1747853770195430559,1.344
1747853770203117680,1.944
1747853770210804801,1.481
1747853770218491922,-0.022
1747853770226179043,-0.6940000000000001
1747853770233866164,-0.184
1747853770241553285,-0.029
1747853770249240406,-0.253
1747853770256927527,-0.182
1747853770264614648,-0.093
1747853770272301769,-0.147
1747853770279988890,-0.13
1747853770287676011,-0.078
1747853770295363132,-0.078
1747853770303050253,-0.066
1747853770310737374,-0.032
1747853770318424495,-0.017
1747853770326111616,0.0
1747853770333798737,0.027
1747853770341485858,0.059000000000000004
1747853770349172979,0.088
1747853770356860100,0.123
1747853770364547221,0.162
1747853770372234342,0.199
1747853770379921463,0.233
1747853770387608584,0.275
1747853770395295705,0.317
1747853770402982826,0.352
1747853770410669947,0.374
1747853770418357068,0.388
1747853770426044189,0.391
1747853770433731310,0.384
1747853770441418431,0.359
1747853770449105552,0.317
1747853770456792673,0.248
1747853770464479858,0.15
1747853770472166701,0.032
1747853770479853544,-0.07100000000000001
1747853770487540387,-0.152
1747853770495227230,-0.214
1747853770502914073,-0.251
1747853770510600916,-0.263
1747853770518287759,-0.27
1747853770525974602,-0.273
1747853770533661445,-0.265
1747853770541348288,-0.253
1747853770549035131,-0.246
1747853770556721974,-0.233
1747853770564408817,-0.214
1747853770572095660,-0.199
1747853770579782503,-0.192
1747853770587469346,-0.182
1747853770595156189,-0.17200000000000001
1747853770602843032,-0.167
1747853770610529875,-0.164
1747853770618216718,-0.164
1747853770625903561,-0.157
1747853770633590404,-0.147
1747853770641277247,-0.147
1747853770648964090,-0.15
1747853770656650933,-0.147
1747853770664337776,-0.14
1747853770672024619,-0.137
1747853770679711462,-0.137
1747853770687398305,-0.14
1747853770695085148,-0.132
1747853770702771991,-0.125
1747853770710458834,-0.128
1747853770718145677,-0.123
1747853770725832520,-0.113
1747853770733519363,-0.11800000000000001
1747853770741206206,-0.125
1747853770748893049,-0.115
1747853770756579892,-0.1
1747853770764266735,-0.081
1747853770771953578,-0.066
1747853770779640421,-0.068
1747853770787327264,-0.059000000000000004
1747853770795014107,-0.049
1747853770802700950,-0.07100000000000001
1747853770810387793,-0.098
1747853770818074636,-0.1
1747853770825761479,-0.093
1747853770833448322,-0.08600000000000001
1747853770841135165,-0.07100000000000001
1747853770848822008,-0.068
1747853770856508851,-0.081
1747853770864195694,-0.08600000000000001
1747853770871882537,-0.081
1747853770879569380,-0.1
1747853770887256223,-0.17200000000000001
1747853770894943066,-0.201
1747853770902629909,0.088
1747853770910316752,0.797
1747853770918003595,1.617
1747853770925690438,1.957
1747853770933377281,1.051
1747853770941064124,-0.396
1747853770948750967,-0.593
1747853770956437810,-0.07100000000000001
1747853770964124653,-0.125
1747853770971811496,-0.243
1747853770979498339,-0.1
1747853770987185182,-0.091
1747853770994872025,-0.132
1747853771002558868,-0.076
1747853771010245711,-0.049
1747853771017932554,-0.056
1747853771025619411,-0.027,75,747
1747853771033306602,0.004
1747853771040993793,0.022
1747853771048680984,0.036000000000000004
1747853771056368175,0.064
1747853771064055366,0.1
1747853771071742557,0.125
1747853771079429748,0.152
1747853771087116939,0.192
1747853771094804130,0.23800000000000002
1747853771102491321,0.28
1747853771110178512,0.317
1747853771117865703,0.366
1747853771125552894,0.41100000000000003
1747853771133240085,0.428
1747853771140927276,0.428
1747853771148614467,0.401
1747853771156301658,0.376
1747853771163988849,0.366
1747853771171676040,0.324
1747853771179363231,0.231
1747853771187050422,0.115
1747853771194737613,-0.009000000000000001
1747853771202424804,-0.132
1747853771210111995,-0.211
1747853771217799186,-0.243
1747853771225486377,-0.268
1747853771233173568,-0.28800000000000003
1747853771240860759,-0.28800000000000003
1747853771248547950,-0.28
1747853771256235141,-0.275
1747853771263922332,-0.256
1747853771271609523,-0.231
1747853771279296714,-0.221
1747853771286983905,-0.216
1747853771294671096,-0.209
1747853771302358287,-0.196
1747853771310045478,-0.177
1747853771317732669,-0.167
1747853771325419860,-0.167
1747853771333107051,-0.162
1747853771340794242,-0.15
1747853771348481433,-0.14
1747853771356168624,-0.135
1747853771363855815,-0.147
1747853771371543006,-0.15
1747853771379230197,-0.125
1747853771386917388,-0.11800000000000001
1747853771394604579,-0.137
1747853771402291770,-0.14200000000000002
1747853771409978961,-0.125
1747853771417666152,-0.11
1747853771425353343,-0.11
1747853771433040534,-0.132
1747853771440727725,-0.14
1747853771448414916,-0.108
1747853771456102107,-0.073
1747853771463789298,-0.064
1747853771471476489,-0.066
1747853771479163680,-0.056
1747853771486850871,-0.044
1747853771494538062,-0.093
1747853771502225253,-0.137
1747853771509912444,-0.10300000000000001
1747853771517599635,-0.064
1747853771525286826,-0.073
1747853771532974017,-0.08600000000000001
1747853771540661208,-0.078
1747853771548348399,-0.076
1747853771556035590,-0.076
1747853771563722781,-0.096
1747853771571409972,-0.152
1747853771579097163,-0.201
1747853771586784395,-0.002,76,752
1747853771594471307,0.657,,742
1747853771602158219,1.437
1747853771609845131,1.698
1747853771617532043,1.0010000000000001
1747853771625218955,-0.221
1747853771632905867,-0.593
1747853771640592779,-0.132
1747853771648279691,-0.039
1747853771655966603,-0.182
1747853771663653515,-0.076
1747853771671340427,-0.004
1747853771679027339,-0.056
1747853771686714251,-0.044
1747853771694401163,-0.009000000000000001
1747853771702088075,0.007
1747853771709774987,0.049
1747853771717461899,0.066
1747853771725148811,0.059000000000000004
1747853771732835723,0.096
1747853771740522635,0.145
1747853771748209547,0.157
1747853771755896459,0.17200000000000001
1747853771763583371,0.219
1747853771771270283,0.278
1747853771778957195,0.315
1747853771786644107,0.339
1747853771794331019,0.398
1747853771802017931,0.438
1747853771809704843,0.445
1747853771817391755,0.47500000000000003
1747853771825078667,0.484
1747853771832765579,0.452
1747853771840452491,0.438
1747853771848139403,0.418
1747853771855826315,0.332
1747853771863513227,0.201
1747853771871200139,0.108
1747853771878887051,-0.009000000000000001
1747853771886573963,-0.14
1747853771894260875,-0.189
1747853771901947787,-0.214
1747853771909634699,-0.27
1747853771917321611,-0.292
1747853771925008523,-0.278
1747853771932695435,-0.275
1747853771940382347,-0.27
1747853771948069259,-0.233
1747853771955756171,-0.221
1747853771963443083,-0.23800000000000002
1747853771971129995,-0.219
1747853771978816907,-0.17400000000000002
1747853771986503819,-0.177
1747853771994190731,-0.199
1747853772001877643,-0.17200000000000001
1747853772009564555,-0.145
1747853772017251467,-0.167
1747853772024938379,-0.164
1747853772032625291,-0.137
1747853772040312203,-0.14200000000000002
1747853772047999115,-0.14200000000000002
1747853772055686027,-0.125
1747853772063372939,-0.132
1747853772071059851,-0.14200000000000002
1747853772078746763,-0.13
1747853772086433675,-0.135
1747853772094120587,-0.14200000000000002
1747853772101807499,-0.135
1747853772109494411,-0.14200000000000002
1747853772117181323,-0.14200000000000002
1747853772124868235,-0.11800000000000001
1747853772132555147,-0.108
1747853772140242059,-0.11
1747853772147929031,-0.093
1747853772155616152,-0.081
1747853772163303273,-0.096
1747853772170990394,-0.125
1747853772178677515,-0.137
1747853772186364636,-0.137
1747853772194051757,-0.132
1747853772201738878,-0.12
1747853772209425999,-0.123
1747853772217113120,-0.128
1747853772224800241,-0.115
1747853772232487362,-0.11800000000000001
1747853772240174483,-0.147
1747853772247861604,-0.182
1747853772255548725,-0.226
1747853772263235846,-0.096
1747853772270922967,0.489
1747853772278610088,1.218
1747853772286297209,1.499
1747853772293984330,1.026
1747853772301671451,-0.046
1747853772309358572,-0.632
1747853772317045693,-0.295
1747853772324732814,-0.076
1747853772332419935,-0.199
1747853772340107056,-0.157
1747853772347794177,-0.081
1747853772355481298,-0.113
1747853772363168419,-0.10300000000000001
1747853772370855540,-0.059000000000000004
1747853772378542661,-0.059000000000000004
1747853772386229782,-0.051000000000000004
1747853772393916903,-0.012
1747853772401604024,0.009000000000000001
1747853772409291145,0.017
1747853772416978266,0.039
1747853772424665387,0.068
1747853772432352508,0.096
1747853772440039629,0.128
1747853772447726750,0.167
1747853772455413871,0.20600000000000002
1747853772463100992,0.248
1747853772470788113,0.29
1747853772478475234,0.324
1747853772486162355,0.34700000000000003
1747853772493849476,0.361
1747853772501536597,0.364
1747853772509223718,0.352
1747853772516910839,0.329
1747853772524597960,0.295
1747853772532285081,0.231
1747853772539972202,0.14200000000000002
1747853772547659323,0.032
1747853772555346444,-0.081
1747853772563033565,-0.17200000000000001
1747853772570720686,-0.241
1747853772578407807,-0.295
1747853772586094928,-0.327
1747853772593782049,-0.329
1747853772601469170,-0.329
1747853772609156291,-0.327
1747853772616843412,-0.317
1747853772624530533,-0.302
1747853772632217654,-0.28800000000000003
1747853772639904775,-0.275
1747853772647591896,-0.26
1747853772655279017,-0.248
1747853772662966138,-0.241
1747853772670653259,-0.228
1747853772678340380,-0.219
1747853772686027501,-0.221
1747853772693714622,-0.216
1747853772701401743,-0.20400000000000001
1747853772709088928,-0.199,76,720
1747853772716776049,-0.196
1747853772724463170,-0.192
1747853772732150291,-0.189
1747853772739837412,-0.192
1747853772747524533,-0.189
1747853772755211654,-0.182
1747853772762898775,-0.182
1747853772770585896,-0.189
1747853772778273017,-0.184
1747853772785960138,-0.177
1747853772793647259,-0.177
1747853772801334380,-0.182
1747853772809021501,-0.182
1747853772816708622,-0.179
1747853772824395743,-0.164
1747853772832082864,-0.14200000000000002
1747853772839769985,-0.14
1747853772847457106,-0.132
1747853772855144227,-0.113
1747853772862831348,-0.115
1747853772870518469,-0.14
1747853772878205590,-0.157
1747853772885892711,-0.155
1747853772893579832,-0.155
1747853772901266953,-0.152
1747853772908954074,-0.14200000000000002
1747853772916641195,-0.14
1747853772924328316,-0.135
1747853772932015437,-0.13
1747853772939702558,-0.145
1747853772947389679,-0.184
1747853772955076800,-0.23600000000000002
1747853772962763921,-0.14200000000000002
1747853772970451042,0.359
1747853772978138163,1.137
1747853772985825284,1.708
1747853772993512405,1.474
1747853773001199526,0.228
1747853773008886647,-0.706
1747853773016573768,-0.401
1747853773024260889,-0.064
1747853773031948010,-0.233
1747853773039635131,-0.23800000000000002
1747853773047322252,-0.123
1747853773055009373,-0.157
1747853773062696494,-0.167
1747853773070383615,-0.108
1747853773078070736,-0.1
1747853773085757857,-0.10300000000000001
1747853773093444978,-0.068
1747853773101132099,-0.046
1747853773108819220,-0.034
1747853773116506341,-0.007
1747853773124193462,0.024
1747853773131880583,0.049
1747853773139567704,0.078
1747853773147254825,0.113
1747853773154941946,0.152
1747853773162629067,0.196
1747853773170316188,0.241
1747853773178003309,0.28
1747853773185690430,0.315
1747853773193377551,0.332
1747853773201064672,0.337
1747853773208751793,0.329
1747853773216438914,0.315
1747853773224126035,0.28800000000000003
1747853773231813156,0.23800000000000002
1747853773239500277,0.157
1747853773247187398,0.054
1747853773254874519,-0.056
1747853773262561640,-0.155
1747853773270248829,-0.23800000000000002
1747853773277935950,-0.295
1747853773285623071,-0.329
1747853773293310192,-0.34400000000000003
1747853773300997313,-0.34700000000000003
1747853773308684434,-0.34400000000000003
1747853773316371555,-0.334
1747853773324058676,-0.322
1747853773331745797,-0.307
1747853773339432918,-0.292
1747853773347120039,-0.28
1747853773354807160,-0.268
1747853773362494281,-0.253
1747853773370181402,-0.241
1747853773377868523,-0.233
1747853773385555644,-0.226
1747853773393242765,-0.221
1747853773400929886,-0.216
1747853773408617007,-0.209
1747853773416304128,-0.209
1747853773423991249,-0.209
1747853773431678370,-0.20400000000000001
1747853773439365491,-0.199
1747853773447052612,-0.199
1747853773454739733,-0.199
1747853773462426854,-0.196
1747853773470113975,-0.192
1747853773477801096,-0.189
1747853773485488217,-0.189
1747853773493175338,-0.187
1747853773500862459,-0.182
1747853773508549580,-0.177
1747853773516236701,-0.177
1747853773523923822,-0.184
1747853773531610943,-0.182
1747853773539298064,-0.169
1747853773546985185,-0.152
1747853773554672306,-0.14200000000000002
1747853773562359427,-0.14
1747853773570046548,-0.125
1747853773577733669,-0.11
1747853773585420790,-0.123
1747853773593107911,-0.152
1747853773600795032,-0.162
1747853773608482153,-0.152
1747853773616169274,-0.147
1747853773623856395,-0.145
1747853773631543516,-0.14
1747853773639230637,-0.135
1747853773646917758,-0.132
1747853773654604879,-0.135
1747853773662292000,-0.15
1747853773669979121,-0.199
1747853773677666242,-0.246
1747853773685353363,-0.093
1747853773693040484,0.462
1747853773700727605,1.2570000000000001
1747853773708414726,1.841
1747853773716101847,1.459
1747853773723788968,0.029
1747853773731476089,-0.758
1747853773739163210,-0.28300000000000003
1747853773746850331,-0.036000000000000004
1747853773754537452,-0.275
1747853773762224573,-0.243
1747853773769911694,-0.13
1747853773777598815,-0.177
1747853773785285936,-0.177
1747853773792973057,-0.11800000000000001
1747853773800660178,-0.115
1747853773808347299,-0.11
1747853773816034420,-0.076
1747853773823721541,-0.054
1747853773831408726,-0.041,78,685
1747853773839095569,-0.017,,678
1747853773846782412,0.012
1747853773854469255,0.039
1747853773862156098,0.068
1747853773869842941,0.108
1747853773877529784,0.147
1747853773885216627,0.187
1747853773892903470,0.228
1747853773900590313,0.268
1747853773908277156,0.3
1747853773915963999,0.322
1747853773923650842,0.329
1747853773931337685,0.324
1747853773939024528,0.31
1747853773946711371,0.28300000000000003
1747853773954398214,0.23600000000000002
1747853773962085057,0.162
1747853773969771900,0.059000000000000004
1747853773977458743,-0.051000000000000004
1747853773985145586,-0.15
1747853773992832429,-0.228
1747853774000519272,-0.28800000000000003
1747853774008206115,-0.32
1747853774015892958,-0.334
1747853774023579801,-0.337
1747853774031266644,-0.329
1747853774038953487,-0.32
1747853774046640330,-0.307
1747853774054327173,-0.292
1747853774062014016,-0.28
1747853774069700859,-0.27
1747853774077387702,-0.258
1747853774085074545,-0.246
1747853774092761388,-0.23600000000000002
1747853774100448231,-0.228
1747853774108135074,-0.219
1747853774115821917,-0.216
1747853774123508760,-0.211
1747853774131195603,-0.209
1747853774138882446,-0.20600000000000002
1747853774146569289,-0.20400000000000001
1747853774154256132,-0.199
1747853774161942975,-0.196
1747853774169629818,-0.196
1747853774177316661,-0.194
1747853774185003504,-0.192
1747853774192690347,-0.189
1747853774200377190,-0.187
1747853774208064033,-0.184
1747853774215750876,-0.179
1747853774223437719,-0.177
1747853774231124562,-0.17200000000000001
1747853774238811405,-0.169
1747853774246498248,-0.164
1747853774254185091,-0.162
1747853774261871934,-0.157
1747853774269558777,-0.152
1747853774277245620,-0.147
1747853774284932463,-0.145
1747853774292619306,-0.14
1747853774300306149,-0.14200000000000002
1747853774307992992,-0.147
1747853774315679835,-0.147
1747853774323366678,-0.132
1747853774331053521,-0.113
1747853774338740364,-0.108
1747853774346427207,-0.105
1747853774354114050,-0.091
1747853774361800893,-0.078
1747853774369487736,-0.088
1747853774377174579,-0.113
1747853774384861422,-0.125
1747853774392548279,-0.12
1747853774400235470,-0.115
1747853774407922661,-0.11
1747853774415609852,-0.105
1747853774423297043,-0.10300000000000001
1747853774430984234,-0.1
1747853774438671425,-0.10300000000000001
1747853774446358616,-0.123
1747853774454045807,-0.179
1747853774461732998,-0.214
1747853774469420189,-0.017
1747853774477107380,0.551
1747853774484794571,1.336
1747853774492481762,1.93
1747853774500168953,1.442
1747853774507856144,-0.081
1747853774515543335,-0.733
1747853774523230526,-0.184
1747853774530917717,-0.034
1747853774538604908,-0.28800000000000003
1747853774546292099,-0.214
1747853774553979290,-0.11800000000000001
1747853774561666481,-0.182
1747853774569353672,-0.167
1747853774577040863,-0.108
1747853774584728054,-0.11
1747853774592415245,-0.10300000000000001
1747853774600102436,-0.068
1747853774607789627,-0.049
1747853774615476818,-0.034
1747853774623164009,-0.007
1747853774630851200,0.019
1747853774638538391,0.046
1747853774646225582,0.078
1747853774653912773,0.113
1747853774661599964,0.15
1747853774669287155,0.192
1747853774676974346,0.233
1747853774684661537,0.27
1747853774692348728,0.302
1747853774700035919,0.322
1747853774707723110,0.329
1747853774715410301,0.329
1747853774723097492,0.317
1747853774730784683,0.292
1747853774738471874,0.253
1747853774746159065,0.187
1747853774753846256,0.096
1747853774761533447,-0.009000000000000001
1747853774769220638,-0.105
1747853774776907829,-0.189
1747853774784595020,-0.251
1747853774792282211,-0.29
1747853774799969402,-0.307
1747853774807656593,-0.312
1747853774815343784,-0.307
1747853774823030975,-0.3
1747853774830718166,-0.28800000000000003
1747853774838405357,-0.273
1747853774846092548,-0.26
1747853774853779739,-0.248
1747853774861466930,-0.23600000000000002
1747853774869154121,-0.226
1747853774876841312,-0.216
1747853774884528503,-0.209
1747853774892215694,-0.20400000000000001
1747853774899902885,-0.199
1747853774907590076,-0.196
1747853774915277267,-0.194
1747853774922964458,-0.189
1747853774930651649,-0.187
1747853774938338840,-0.187
1747853774946026031,-0.184
1747853774953713263,-0.182,79,702
1747853774961400175,-0.179
1747853774969087087,-0.177
1747853774976773999,-0.177
1747853774984460911,-0.17200000000000001
1747853774992147823,-0.169
1747853774999834735,-0.167
1747853775007521647,-0.164
1747853775015208559,-0.16
1747853775022895471,-0.155
1747853775030582383,-0.152
1747853775038269295,-0.147
1747853775045956207,-0.145
1747853775053643119,-0.14
1747853775061330031,-0.135
1747853775069016943,-0.13
1747853775076703855,-0.125
1747853775084390767,-0.123
1747853775092077679,-0.12
1747853775099764591,-0.115
1747853775107451503,-0.113
1747853775115138415,-0.108
1747853775122825327,-0.108
1747853775130512239,-0.11
1747853775138199151,-0.108
1747853775145886063,-0.091
1747853775153572975,-0.066
1747853775161259887,-0.051000000000000004
1747853775168946799,-0.054
1747853775176633711,-0.059000000000000004
1747853775184320623,-0.059000000000000004
1747853775192007535,-0.073
1747853775199694447,-0.105
1747853775207381359,-0.113
1747853775215068271,-0.1
1747853775222755183,-0.098
1747853775230442095,-0.098
1747853775238129007,-0.093
1747853775245815919,-0.091
1747853775253502831,-0.088
1747853775261189743,-0.091
1747853775268876655,-0.108
1747853775276563567,-0.162
1747853775284250479,-0.20600000000000002
1747853775291937391,-0.041
1747853775299624303,0.489
1747853775307311215,1.27
1747853775314998127,1.917
1747853775322685039,1.568
1747853775330371951,0.081
1747853775338058863,-0.716
1747853775345745775,-0.23600000000000002
1747853775353432687,-0.024
1747853775361119599,-0.263
1747853775368806511,-0.216
1747853775376493423,-0.115
1747853775384180335,-0.169
1747853775391867247,-0.162
1747853775399554159,-0.1
1747853775407241071,-0.098
1747853775414927983,-0.093
1747853775422614895,-0.059000000000000004
1747853775430301807,-0.036000000000000004
1747853775437988719,-0.022
1747853775445675631,0.004
1747853775453362543,0.032
1747853775461049455,0.056
1747853775468736367,0.08600000000000001
1747853775476423279,0.11800000000000001
1747853775484110191,0.152
1747853775491797103,0.189
1747853775499484015,0.228
1747853775507170927,0.263
1747853775514857899,0.295
1747853775522545020,0.315
1747853775530232141,0.322
1747853775537919262,0.322
1747853775545606383,0.31
1747853775553293504,0.29
1747853775560980625,0.258
1747853775568667746,0.201
1747853775576354867,0.11800000000000001
1747853775584041988,0.019
1747853775591729109,-0.076
1747853775599416230,-0.157
1747853775607103351,-0.219
1747853775614790472,-0.263
1747853775622477593,-0.28500000000000003
1747853775630164714,-0.292
1747853775637851835,-0.29
1747853775645538956,-0.28300000000000003
1747853775653226077,-0.27
1747853775660913198,-0.258
1747853775668600319,-0.243
1747853775676287440,-0.231
1747853775683974561,-0.219
1747853775691661682,-0.211
1747853775699348803,-0.201
1747853775707035924,-0.196
1747853775714723045,-0.192
1747853775722410166,-0.189
1747853775730097287,-0.187
1747853775737784408,-0.184
1747853775745471529,-0.182
1747853775753158650,-0.182
1747853775760845771,-0.179
1747853775768532892,-0.179
1747853775776220013,-0.177
1747853775783907134,-0.177
1747853775791594255,-0.17400000000000002
1747853775799281376,-0.169
1747853775806968497,-0.167
1747853775814655618,-0.164
1747853775822342739,-0.162
1747853775830029860,-0.16
1747853775837716981,-0.155
1747853775845404102,-0.147
1747853775853091223,-0.145
1747853775860778344,-0.14200000000000002
1747853775868465465,-0.137
1747853775876152586,-0.132
1747853775883839707,-0.13
1747853775891526828,-0.125
1747853775899213949,-0.12
1747853775906901070,-0.11800000000000001
1747853775914588191,-0.115
1747853775922275312,-0.11
1747853775929962433,-0.108
1747853775937649554,-0.10300000000000001
1747853775945336675,-0.1
1747853775953023796,-0.098
1747853775960710917,-0.098
1747853775968398038,-0.098
1747853775976085159,-0.088
1747853775983772280,-0.07100000000000001
1747853775991459401,-0.051000000000000004
1747853775999146522,-0.044
1747853776006833643,-0.049
1747853776014520764,-0.049
1747853776022207885,-0.059000000000000004
1747853776029895006,-0.088
1747853776037582127,-0.108
1747853776045269248,-0.10300000000000001
1747853776052956369,-0.096
1747853776060643490,-0.093
1747853776068330611,-0.091
1747853776076017796,-0.088,80,722
1747853776083704917,-0.08600000000000001
1747853776091392038,-0.08600000000000001
1747853776099079159,-0.093
1747853776106766280,-0.13
1747853776114453401,-0.196
1747853776122140522,-0.169
1747853776129827643,0.187
1747853776137514764,0.891
1747853776145201885,1.678
1747853776152889006,1.9120000000000001
1747853776160576127,0.834
1747853776168263248,-0.534
1747853776175950369,-0.524
1747853776183637490,-0.032
1747853776191324611,-0.167
1747853776199011732,-0.275
1747853776206698853,-0.135
1747853776214385974,-0.137
1747853776222073095,-0.179
1747853776229760216,-0.125
1747853776237447337,-0.096
1747853776245134458,-0.098
1747853776252821579,-0.073
1747853776260508700,-0.044
1747853776268195821,-0.032
1747853776275882942,-0.009000000000000001
1747853776283570063,0.017
1747853776291257184,0.041
1747853776298944305,0.068
1747853776306631426,0.098
1747853776314318547,0.13
1747853776322005668,0.167
1747853776329692789,0.20400000000000001
1747853776337379910,0.241
1747853776345067031,0.275
1747853776352754152,0.302
1747853776360441273,0.315
1747853776368128394,0.317
1747853776375815515,0.312
1747853776383502636,0.295
1747853776391189757,0.268
1747853776398876878,0.226
1747853776406563999,0.16
1747853776414251120,0.066
1747853776421938241,-0.029
1747853776429625362,-0.115
1747853776437312483,-0.189
1747853776444999604,-0.241
1747853776452686725,-0.273
1747853776460373846,-0.28800000000000003
1747853776468060967,-0.29
1747853776475748088,-0.28500000000000003
1747853776483435209,-0.278
1747853776491122330,-0.265
1747853776498809451,-0.251
1747853776506496572,-0.23800000000000002
1747853776514183693,-0.228
1747853776521870814,-0.216
1747853776529557935,-0.20600000000000002
1747853776537245056,-0.201
1747853776544932177,-0.196
1747853776552619298,-0.192
1747853776560306419,-0.189
1747853776567993540,-0.187
1747853776575680661,-0.182
1747853776583367782,-0.179
1747853776591054903,-0.179
1747853776598742024,-0.179
1747853776606429145,-0.177
1747853776614116266,-0.17400000000000002
1747853776621803387,-0.17200000000000001
1747853776629490508,-0.169
1747853776637177693,-0.167,80,783
1747853776644864814,-0.164
1747853776652551935,-0.162
1747853776660239056,-0.16
1747853776667926177,-0.157
1747853776675613298,-0.155
1747853776683300419,-0.15
1747853776690987540,-0.145
1747853776698674661,-0.14200000000000002
1747853776706361782,-0.14
1747853776714048903,-0.135
1747853776721736024,-0.132
1747853776729423145,-0.128
1747853776737110266,-0.125
1747853776744797387,-0.123
1747853776752484508,-0.11800000000000001
1747853776760171629,-0.115
1747853776767858750,-0.11
1747853776775545871,-0.108
1747853776783232992,-0.10300000000000001
1747853776790920113,-0.10300000000000001
1747853776798607234,-0.10300000000000001
1747853776806294355,-0.10300000000000001
1747853776813981476,-0.093
1747853776821668597,-0.073
1747853776829355718,-0.054
1747853776837042839,-0.044
1747853776844729960,-0.051000000000000004
1747853776852417081,-0.054
1747853776860104202,-0.056
1747853776867791323,-0.08600000000000001
1747853776875478444,-0.113
1747853776883165565,-0.108
1747853776890852686,-0.096
1747853776898539807,-0.096
1747853776906226928,-0.096
1747853776913914049,-0.093
1747853776921601170,-0.091
1747853776929288291,-0.091
1747853776936975412,-0.098
1747853776944662533,-0.13
1747853776952349654,-0.192
1747853776960036775,-0.17400000000000002
1747853776967723896,0.152
1747853776975411017,0.8320000000000001
1747853776983098138,1.617
1747853776990785259,1.9020000000000001
1747853776998472380,0.896
1747853777006159501,-0.492
1747853777013846622,-0.548
1747853777021533743,-0.046
1747853777029220864,-0.152
1747853777036907985,-0.273
1747853777044595106,-0.14
1747853777052282227,-0.135
1747853777059969348,-0.177
1747853777067656469,-0.125
1747853777075343590,-0.093
1747853777083030711,-0.098
1747853777090717832,-0.073
1747853777098404953,-0.044
1747853777106092074,-0.029
1747853777113779195,-0.009000000000000001
1747853777121466316,0.017
1747853777129153437,0.041
1747853777136840558,0.066
1747853777144527679,0.1
1747853777152214800,0.132
1747853777159901921,0.169
1747853777167589042,0.209
1747853777175276163,0.246
1747853777182963284,0.28
1747853777190650405,0.305
1747853777198337594,0.32
1747853777206024437,0.324
1747853777213711280,0.32
1747853777221398123,0.302
1747853777229084966,0.275
1747853777236771809,0.23800000000000002
1747853777244458652,0.17400000000000002
1747853777252145495,0.083
1747853777259832338,-0.019
1747853777267519181,-0.11
1747853777275206024,-0.182
1747853777282892867,-0.23600000000000002
1747853777290579710,-0.27
1747853777298266553,-0.28500000000000003
1747853777305953396,-0.29
1747853777313640239,-0.28800000000000003
1747853777321327082,-0.28
1747853777329013925,-0.268
1747853777336700768,-0.253
1747853777344387611,-0.23800000000000002
1747853777352074454,-0.226
1747853777359761297,-0.219
1747853777367448140,-0.211
1747853777375134983,-0.199
1747853777382821826,-0.187
1747853777390508669,-0.184
1747853777398195512,-0.184
1747853777405882355,-0.184
1747853777413569198,-0.179
1747853777421256041,-0.177
1747853777428942884,-0.17400000000000002
1747853777436629727,-0.17200000000000001
1747853777444316570,-0.169
1747853777452003413,-0.167
1747853777459690256,-0.164
1747853777467377099,-0.162
1747853777475063942,-0.16
1747853777482750785,-0.155
1747853777490437628,-0.15
1747853777498124471,-0.152
1747853777505811314,-0.155
1747853777513498157,-0.145
1747853777521185000,-0.137
1747853777528871843,-0.135
1747853777536558686,-0.132
1747853777544245529,-0.128
1747853777551932372,-0.125
1747853777559619215,-0.123
1747853777567306058,-0.11800000000000001
1747853777574992901,-0.11
1747853777582679744,-0.105
1747853777590366587,-0.10300000000000001
1747853777598053430,-0.1
1747853777605740273,-0.098
1747853777613427116,-0.096
1747853777621113959,-0.093
1747853777628800802,-0.08600000000000001
1747853777636487645,-0.08600000000000001
1747853777644174488,-0.076
1747853777651861331,-0.046
1747853777659548174,-0.032
1747853777667235017,-0.039
1747853777674921860,-0.039
1747853777682608703,-0.044
1747853777690295546,-0.076
1747853777697982389,-0.10300000000000001
1747853777705669232,-0.096
1747853777713356075,-0.083
1747853777721042918,-0.081
1747853777728729761,-0.078
1747853777736416604,-0.076
1747853777744103447,-0.076
1747853777751790290,-0.078
1747853777759477147,-0.083,80,823
1747853777767164338,-0.11,,834
1747853777774851529,-0.177
1747853777782538720,-0.15
1747853777790225911,0.214
1747853777797913102,0.933
1747853777805600293,1.713
1747853777813287484,1.92
1747853777820974675,0.8270000000000001
1747853777828661866,-0.536
1747853777836349057,-0.521
1747853777844036248,-0.029
1747853777851723439,-0.155
1747853777859410630,-0.246
1747853777867097821,-0.113
1747853777874785012,-0.12
1747853777882472203,-0.15
1747853777890159394,-0.091
1747853777897846585,-0.07100000000000001
1747853777905533776,-0.076
1747853777913220967,-0.046
1747853777920908158,-0.017
1747853777928595349,0.0
1747853777936282540,0.022
1747853777943969731,0.049
1747853777951656922,0.076
1747853777959344113,0.10300000000000001
1747853777967031304,0.135
1747853777974718495,0.17200000000000001
1747853777982405686,0.211
1747853777990092877,0.253
1747853777997780068,0.295
1747853778005467259,0.334
1747853778013154450,0.359
1747853778020841641,0.374
1747853778028528832,0.379
1747853778036216023,0.374
1747853778043903214,0.361
1747853778051590405,0.332
1747853778059277596,0.28
1747853778066964787,0.196
1747853778074651978,0.091
1747853778082339169,-0.017
1747853778090026360,-0.11800000000000001
1747853778097713551,-0.196
1747853778105400742,-0.251
1747853778113087933,-0.28
1747853778120775124,-0.295
1747853778128462315,-0.3
1747853778136149506,-0.297
1747853778143836697,-0.28500000000000003
1747853778151523888,-0.273
1747853778159211079,-0.26
1747853778166898270,-0.246
1747853778174585461,-0.233
1747853778182272652,-0.226
1747853778189959843,-0.219
1747853778197647034,-0.209
1747853778205334225,-0.201
1747853778213021416,-0.194
1747853778220708607,-0.192
1747853778228395798,-0.184
1747853778236082989,-0.177
1747853778243770180,-0.17200000000000001
1747853778251457371,-0.17200000000000001
1747853778259144562,-0.177
1747853778266831753,-0.17400000000000002
1747853778274518944,-0.17200000000000001
1747853778282206135,-0.169
1747853778289893326,-0.167
1747853778297580517,-0.167
1747853778305267708,-0.164
1747853778312954899,-0.162
1747853778320642131,-0.16
1747853778328329043,-0.155
1747853778336015955,-0.15
1747853778343702867,-0.145
1747853778351389779,-0.14200000000000002
1747853778359076691,-0.14200000000000002
1747853778366763603,-0.137
1747853778374450515,-0.132
1747853778382137427,-0.128
1747853778389824339,-0.128
1747853778397511251,-0.125
1747853778405198163,-0.12
1747853778412885075,-0.115
1747853778420571987,-0.115
1747853778428258899,-0.115
1747853778435945811,-0.11
1747853778443632723,-0.093
1747853778451319635,-0.07100000000000001
1747853778459006547,-0.056
1747853778466693459,-0.056
1747853778474380371,-0.059000000000000004
1747853778482067283,-0.061
1747853778489754195,-0.081
1747853778497441107,-0.113
1747853778505128019,-0.12
1747853778512814931,-0.11
1747853778520501843,-0.105
1747853778528188755,-0.10300000000000001
1747853778535875667,-0.1
1747853778543562579,-0.098
1747853778551249491,-0.098
1747853778558936403,-0.1
1747853778566623315,-0.12
1747853778574310227,-0.17200000000000001
1747853778581997139,-0.214
1747853778589684051,-0.014
1747853778597370963,0.585
1747853778605057875,1.393
1747853778612744787,1.959
1747853778620431699,1.422
1747853778628118611,-0.10300000000000001
1747853778635805523,-0.718
1747853778643492435,-0.192
1747853778651179347,-0.073
1747853778658866259,-0.28300000000000003
1747853778666553171,-0.189
1747853778674240083,-0.115
1747853778681926995,-0.179
1747853778689613907,-0.152
1747853778697300819,-0.098
1747853778704987731,-0.1
1747853778712674643,-0.088
1747853778720361555,-0.054
1747853778728048467,-0.036000000000000004
1747853778735735379,-0.019
1747853778743422291,0.007
1747853778751109203,0.034
1747853778758796115,0.056
1747853778766483027,0.091
1747853778774169939,0.125
1747853778781856851,0.162
1747853778789543763,0.199
1747853778797230675,0.241
1747853778804917587,0.28
1747853778812604499,0.312
1747853778820291411,0.334
1747853778827978323,0.342
1747853778835665235,0.337
1747853778843352147,0.327
1747853778851039059,0.305
1747853778858725971,0.263
1747853778866412883,0.189
1747853778874099795,0.093
1747853778881786767,-0.012,79,838
1747853778889473888,-0.11
1747853778897161009,-0.194
1747853778904848130,-0.256
1747853778912535251,-0.292
1747853778920222372,-0.312
1747853778927909493,-0.317
1747853778935596614,-0.315
1747853778943283735,-0.302
1747853778950970856,-0.292
1747853778958657977,-0.28
1747853778966345098,-0.268
1747853778974032219,-0.253
1747853778981719340,-0.241
1747853778989406461,-0.228
1747853778997093582,-0.219
1747853779004780703,-0.211
1747853779012467824,-0.20600000000000002
1747853779020154945,-0.201
1747853779027842066,-0.194
1747853779035529187,-0.192
1747853779043216308,-0.187
1747853779050903429,-0.184
1747853779058590550,-0.179
1747853779066277671,-0.179
1747853779073964792,-0.179
1747853779081651913,-0.17400000000000002
1747853779089339034,-0.17400000000000002
1747853779097026155,-0.17200000000000001
1747853779104713276,-0.17200000000000001
1747853779112400397,-0.167
1747853779120087518,-0.164
1747853779127774639,-0.162
1747853779135461760,-0.157
1747853779143148881,-0.152
1747853779150836002,-0.15
1747853779158523123,-0.145
1747853779166210244,-0.14
1747853779173897365,-0.135
1747853779181584486,-0.132
1747853779189271607,-0.128
1747853779196958728,-0.125
1747853779204645849,-0.123
1747853779212332970,-0.11800000000000001
1747853779220020091,-0.113
1747853779227707212,-0.11
1747853779235394333,-0.105
1747853779243081454,-0.10300000000000001
1747853779250768575,-0.10300000000000001
1747853779258455696,-0.10300000000000001
1747853779266142817,-0.1
1747853779273829938,-0.088
1747853779281517059,-0.064
1747853779289204180,-0.046
1747853779296891301,-0.044
1747853779304578422,-0.051000000000000004
1747853779312265543,-0.051000000000000004
1747853779319952664,-0.064
1747853779327639785,-0.096
1747853779335326906,-0.11
1747853779343014027,-0.1
1747853779350701148,-0.093
1747853779358388269,-0.093
1747853779366075390,-0.091
1747853779373762511,-0.088
1747853779381449632,-0.088
1747853779389136753,-0.088
1747853779396823874,-0.105
1747853779404510995,-0.16
1747853779412198116,-0.20600000000000002
1747853779419885237,-0.046
1747853779427572358,0.497
1747853779435259479,1.289
1747853779442946664,1.947
1747853779450633785,1.619
1747853779458320906,0.132
1747853779466008027,-0.711
1747853779473695148,-0.256
1747853779481382269,-0.027
1747853779489069390,-0.258
1747853779496756511,-0.216
1747853779504443632,-0.11
1747853779512130753,-0.167
1747853779519817874,-0.16
1747853779527504995,-0.1
1747853779535192116,-0.098
1747853779542879237,-0.093
1747853779550566358,-0.059000000000000004
1747853779558253479,-0.036000000000000004
1747853779565940600,-0.022
1747853779573627721,0.004
1747853779581314842,0.032
1747853779589001963,0.056
1747853779596689084,0.088
1747853779604376205,0.12
1747853779612063326,0.155
1747853779619750447,0.196
1747853779627437568,0.23600000000000002
1747853779635124689,0.275
1747853779642811810,0.31
1747853779650498931,0.334
1747853779658186052,0.34400000000000003
1747853779665873173,0.34400000000000003
1747853779673560294,0.337
1747853779681247415,0.315
1747853779688934536,0.278
1747853779696621657,0.216
1747853779704308778,0.128
1747853779711995899,0.022
1747853779719683020,-0.078
1747853779727370141,-0.164
1747853779735057262,-0.231
1747853779742744383,-0.275
1747853779750431504,-0.3
1747853779758118625,-0.307
1747853779765805746,-0.305
1747853779773492867,-0.297
1747853779781179988,-0.28500000000000003
1747853779788867109,-0.273
1747853779796554230,-0.26
1747853779804241351,-0.248
1747853779811928472,-0.23600000000000002
1747853779819615593,-0.224
1747853779827302714,-0.214
1747853779834989835,-0.20600000000000002
1747853779842676956,-0.199
1747853779850364077,-0.194
1747853779858051198,-0.189
1747853779865738319,-0.187
1747853779873425440,-0.184
1747853779881112561,-0.179
1747853779888799682,-0.177
1747853779896486803,-0.17400000000000002
1747853779904173924,-0.17400000000000002
1747853779911861045,-0.17200000000000001
1747853779919548166,-0.169
1747853779927235287,-0.167
1747853779934922408,-0.167
1747853779942609529,-0.164
1747853779950296650,-0.16
1747853779957983771,-0.157
1747853779965670892,-0.152
1747853779973358013,-0.147
1747853779981045134,-0.145
1747853779988732255,-0.14200000000000002
1747853779996419376,-0.137
1747853780004106561,-0.132,78,822
1747853780011793682,-0.128
1747853780019480803,-0.123
1747853780027167924,-0.12
1747853780034855045,-0.115
1747853780042542166,-0.113
1747853780050229287,-0.11
1747853780057916408,-0.105
1747853780065603529,-0.10300000000000001
1747853780073290650,-0.10300000000000001
1747853780080977771,-0.098
1747853780088664892,-0.093
1747853780096352013,-0.093
1747853780104039134,-0.091
1747853780111726255,-0.088
1747853780119413376,-0.08600000000000001
1747853780127100497,-0.081
1747853780134787618,-0.078
1747853780142474739,-0.081
1747853780150161860,-0.083
1747853780157848981,-0.078
1747853780165536102,-0.064
1747853780173223223,-0.041
1747853780180910344,-0.032
1747853780188597465,-0.034
1747853780196284586,-0.034
1747853780203971707,-0.036000000000000004
1747853780211658828,-0.061
1747853780219345949,-0.091
1747853780227033070,-0.093
1747853780234720191,-0.081
1747853780242407312,-0.078
1747853780250094433,-0.078
1747853780257781554,-0.073
1747853780265468675,-0.07100000000000001
1747853780273155796,-0.07100000000000001
1747853780280842917,-0.078
1747853780288530038,-0.11
1747853780296217159,-0.177
1747853780303904280,-0.177
1747853780311591401,0.13
1747853780319278522,0.809
1747853780326965643,1.6340000000000001
1747853780334652764,2.013
1747853780342339885,1.097
1747853780350027006,-0.388
1747853780357714127,-0.593
1747853780365401248,-0.056
1747853780373088369,-0.11800000000000001
1747853780380775490,-0.278
1747853780388462611,-0.152
1747853780396149732,-0.125
1747853780403836853,-0.177
1747853780411523974,-0.13
1747853780419211095,-0.091
1747853780426898216,-0.098
1747853780434585337,-0.076
1747853780442272458,-0.044
1747853780449959579,-0.029
1747853780457646700,-0.009000000000000001
1747853780465333821,0.017
1747853780473020942,0.044
1747853780480708063,0.068
1747853780488395184,0.1
1747853780496082305,0.132
1747853780503769426,0.169
1747853780511456547,0.20600000000000002
1747853780519143668,0.246
1747853780526830789,0.28300000000000003
1747853780534517910,0.312
1747853780542205031,0.334
1747853780549892152,0.342
1747853780557579273,0.337
1747853780565266462,0.324,78,803
1747853780572953444,0.302
1747853780580640426,0.263
1747853780588327408,0.199
1747853780596014390,0.108
1747853780603701372,0.004
1747853780611388354,-0.088
1747853780619075336,-0.169
1747853780626762318,-0.231
1747853780634449300,-0.27
1747853780642136282,-0.28800000000000003
1747853780649823264,-0.295
1747853780657510246,-0.295
1747853780665197228,-0.28800000000000003
1747853780672884210,-0.273
1747853780680571192,-0.26
1747853780688258174,-0.251
1747853780695945156,-0.23600000000000002
1747853780703632138,-0.224
1747853780711319120,-0.214
1747853780719006102,-0.20400000000000001
1747853780726693084,-0.196
1747853780734380066,-0.189
1747853780742067048,-0.187
1747853780749754030,-0.182
1747853780757441012,-0.177
1747853780765127994,-0.17400000000000002
1747853780772814976,-0.17200000000000001
1747853780780501958,-0.169
1747853780788188940,-0.167
1747853780795875922,-0.167
1747853780803562904,-0.164
1747853780811249886,-0.162
1747853780818936868,-0.16
1747853780826623850,-0.157
1747853780834310832,-0.152
1747853780841997814,-0.15
1747853780849684796,-0.15
1747853780857371778,-0.145
1747853780865058760,-0.14
1747853780872745742,-0.137
1747853780880432724,-0.132
1747853780888119706,-0.128
1747853780895806688,-0.123
1747853780903493670,-0.12
1747853780911180652,-0.11800000000000001
1747853780918867634,-0.113
1747853780926554616,-0.108
1747853780934241598,-0.105
1747853780941928580,-0.10300000000000001
1747853780949615562,-0.098
1747853780957302544,-0.096
1747853780964989526,-0.093
1747853780972676508,-0.088
1747853780980363490,-0.088
1747853780988050472,-0.08600000000000001
1747853780995737454,-0.081
1747853781003424436,-0.078
1747853781011111418,-0.076
1747853781018798400,-0.073
1747853781026485382,-0.073
1747853781034172364,-0.073
1747853781041859346,-0.073
1747853781049546328,-0.068
1747853781057233310,-0.054
1747853781064920292,-0.032
1747853781072607274,-0.022
1747853781080294256,-0.027
1747853781087981238,-0.027
1747853781095668220,-0.029
1747853781103355202,-0.056
1747853781111042184,-0.08600000000000001
1747853781118729166,-0.08600000000000001
1747853781126416187,-0.073
1747853781134103030,-0.07100000000000001
1747853781141789873,-0.07100000000000001
1747853781149476716,-0.066
1747853781157163559,-0.066
1747853781164850402,-0.064
1747853781172537245,-0.073
1747853781180224088,-0.105
1747853781187910931,-0.169
1747853781195597774,-0.15
1747853781203284617,0.192
1747853781210971460,0.888
1747853781218658303,1.686
1747853781226345146,1.957
1747853781234031989,0.918
1747853781241718832,-0.484
1747853781249405675,-0.524
1747853781257092518,-0.019
1747853781264779361,-0.14200000000000002
1747853781272466204,-0.263
1747853781280153047,-0.128
1747853781287839890,-0.123
1747853781295526733,-0.167
1747853781303213576,-0.115
1747853781310900419,-0.081
1747853781318587262,-0.088
1747853781326274105,-0.064
1747853781333960948,-0.034
1747853781341647791,-0.019
1747853781349334634,0.0
1747853781357021477,0.027
1747853781364708320,0.054
1747853781372395163,0.078
1747853781380082006,0.108
1747853781387768849,0.14200000000000002
1747853781395455692,0.179
1747853781403142535,0.219
1747853781410829378,0.258
1747853781418516221,0.295
1747853781426203064,0.322
1747853781433889907,0.342
1747853781441576750,0.34900000000000003
1747853781449263593,0.34400000000000003
1747853781456950436,0.329
1747853781464637279,0.307
1747853781472324122,0.263
1747853781480010965,0.194
1747853781487697808,0.1
1747853781495384651,-0.002
1747853781503071494,-0.096
1747853781510758337,-0.17400000000000002
1747853781518445180,-0.233
1747853781526132023,-0.27
1747853781533818866,-0.28800000000000003
1747853781541505709,-0.292
1747853781549192552,-0.28800000000000003
1747853781556879395,-0.28
1747853781564566238,-0.27
1747853781572253081,-0.258
1747853781579939924,-0.246
1747853781587626767,-0.233
1747853781595313610,-0.221
1747853781603000453,-0.211
1747853781610687296,-0.201
1747853781618374139,-0.194
1747853781626060982,-0.189
1747853781633747825,-0.182
1747853781641434668,-0.179
1747853781649121511,-0.17400000000000002
1747853781656808354,-0.17200000000000001
1747853781664495197,-0.169
1747853781672182040,-0.167
1747853781679868883,-0.167
1747853781687555738,-0.164,77,831
1747853781695242859,-0.162
1747853781702929980,-0.16
1747853781710617101,-0.157
1747853781718304222,-0.155
1747853781725991343,-0.152
1747853781733678464,-0.15
1747853781741365585,-0.15
1747853781749052706,-0.147
1747853781756739827,-0.14200000000000002
1747853781764426948,-0.137
1747853781772114069,-0.135
1747853781779801190,-0.132
1747853781787488311,-0.128
1747853781795175432,-0.123
1747853781802862553,-0.11800000000000001
1747853781810549674,-0.115
1747853781818236795,-0.11
1747853781825923916,-0.108
1747853781833611037,-0.105
1747853781841298158,-0.10300000000000001
1747853781848985279,-0.098
1747853781856672400,-0.096
1747853781864359521,-0.093
1747853781872046642,-0.088
1747853781879733763,-0.08600000000000001
1747853781887420884,-0.081
1747853781895108005,-0.081
1747853781902795126,-0.081
1747853781910482247,-0.078
1747853781918169368,-0.068
1747853781925856489,-0.049
1747853781933543610,-0.032
1747853781941230731,-0.029
1747853781948917852,-0.034
1747853781956604973,-0.036000000000000004
1747853781964292094,-0.054
1747853781971979215,-0.08600000000000001
1747853781979666336,-0.098
1747853781987353457,-0.088
1747853781995040578,-0.081
1747853782002727699,-0.081
1747853782010414820,-0.078
1747853782018101941,-0.076
1747853782025789062,-0.076
1747853782033476183,-0.076
1747853782041163304,-0.093
1747853782048850425,-0.14200000000000002
1747853782056537546,-0.194
1747853782064224667,-0.056
1747853782071911788,0.452
1747853782079598909,1.228
1747853782087286030,1.9000000000000001
1747853782094973151,1.6340000000000001
1747853782102660272,0.199
1747853782110347393,-0.6890000000000001
1747853782118034514,-0.27
1747853782125721635,-0.017
1747853782133408756,-0.243
1747853782141095877,-0.214
1747853782148782998,-0.105
1747853782156470119,-0.155
1747853782164157240,-0.155
1747853782171844361,-0.096
1747853782179531482,-0.091
1747853782187218603,-0.088
1747853782194905724,-0.056
1747853782202592845,-0.034
1747853782210279966,-0.019
1747853782217967087,0.007
1747853782225654208,0.034
1747853782233341329,0.056
1747853782241028450,0.08600000000000001
1747853782248715635,0.12
1747853782256402896,0.155
1747853782264090157,0.194
1747853782271777418,0.233
1747853782279464679,0.273
1747853782287151940,0.307
1747853782294839201,0.332
1747853782302526462,0.34400000000000003
1747853782310213723,0.34700000000000003
1747853782317900984,0.337
1747853782325588245,0.317
1747853782333275506,0.28500000000000003
1747853782340962767,0.231
1747853782348650028,0.147
1747853782356337289,0.044
1747853782364024550,-0.056
1747853782371711811,-0.145
1747853782379399072,-0.214
1747853782387086333,-0.26
1747853782394773594,-0.28800000000000003
1747853782402460855,-0.297
1747853782410148116,-0.297
1747853782417835377,-0.292
1747853782425522638,-0.28300000000000003
1747853782433209899,-0.27
1747853782440897160,-0.256
1747853782448584421,-0.246
1747853782456271682,-0.233
1747853782463958943,-0.221
1747853782471646204,-0.211
1747853782479333465,-0.20400000000000001
1747853782487020726,-0.194
1747853782494707987,-0.189
1747853782502395248,-0.184
1747853782510082509,-0.179
1747853782517769770,-0.17400000000000002
1747853782525457031,-0.17200000000000001
1747853782533144292,-0.169
1747853782540831553,-0.167
1747853782548518814,-0.164
1747853782556206075,-0.164
1747853782563893336,-0.162
1747853782571580597,-0.16
1747853782579267858,-0.157
1747853782586955119,-0.155
1747853782594642380,-0.152
1747853782602329641,-0.15
1747853782610016902,-0.147
1747853782617704163,-0.14200000000000002
1747853782625391424,-0.14
1747853782633078685,-0.135
1747853782640765946,-0.132
1747853782648453207,-0.128
1747853782656140468,-0.123
1747853782663827729,-0.12
1747853782671514990,-0.11800000000000001
1747853782679202251,-0.113
1747853782686889512,-0.11
1747853782694576773,-0.105
1747853782702264034,-0.10300000000000001
1747853782709951295,-0.1
1747853782717638556,-0.098
1747853782725325817,-0.093
1747853782733013078,-0.091
1747853782740700339,-0.088
1747853782748387600,-0.083
1747853782756074861,-0.083
1747853782763762122,-0.083
1747853782771449383,-0.081
1747853782779136644,-0.07100000000000001
1747853782786823905,-0.051000000000000004
1747853782794511166,-0.034
1747853782802198427,-0.032
1747853782809885708,-0.034,77,889
1747853782817572272,-0.034
1747853782825258836,-0.049
1747853782832945400,-0.083
1747853782840631964,-0.1
1747853782848318528,-0.088
1747853782856005092,-0.081
1747853782863691656,-0.081
1747853782871378220,-0.078
1747853782879064784,-0.076
1747853782886751348,-0.076
1747853782894437912,-0.076
1747853782902124476,-0.088
1747853782909811040,-0.132
1747853782917497604,-0.189
1747853782925184168,-0.08600000000000001
1747853782932870732,0.381
1747853782940557296,1.1420000000000001
1747853782948243860,1.846
1747853782955930424,1.71
1747853782963616988,0.34700000000000003
1747853782971303552,-0.667
1747853782978990116,-0.327
1747853782986676680,-0.009000000000000001
1747853782994363244,-0.224
1747853783002049808,-0.221
1747853783009736372,-0.10300000000000001
1747853783017422936,-0.147
1747853783025109500,-0.155
1747853783032796064,-0.096
1747853783040482628,-0.083
1747853783048169192,-0.083
1747853783055855756,-0.051000000000000004
1747853783063542320,-0.029
1747853783071228884,-0.017
1747853783078915448,0.009000000000000001
1747853783086602012,0.036000000000000004
1747853783094288576,0.059000000000000004
1747853783101975140,0.08600000000000001
1747853783109661704,0.11800000000000001
1747853783117348268,0.152
1747853783125034832,0.189
1747853783132721396,0.231
1747853783140407960,0.27
1747853783148094524,0.302
1747853783155781088,0.329
1747853783163467652,0.34400000000000003
1747853783171154216,0.34400000000000003
1747853783178840780,0.339
1747853783186527344,0.322
1747853783194213908,0.29
1747853783201900472,0.23800000000000002
1747853783209587036,0.157
1747853783217273600,0.056
1747853783224960164,-0.046
1747853783232646728,-0.135
1747853783240333292,-0.20600000000000002
1747853783248019856,-0.256
1747853783255706420,-0.28300000000000003
1747853783263392984,-0.295
1747853783271079548,-0.295
1747853783278766112,-0.29
1747853783286452676,-0.28300000000000003
1747853783294139240,-0.27
1747853783301825804,-0.258
1747853783309512368,-0.248
1747853783317198932,-0.233
1747853783324885496,-0.221
1747853783332572060,-0.211
1747853783340258624,-0.20400000000000001
1747853783347945188,-0.196
1747853783355631752,-0.189
1747853783363318316,-0.184
1747853783371004911,-0.182
1747853783378692381,-0.177
1747853783386379851,-0.17400000000000002
1747853783394067321,-0.17200000000000001
1747853783401754791,-0.169
1747853783409442261,-0.167
1747853783417129731,-0.164
1747853783424817201,-0.162
1747853783432504671,-0.16
1747853783440192141,-0.16
1747853783447879611,-0.157
1747853783455567081,-0.155
1747853783463254551,-0.15
1747853783470942021,-0.147
1747853783478629491,-0.14200000000000002
1747853783486316961,-0.14
1747853783494004431,-0.137
1747853783501691901,-0.132
1747853783509379371,-0.128
1747853783517066841,-0.125
1747853783524754311,-0.12
1747853783532441781,-0.115
1747853783540129251,-0.11
1747853783547816721,-0.11
1747853783555504191,-0.108
1747853783563191661,-0.105
1747853783570879131,-0.1
1747853783578566601,-0.098
1747853783586254071,-0.093
1747853783593941541,-0.093
1747853783601629011,-0.091
1747853783609316481,-0.08600000000000001
1747853783617003951,-0.083
1747853783624691421,-0.08600000000000001
1747853783632378891,-0.083
1747853783640066361,-0.076
1747853783647753831,-0.061
1747853783655441301,-0.039
1747853783663128771,-0.029
1747853783670816241,-0.034
1747853783678503711,-0.036000000000000004
1747853783686191181,-0.041
1747853783693878651,-0.07100000000000001
1747853783701566121,-0.098
1747853783709253591,-0.093
1747853783716941061,-0.081
1747853783724628531,-0.081
1747853783732316001,-0.081
1747853783740003471,-0.076
1747853783747690941,-0.073
1747853783755378411,-0.07100000000000001
1747853783763065881,-0.078
1747853783770753351,-0.11
1747853783778440821,-0.17200000000000001
1747853783786128291,-0.157
1747853783793815761,0.162
1747853783801503231,0.839
1747853783809190701,1.629
1747853783816878171,1.92
1747853783824565641,0.935
1747853783832253111,-0.455
1747853783839940581,-0.541
1747853783847628051,-0.041
1747853783855315521,-0.135
1747853783863002991,-0.256
1747853783870690461,-0.128
1747853783878377931,-0.12
1747853783886065401,-0.164
1747853783893752871,-0.113
1747853783901440341,-0.083
1747853783909127811,-0.088
1747853783916815281,-0.064
1747853783924502751,-0.036000000000000004
1747853783932190244,-0.022,75,891
1747853783939877017,0.0,,865
1747853783947563790,0.027
1747853783955250563,0.049
1747853783962937336,0.076
1747853783970624109,0.11
1747853783978310882,0.14200000000000002
1747853783985997655,0.177
1747853783993684428,0.216
1747853784001371201,0.256
1747853784009057974,0.292
1747853784016744747,0.324
1747853784024431520,0.34400000000000003
1747853784032118293,0.34900000000000003
1747853784039805066,0.34400000000000003
1747853784047491839,0.329
1747853784055178612,0.305
1747853784062865385,0.265
1747853784070552158,0.196
1747853784078238931,0.10300000000000001
1747853784085925704,0.002
1747853784093612477,-0.091
1747853784101299250,-0.17200000000000001
1747853784108986023,-0.231
1747853784116672796,-0.265
1747853784124359569,-0.28500000000000003
1747853784132046342,-0.29
1747853784139733115,-0.28800000000000003
1747853784147419888,-0.28
1747853784155106661,-0.27
1747853784162793434,-0.256
1747853784170480207,-0.243
1747853784178166980,-0.233
1747853784185853753,-0.221
1747853784193540526,-0.211
1747853784201227299,-0.201
1747853784208914072,-0.196
1747853784216600845,-0.189
1747853784224287618,-0.182
1747853784231974391,-0.179
1747853784239661164,-0.17400000000000002
1747853784247347937,-0.17200000000000001
1747853784255034710,-0.169
1747853784262721483,-0.167
1747853784270408256,-0.164
1747853784278095029,-0.162
1747853784285781802,-0.162
1747853784293468575,-0.16
1747853784301155348,-0.157
1747853784308842121,-0.155
1747853784316528894,-0.152
1747853784324215667,-0.15
1747853784331902440,-0.147
1747853784339589213,-0.145
1747853784347275986,-0.14
1747853784354962759,-0.137
1747853784362649532,-0.135
1747853784370336305,-0.13
1747853784378023078,-0.125
1747853784385709851,-0.12
1747853784393396624,-0.11800000000000001
1747853784401083397,-0.115
1747853784408770170,-0.113
1747853784416456943,-0.11
1747853784424143716,-0.105
1747853784431830489,-0.10300000000000001
1747853784439517262,-0.1
1747853784447204035,-0.098
1747853784454890808,-0.096
1747853784462577581,-0.093
1747853784470264354,-0.091
1747853784477951127,-0.088
1747853784485637900,-0.08600000000000001
1747853784493324709,-0.08600000000000001
1747853784501011412,-0.08600000000000001
1747853784508698115,-0.083
1747853784516384818,-0.073
1747853784524071521,-0.056
1747853784531758224,-0.036000000000000004
1747853784539444927,-0.036000000000000004
1747853784547131630,-0.041
1747853784554818333,-0.039
1747853784562505036,-0.054
1747853784570191739,-0.088
1747853784577878442,-0.105
1747853784585565145,-0.093
1747853784593251848,-0.088
1747853784600938551,-0.091
1747853784608625254,-0.088
1747853784616311957,-0.083
1747853784623998660,-0.083
1747853784631685363,-0.083
1747853784639372066,-0.098
1747853784647058769,-0.14200000000000002
1747853784654745472,-0.196
1747853784662432175,-0.096
1747853784670118878,0.366
1747853784677805581,1.12
1747853784685492284,1.829
1747853784693178987,1.713
1747853784700865690,0.366
1747853784708552393,-0.672
1747853784716239096,-0.34900000000000003
1747853784723925799,-0.022
1747853784731612502,-0.231
1747853784739299205,-0.233
1747853784746985908,-0.113
1747853784754672611,-0.157
1747853784762359314,-0.167
1747853784770046017,-0.108
1747853784777732720,-0.096
1747853784785419423,-0.096
1747853784793106126,-0.064
1747853784800792829,-0.041
1747853784808479532,-0.027
1747853784816166235,-0.004
1747853784823852938,0.022
1747853784831539641,0.046
1747853784839226344,0.073
1747853784846913047,0.105
1747853784854599750,0.137
1747853784862286453,0.17400000000000002
1747853784869973156,0.214
1747853784877659859,0.251
1747853784885346562,0.28800000000000003
1747853784893033265,0.312
1747853784900719968,0.327
1747853784908406671,0.332
1747853784916093374,0.324
1747853784923780077,0.305
1747853784931466780,0.278
1747853784939153483,0.231
1747853784946840186,0.155
1747853784954526889,0.059000000000000004
1747853784962213592,-0.041
1747853784969900295,-0.132
1747853784977586998,-0.20400000000000001
1747853784985273701,-0.256
1747853784992960404,-0.28500000000000003
1747853785000647107,-0.3
1747853785008333810,-0.302
1747853785016020513,-0.297
1747853785023707216,-0.28800000000000003
1747853785031393919,-0.278
1747853785039080622,-0.265
1747853785046767325,-0.253
1747853785054454088,-0.241,75,861
1747853785062141209,-0.228
1747853785069828330,-0.216
1747853785077515451,-0.209
1747853785085202572,-0.201
1747853785092889693,-0.196
1747853785100576814,-0.192
1747853785108263935,-0.187
1747853785115951056,-0.182
1747853785123638177,-0.179
1747853785131325298,-0.177
1747853785139012419,-0.17400000000000002
1747853785146699540,-0.17400000000000002
1747853785154386661,-0.17200000000000001
1747853785162073782,-0.169
1747853785169760903,-0.167
1747853785177448024,-0.164
1747853785185135145,-0.162
1747853785192822266,-0.162
1747853785200509387,-0.16
1747853785208196508,-0.157
1747853785215883629,-0.152
1747853785223570750,-0.15
1747853785231257871,-0.147
1747853785238944992,-0.14200000000000002
1747853785246632113,-0.137
1747853785254319234,-0.135
1747853785262006355,-0.13
1747853785269693476,-0.125
1747853785277380597,-0.123
1747853785285067718,-0.12
1747853785292754839,-0.115
1747853785300441960,-0.11
1747853785308129081,-0.11
1747853785315816202,-0.105
1747853785323503323,-0.1
1747853785331190444,-0.098
1747853785338877565,-0.096
1747853785346564686,-0.093
1747853785354251807,-0.091
1747853785361938928,-0.091
1747853785369626049,-0.091
1747853785377313170,-0.08600000000000001
1747853785385000291,-0.068
1747853785392687412,-0.044
1747853785400374533,-0.029
1747853785408061654,-0.036000000000000004
1747853785415748775,-0.044
1747853785423435896,-0.044
1747853785431123017,-0.066
1747853785438810138,-0.098
1747853785446497259,-0.098
1747853785454184380,-0.08600000000000001
1747853785461871501,-0.083
1747853785469558622,-0.08600000000000001
1747853785477245743,-0.083
1747853785484932864,-0.081
1747853785492619985,-0.078
1747853785500307106,-0.083
1747853785507994227,-0.108
1747853785515681348,-0.167
1747853785523368469,-0.182
1747853785531055590,0.068
1747853785538742711,0.6890000000000001
1747853785546429832,1.484
1747853785554116953,1.934
1747853785561804074,1.189
1747853785569491195,-0.275
1747853785577178316,-0.622
1747853785584865437,-0.10300000000000001
1747853785592552558,-0.098
1747853785600239679,-0.268
1747853785607926800,-0.157
1747853785615613985,-0.115,74,864
1747853785623301037,-0.167
1747853785630988089,-0.13
1747853785638675141,-0.088
1747853785646362193,-0.093
1747853785654049245,-0.076
1747853785661736297,-0.044
1747853785669423349,-0.029
1747853785677110401,-0.012
1747853785684797453,0.017
1747853785692484505,0.041
1747853785700171557,0.066
1747853785707858609,0.096
1747853785715545661,0.128
1747853785723232713,0.162
1747853785730919765,0.199
1747853785738606817,0.241
1747853785746293869,0.278
1747853785753980921,0.307
1747853785761667973,0.329
1747853785769355025,0.339
1747853785777042077,0.337
1747853785784729129,0.327
1747853785792416181,0.305
1747853785800103233,0.27
1747853785807790285,0.209
1747853785815477337,0.123
1747853785823164389,0.022
1747853785830851441,-0.073
1747853785838538493,-0.157
1747853785846225545,-0.221
1747853785853912597,-0.263
1747853785861599649,-0.28500000000000003
1747853785869286701,-0.292
1747853785876973753,-0.292
1747853785884660805,-0.28500000000000003
1747853785892347857,-0.275
1747853785900034909,-0.263
1747853785907721961,-0.251
1747853785915409013,-0.23800000000000002
1747853785923096065,-0.226
1747853785930783117,-0.216
1747853785938470169,-0.20400000000000001
1747853785946157221,-0.196
1747853785953844273,-0.192
1747853785961531325,-0.184
1747853785969218377,-0.177
1747853785976905429,-0.17400000000000002
1747853785984592481,-0.17200000000000001
1747853785992279533,-0.167
1747853785999966585,-0.164
1747853786007653637,-0.162
1747853786015340689,-0.157
1747853786023027741,-0.155
1747853786030714793,-0.155
1747853786038401845,-0.152
1747853786046088897,-0.15
1747853786053775949,-0.147
1747853786061463001,-0.14200000000000002
1747853786069150053,-0.14
1747853786076837105,-0.135
1747853786084524157,-0.13
1747853786092211209,-0.128
1747853786099898261,-0.123
1747853786107585313,-0.11800000000000001
1747853786115272365,-0.113
1747853786122959417,-0.108
1747853786130646469,-0.10300000000000001
1747853786138333521,-0.1
1747853786146020573,-0.096
1747853786153707625,-0.093
1747853786161394677,-0.088
1747853786169081729,-0.083
1747853786176768799,-0.081
1747853786184455572,-0.078
1747853786192142345,-0.076
1747853786199829118,-0.073
1747853786207515891,-0.07100000000000001
1747853786215202664,-0.07100000000000001
1747853786222889437,-0.07100000000000001
1747853786230576210,-0.068
1747853786238262983,-0.054
1747853786245949756,-0.027
1747853786253636529,-0.009000000000000001
1747853786261323302,-0.017
1747853786269010075,-0.024
1747853786276696848,-0.022
1747853786284383621,-0.041
1747853786292070394,-0.073
1747853786299757167,-0.078
1747853786307443940,-0.066
1747853786315130713,-0.064
1747853786322817486,-0.064
1747853786330504259,-0.059000000000000004
1747853786338191032,-0.056
1747853786345877805,-0.056
1747853786353564578,-0.059000000000000004
1747853786361251351,-0.076
1747853786368938124,-0.13
1747853786376624897,-0.167
1747853786384311670,0.009000000000000001
1747853786391998443,0.556
1747853786399685216,1.339
1747853786407371989,1.93
1747853786415058762,1.472
1747853786422745535,0.007
1747853786430432308,-0.654
1747853786438119081,-0.177
1747853786445805854,-0.032
1747853786453492627,-0.233
1747853786461179400,-0.164
1747853786468866173,-0.08600000000000001
1747853786476552946,-0.14200000000000002
1747853786484239719,-0.123
1747853786491926492,-0.07100000000000001
1747853786499613265,-0.07100000000000001
1747853786507300038,-0.061
1747853786514986811,-0.032
1747853786522673584,-0.014
1747853786530360357,0.002
1747853786538047130,0.032
1747853786545733903,0.056
1747853786553420676,0.081
1747853786561107449,0.108
1747853786568794222,0.14200000000000002
1747853786576480995,0.177
1747853786584167768,0.214
1747853786591854541,0.251
1747853786599541314,0.29
1747853786607228087,0.327
1747853786614914860,0.352
1747853786622601633,0.366
1747853786630288406,0.366
1747853786637975179,0.356
1747853786645661952,0.337
1747853786653348725,0.305
1747853786661035498,0.248
1747853786668722271,0.169
1747853786676409044,0.068
1747853786684095817,-0.034
1747853786691782590,-0.12
1747853786699469363,-0.189
1747853786707156136,-0.23600000000000002
1747853786714842909,-0.26
1747853786722529682,-0.27
1747853786730216455,-0.273
1747853786737903261,-0.268,74,874
1747853786745590382,-0.26
1747853786753277503,-0.248
1747853786760964624,-0.23600000000000002
1747853786768651745,-0.224
1747853786776338866,-0.214
1747853786784025987,-0.201
1747853786791713108,-0.192
1747853786799400229,-0.187
1747853786807087350,-0.179
1747853786814774471,-0.17400000000000002
1747853786822461592,-0.169
1747853786830148713,-0.164
1747853786837835834,-0.162
1747853786845522955,-0.162
1747853786853210076,-0.16
1747853786860897197,-0.157
1747853786868584318,-0.155
1747853786876271439,-0.155
1747853786883958560,-0.152
1747853786891645681,-0.15
1747853786899332802,-0.15
1747853786907019923,-0.147
1747853786914707044,-0.14200000000000002
1747853786922394165,-0.14
1747853786930081286,-0.135
1747853786937768407,-0.132
1747853786945455528,-0.13
1747853786953142649,-0.128
1747853786960829770,-0.125
1747853786968516891,-0.123
1747853786976204012,-0.11800000000000001
1747853786983891133,-0.113
1747853786991578254,-0.11
1747853786999265375,-0.108
1747853787006952496,-0.10300000000000001
1747853787014639617,-0.098
1747853787022326738,-0.093
1747853787030013859,-0.088
1747853787037700980,-0.08600000000000001
1747853787045388101,-0.088
1747853787053075222,-0.08600000000000001
1747853787060762343,-0.078
1747853787068449464,-0.064
1747853787076136585,-0.039
1747853787083823706,-0.022
1747853787091510827,-0.027
1747853787099197948,-0.032
1747853787106885069,-0.034
1747853787114572190,-0.061
1747853787122259311,-0.088
1747853787129946432,-0.08600000000000001
1747853787137633553,-0.07100000000000001
1747853787145320674,-0.07100000000000001
1747853787153007795,-0.068
1747853787160694916,-0.066
1747853787168382037,-0.064
1747853787176069158,-0.059000000000000004
1747853787183756279,-0.064
1747853787191443400,-0.098
1747853787199130521,-0.157
1747853787206817642,-0.15
1747853787214504763,0.15
1747853787222191884,0.812
1747853787229879005,1.592
1747853787237566126,1.92
1747853787245253247,1.006
1747853787252940368,-0.398
1747853787260627489,-0.553
1747853787268314610,-0.049
1747853787276001731,-0.115
1747853787283688852,-0.23800000000000002
1747853787291375973,-0.11
1747853787299063162,-0.098
1747853787306749865,-0.145
1747853787314436568,-0.096
1747853787322123271,-0.064
1747853787329809974,-0.066
1747853787337496677,-0.046
1747853787345183380,-0.017
1747853787352870083,-0.004
1747853787360556786,0.014
1747853787368243489,0.041
1747853787375930192,0.066
1747853787383616895,0.091
1747853787391303598,0.123
1747853787398990301,0.155
1747853787406677004,0.192
1747853787414363707,0.231
1747853787422050410,0.273
1747853787429737113,0.31
1747853787437423816,0.342
1747853787445110519,0.364
1747853787452797222,0.374
1747853787460483925,0.371
1747853787468170628,0.359
1747853787475857331,0.334
1747853787483544034,0.292
1747853787491230737,0.224
1747853787498917440,0.125
1747853787506604143,0.019
1747853787514290846,-0.078
1747853787521977549,-0.162
1747853787529664252,-0.221
1747853787537350955,-0.26
1747853787545037658,-0.28
1747853787552724361,-0.28800000000000003
1747853787560411064,-0.28500000000000003
1747853787568097767,-0.275
1747853787575784470,-0.265
1747853787583471173,-0.253
1747853787591157876,-0.241
1747853787598844579,-0.226
1747853787606531282,-0.214
1747853787614217985,-0.20400000000000001
1747853787621904688,-0.196
1747853787629591391,-0.187
1747853787637278094,-0.182
1747853787644964797,-0.177
1747853787652651500,-0.17200000000000001
1747853787660338203,-0.167
1747853787668024906,-0.164
1747853787675711609,-0.162
1747853787683398312,-0.16
1747853787691085015,-0.157
1747853787698771718,-0.157
1747853787706458421,-0.157
1747853787714145124,-0.155
1747853787721831827,-0.155
1747853787729518530,-0.155
1747853787737205233,-0.152
1747853787744891936,-0.15
1747853787752578639,-0.145
1747853787760265342,-0.14200000000000002
1747853787767952045,-0.14
1747853787775638748,-0.135
1747853787783325451,-0.13
1747853787791012154,-0.128
1747853787798698857,-0.123
1747853787806385560,-0.12
1747853787814072263,-0.115
1747853787821758966,-0.113
1747853787829445669,-0.11
1747853787837132372,-0.105
1747853787844819075,-0.1
1747853787852505778,-0.098
1747853787860192541,-0.1,73,865
1747853787867879662,-0.098
1747853787875566783,-0.088
1747853787883253904,-0.068
1747853787890941025,-0.046
1747853787898628146,-0.036000000000000004
1747853787906315267,-0.044
1747853787914002388,-0.044
1747853787921689509,-0.049
1747853787929376630,-0.083
1747853787937063751,-0.108
1747853787944750872,-0.098
1747853787952437993,-0.088
1747853787960125114,-0.088
1747853787967812235,-0.08600000000000001
1747853787975499356,-0.081
1747853787983186477,-0.081
1747853787990873598,-0.081
1747853787998560719,-0.088
1747853788006247840,-0.123
1747853788013934961,-0.184
1747853788021622082,-0.135
1747853788029309203,0.248
1747853788036996324,0.9550000000000001
1747853788044683445,1.713
1747853788052370566,1.841
1747853788060057687,0.681
1747853788067744808,-0.578
1747853788075431929,-0.462
1747853788083119050,-0.022
1747853788090806171,-0.179
1747853788098493292,-0.246
1747853788106180413,-0.115
1747853788113867534,-0.135
1747853788121554655,-0.164
1747853788129241776,-0.108
1747853788136928897,-0.08600000000000001
1747853788144616018,-0.091
1747853788152303139,-0.061
1747853788159990260,-0.034
1747853788167677381,-0.022
1747853788175364502,0.0
1747853788183051623,0.027
1747853788190738744,0.049
1747853788198425865,0.076
1747853788206112986,0.108
1747853788213800107,0.14
1747853788221487228,0.177
1747853788229174349,0.219
1747853788236861470,0.256
1747853788244548591,0.29
1747853788252235712,0.32
1747853788259922833,0.337
1747853788267609954,0.34400000000000003
1747853788275297075,0.339
1747853788282984196,0.324
1747853788290671317,0.297
1747853788298358438,0.253
1747853788306045559,0.182
1747853788313732680,0.083
1747853788321419801,-0.019
1747853788329106922,-0.113
1747853788336794043,-0.189
1747853788344481164,-0.243
1747853788352168285,-0.275
1747853788359855406,-0.292
1747853788367542527,-0.297
1747853788375229648,-0.292
1747853788382916769,-0.28500000000000003
1747853788390603890,-0.275
1747853788398291011,-0.263
1747853788405978132,-0.248
1747853788413665253,-0.23600000000000002
1747853788421352438,-0.226
1747853788429039420,-0.216
1747853788436726402,-0.20600000000000002
1747853788444413384,-0.199
1747853788452100366,-0.194
1747853788459787348,-0.189
1747853788467474330,-0.187
1747853788475161312,-0.184
1747853788482848294,-0.179
1747853788490535276,-0.177
1747853788498222258,-0.17200000000000001
1747853788505909240,-0.17200000000000001
1747853788513596222,-0.17200000000000001
1747853788521283204,-0.169
1747853788528970186,-0.164
1747853788536657168,-0.162
1747853788544344150,-0.16
1747853788552031132,-0.16
1747853788559718114,-0.157
1747853788567405096,-0.152
1747853788575092078,-0.147
1747853788582779060,-0.145
1747853788590466042,-0.14
1747853788598153024,-0.137
1747853788605840006,-0.132
1747853788613526988,-0.13
1747853788621213970,-0.125
1747853788628900952,-0.12
1747853788636587934,-0.115
1747853788644274916,-0.113
1747853788651961898,-0.11
1747853788659648880,-0.108
1747853788667335862,-0.10300000000000001
1747853788675022844,-0.098
1747853788682709826,-0.098
1747853788690396808,-0.098
1747853788698083790,-0.096
1747853788705770772,-0.091
1747853788713457754,-0.073
1747853788721144736,-0.051000000000000004
1747853788728831718,-0.039
1747853788736518700,-0.044
1747853788744205682,-0.046
1747853788751892664,-0.049
1747853788759579646,-0.076
1747853788767266628,-0.105
1747853788774953610,-0.10300000000000001
1747853788782640592,-0.091
1747853788790327574,-0.091
1747853788798014556,-0.088
1747853788805701538,-0.083
1747853788813388520,-0.083
1747853788821075502,-0.081
1747853788828762484,-0.088
1747853788836449466,-0.11800000000000001
1747853788844136448,-0.179
1747853788851823430,-0.17200000000000001
1747853788859510412,0.135
1747853788867197394,0.797
1747853788874884376,1.585
1747853788882571358,1.917
1747853788890258340,0.989
1747853788897945322,-0.423
1747853788905632304,-0.5660000000000001
1747853788913319286,-0.059000000000000004
1747853788921006268,-0.132
1747853788928693250,-0.265
1747853788936380232,-0.14
1747853788944067214,-0.123
1747853788951754196,-0.169
1747853788959441178,-0.12
1747853788967128160,-0.08600000000000001
1747853788974815142,-0.093
1747853788982502165,-0.07100000000000001,72,854
1747853788990189008,-0.041,,827
1747853788997875851,-0.027
1747853789005562694,-0.007
1747853789013249537,0.019
1747853789020936380,0.041
1747853789028623223,0.068
1747853789036310066,0.098
1747853789043996909,0.13
1747853789051683752,0.164
1747853789059370595,0.20400000000000001
1747853789067057438,0.243
1747853789074744281,0.278
1747853789082431124,0.31
1747853789090117967,0.329
1747853789097804810,0.337
1747853789105491653,0.334
1747853789113178496,0.322
1747853789120865339,0.3
1747853789128552182,0.263
1747853789136239025,0.201
1747853789143925868,0.113
1747853789151612711,0.012
1747853789159299554,-0.081
1747853789166986397,-0.164
1747853789174673240,-0.224
1747853789182360083,-0.263
1747853789190046926,-0.28300000000000003
1747853789197733769,-0.29
1747853789205420612,-0.28800000000000003
1747853789213107455,-0.28300000000000003
1747853789220794298,-0.27
1747853789228481141,-0.258
1747853789236167984,-0.248
1747853789243854827,-0.23800000000000002
1747853789251541670,-0.226
1747853789259228513,-0.216
1747853789266915356,-0.20600000000000002
1747853789274602199,-0.199
1747853789282289042,-0.194
1747853789289975885,-0.189
1747853789297662728,-0.187
1747853789305349571,-0.182
1747853789313036414,-0.177
1747853789320723257,-0.17400000000000002
1747853789328410100,-0.17400000000000002
1747853789336096943,-0.17200000000000001
1747853789343783786,-0.169
1747853789351470629,-0.167
1747853789359157472,-0.167
1747853789366844315,-0.162
1747853789374531158,-0.162
1747853789382218001,-0.16
1747853789389904844,-0.157
1747853789397591687,-0.155
1747853789405278530,-0.15
1747853789412965373,-0.145
1747853789420652216,-0.14
1747853789428339059,-0.137
1747853789436025902,-0.135
1747853789443712745,-0.132
1747853789451399588,-0.128
1747853789459086431,-0.123
1747853789466773274,-0.123
1747853789474460117,-0.11800000000000001
1747853789482146960,-0.113
1747853789489833803,-0.11
1747853789497520646,-0.108
1747853789505207489,-0.10300000000000001
1747853789512894332,-0.1
1747853789520581175,-0.098
1747853789528268018,-0.096
1747853789535954861,-0.098
1747853789543641714,-0.096
1747853789551328835,-0.081
1747853789559015956,-0.061
1747853789566703077,-0.046
1747853789574390198,-0.044
1747853789582077319,-0.049
1747853789589764440,-0.051000000000000004
1747853789597451561,-0.068
1747853789605138682,-0.1
1747853789612825803,-0.11
1747853789620512924,-0.1
1747853789628200045,-0.093
1747853789635887166,-0.093
1747853789643574287,-0.093
1747853789651261408,-0.088
1747853789658948529,-0.08600000000000001
1747853789666635650,-0.088
1747853789674322771,-0.108
1747853789682009892,-0.157
1747853789689697013,-0.196
1747853789697384134,-0.044
1747853789705071255,0.47700000000000004
1747853789712758376,1.25
1747853789720445497,1.8800000000000001
1747853789728132618,1.528
1747853789735819739,0.088
1747853789743506860,-0.6890000000000001
1747853789751193981,-0.248
1747853789758881102,-0.046
1747853789766568223,-0.258
1747853789774255344,-0.209
1747853789781942465,-0.115
1747853789789629586,-0.169
1747853789797316707,-0.16
1747853789805003828,-0.10300000000000001
1747853789812690949,-0.1
1747853789820378070,-0.093
1747853789828065191,-0.059000000000000004
1747853789835752312,-0.041
1747853789843439433,-0.027
1747853789851126554,-0.002
1747853789858813675,0.024
1747853789866500796,0.046
1747853789874187917,0.073
1747853789881875038,0.108
1747853789889562159,0.14
1747853789897249280,0.17400000000000002
1747853789904936401,0.214
1747853789912623522,0.251
1747853789920310643,0.28500000000000003
1747853789927997764,0.31
1747853789935684885,0.322
1747853789943372006,0.322
1747853789951059127,0.315
1747853789958746248,0.295
1747853789966433369,0.268
1747853789974120490,0.219
1747853789981807611,0.14200000000000002
1747853789989494732,0.049
1747853789997181853,-0.049
1747853790004868974,-0.137
1747853790012556095,-0.20400000000000001
1747853790020243216,-0.251
1747853790027930337,-0.28
1747853790035617458,-0.292
1747853790043304579,-0.295
1747853790050991700,-0.29
1747853790058678821,-0.28
1747853790066365942,-0.268
1747853790074053063,-0.256
1747853790081740184,-0.243
1747853790089427305,-0.233
1747853790097114426,-0.224
1747853790104801611,-0.214,72,813
1747853790112488384,-0.209
1747853790120175157,-0.201
1747853790127861930,-0.196
1747853790135548703,-0.192
1747853790143235476,-0.189
1747853790150922249,-0.187
1747853790158609022,-0.182
1747853790166295795,-0.182
1747853790173982568,-0.179
1747853790181669341,-0.177
1747853790189356114,-0.17400000000000002
1747853790197042887,-0.17200000000000001
1747853790204729660,-0.17200000000000001
1747853790212416433,-0.169
1747853790220103206,-0.167
1747853790227789979,-0.164
1747853790235476752,-0.16
1747853790243163525,-0.157
1747853790250850298,-0.155
1747853790258537071,-0.15
1747853790266223844,-0.147
1747853790273910617,-0.14200000000000002
1747853790281597390,-0.137
1747853790289284163,-0.135
1747853790296970936,-0.13
1747853790304657709,-0.128
1747853790312344482,-0.123
1747853790320031255,-0.12
1747853790327718028,-0.11800000000000001
1747853790335404801,-0.113
1747853790343091574,-0.11
1747853790350778347,-0.108
1747853790358465120,-0.10300000000000001
1747853790366151893,-0.1
1747853790373838666,-0.098
1747853790381525439,-0.098
1747853790389212212,-0.098
1747853790396898985,-0.093
1747853790404585758,-0.081
1747853790412272531,-0.059000000000000004
1747853790419959304,-0.044
1747853790427646077,-0.044
1747853790435332850,-0.046
1747853790443019623,-0.049
1747853790450706396,-0.07100000000000001
1747853790458393169,-0.1
1747853790466079942,-0.108
1747853790473766715,-0.096
1747853790481453488,-0.091
1747853790489140261,-0.091
1747853790496827034,-0.088
1747853790504513807,-0.083
1747853790512200580,-0.083
1747853790519887353,-0.088
1747853790527574126,-0.105
1747853790535260899,-0.157
1747853790542947672,-0.192
1747853790550634445,-0.002
1747853790558321218,0.558
1747853790566007991,1.344
1747853790573694764,1.9120000000000001
1747853790581381537,1.408
1747853790589068310,-0.061
1747853790596755083,-0.672
1747853790604441856,-0.184
1747853790612128629,-0.064
1747853790619815402,-0.265
1747853790627502175,-0.187
1747853790635188948,-0.115
1747853790642875721,-0.169
1747853790650562494,-0.15
1747853790658249267,-0.098
1747853790665936081,-0.1,72,832
1747853790673623133,-0.088
1747853790681310185,-0.056
1747853790688997237,-0.039
1747853790696684289,-0.022
1747853790704371341,0.004
1747853790712058393,0.029
1747853790719745445,0.054
1747853790727432497,0.081
1747853790735119549,0.113
