time,ecg,hr,rr,marker
1746648205187309669,-0.18
1746648205194996790,-0.17
1746648205202683911,-0.165
1746648205210371032,-0.167
1746648205218058153,-0.17200000000000001
1746648205225745274,-0.182
1746648205233432395,-0.182
1746648205241119516,-0.17200000000000001
1746648205248806637,-0.18
1746648205256493758,-0.189
1746648205264180879,-0.187
1746648205271868000,-0.17500000000000002
1746648205279555121,-0.177
1746648205287242242,-0.189
1746648205294929363,-0.184
1746648205302616484,-0.184
1746648205310303605,-0.197
1746648205317990726,-0.197
1746648205325677847,-0.182
1746648205333364968,-0.17200000000000001
1746648205341052089,-0.157
1746648205348739210,-0.14300000000000002
1746648205356426331,-0.138
1746648205364113452,-0.135
1746648205371800573,-0.135
1746648205379487694,-0.145
1746648205387174815,-0.15
1746648205394861936,-0.147
1746648205402549057,-0.145
1746648205410236178,-0.147
1746648205417923299,-0.14
1746648205425610420,-0.13
1746648205433297541,-0.15
1746648205440984662,-0.18
1746648205448671783,-0.088
1746648205456358904,0.266
1746648205464046025,0.65
1746648205471733146,0.53
1746648205479420267,-0.076
1746648205487107388,-0.438
1746648205494794509,-0.325
1746648205502481630,-0.221
1746648205510168751,-0.241
1746648205517855872,-0.165
1746648205525542993,-0.098
1746648205533230114,-0.12
1746648205540917235,-0.113
1746648205548604356,-0.08600000000000001
1746648205556291477,-0.088
1746648205563978598,-0.088
1746648205571665719,-0.083
1746648205579352840,-0.073
1746648205587039961,-0.061
1746648205594727082,-0.07100000000000001
1746648205602414203,-0.081
1746648205610101324,-0.056
1746648205617788445,-0.032
1746648205625475566,-0.027
1746648205633162687,-0.024
1746648205640849808,-0.014
1746648205648536929,-0.004
1746648205656224050,0.0
1746648205663911171,0.012
1746648205671598292,0.029
1746648205679285413,0.049
1746648205686972534,0.054
1746648205694659655,0.056
1746648205702346776,0.07100000000000001
1746648205710033897,0.083
1746648205717721018,0.078
1746648205725408139,0.073
1746648205733095260,0.073
1746648205740782381,0.073
1746648205748469566,0.049,85,757
1746648205756156966,0.009000000000000001,,738
1746648205763844366,0.007
1746648205771531766,-0.009000000000000001
1746648205779219166,-0.093
1746648205786906566,-0.14
1746648205794593966,-0.125
1746648205802281366,-0.133
1746648205809968766,-0.152
1746648205817656166,-0.14
1746648205825343566,-0.13
1746648205833030966,-0.133
1746648205840718366,-0.123
1746648205848405766,-0.115
1746648205856093166,-0.128
1746648205863780566,-0.13
1746648205871467966,-0.12
1746648205879155366,-0.115
1746648205886842766,-0.115
1746648205894530166,-0.115
1746648205902217566,-0.113
1746648205909904966,-0.11800000000000001
1746648205917592366,-0.133
1746648205925279766,-0.133
1746648205932967166,-0.128
1746648205940654566,-0.128
1746648205948341966,-0.123
1746648205956029366,-0.11
1746648205963716766,-0.113
1746648205971404166,-0.125
1746648205979091566,-0.125
1746648205986778966,-0.113
1746648205994466366,-0.11
1746648206002153766,-0.123
1746648206009841166,-0.125
1746648206017528566,-0.113
1746648206025215966,-0.113
1746648206032903366,-0.113
1746648206040590766,-0.098
1746648206048278166,-0.076
1746648206055965566,-0.064
1746648206063652966,-0.07100000000000001
1746648206071340366,-0.076
1746648206079027766,-0.081
1746648206086715166,-0.08600000000000001
1746648206094402566,-0.083
1746648206102089966,-0.088
1746648206109777366,-0.096
1746648206117464766,-0.091
1746648206125152166,-0.088
1746648206132839566,-0.10300000000000001
1746648206140526966,-0.125
1746648206148214366,-0.083
1746648206155901766,0.197
1746648206163589166,0.636
1746648206171276566,0.641
1746648206178963966,-0.014
1746648206186651366,-0.535
1746648206194338766,-0.41600000000000004
1746648206202026166,-0.219
1746648206209713566,-0.241
1746648206217400966,-0.177
1746648206225088366,-0.059000000000000004
1746648206232775766,-0.059000000000000004
1746648206240463166,-0.066
1746648206248150566,-0.039
1746648206255837966,-0.046
1746648206263525366,-0.061
1746648206271212766,-0.041
1746648206278900166,-0.024
1746648206286587566,-0.014
1746648206294274966,-0.007
1746648206301962366,-0.009000000000000001
1746648206309649811,-0.014,85,749
1746648206317336654,-0.007
1746648206325023497,0.007
1746648206332710340,0.027
1746648206340397183,0.044
1746648206348084026,0.049
1746648206355770869,0.044
1746648206363457712,0.041
1746648206371144555,0.064
1746648206378831398,0.093
1746648206386518241,0.10300000000000001
1746648206394205084,0.098
1746648206401891927,0.113
1746648206409578770,0.133
1746648206417265613,0.12
1746648206424952456,0.096
1746648206432639299,0.093
1746648206440326142,0.066
1746648206448012985,0.009000000000000001
1746648206455699828,-0.036000000000000004
1746648206463386671,-0.07100000000000001
1746648206471073514,-0.098
1746648206478760357,-0.07100000000000001
1746648206486447200,0.101
1746648206494134043,0.33
1746648206501820886,0.374
1746648206509507729,0.229
1746648206517194572,0.17500000000000002
1746648206524881415,0.258
1746648206532568258,0.20700000000000002
1746648206540255101,0.049
1746648206547941944,0.032
1746648206555628787,0.088
1746648206563315630,0.078
1746648206571002473,0.051000000000000004
1746648206578689316,0.036000000000000004
1746648206586376159,0.014
1746648206594063002,-0.034
1746648206601749845,-0.11800000000000001
1746648206609436688,-0.17200000000000001
1746648206617123531,-0.162
1746648206624810374,-0.17
1746648206632497217,-0.212
1746648206640184060,-0.221
1746648206647870903,-0.20700000000000002
1746648206655557746,-0.212
1746648206663244589,-0.219
1746648206670931432,-0.212
1746648206678618275,-0.209
1746648206686305118,-0.221
1746648206693991961,-0.216
1746648206701678804,-0.199
1746648206709365647,-0.18
1746648206717052490,-0.167
1746648206724739333,-0.155
1746648206732426176,-0.152
1746648206740113019,-0.16
1746648206747799862,-0.16
1746648206755486705,-0.162
1746648206763173548,-0.165
1746648206770860391,-0.157
1746648206778547234,-0.165
1746648206786234077,-0.177
1746648206793920920,-0.18
1746648206801607763,-0.184
1746648206809294606,-0.202
1746648206816981449,-0.093
1746648206824668292,0.298
1746648206832355135,0.668
1746648206840041978,0.392
1746648206847728821,-0.35000000000000003
1746648206855415664,-0.631
1746648206863102507,-0.377
1746648206870789360,-0.261
1746648206878476481,-0.295
1746648206886163602,-0.192
1746648206893850723,-0.115
1746648206901537844,-0.145
1746648206909224965,-0.133
1746648206916912086,-0.088
1746648206924599207,-0.076
1746648206932286328,-0.091
1746648206939973449,-0.098
1746648206947660570,-0.088
1746648206955347691,-0.069
1746648206963034812,-0.054
1746648206970721933,-0.049
1746648206978409054,-0.064
1746648206986096175,-0.073
1746648206993783296,-0.061
1746648207001470417,-0.044
1746648207009157538,-0.041
1746648207016844659,-0.036000000000000004
1746648207024531780,-0.017
1746648207032218901,0.007
1746648207039906022,0.012
1746648207047593143,0.012
1746648207055280264,0.032
1746648207062967385,0.039
1746648207070654506,0.029
1746648207078341627,0.036000000000000004
1746648207086028748,0.054
1746648207093715869,0.054
1746648207101402990,0.039
1746648207109090111,-0.004
1746648207116777232,-0.064
1746648207124464353,-0.098
1746648207132151474,-0.11
1746648207139838595,-0.145
1746648207147525716,-0.182
1746648207155212837,-0.194
1746648207162899958,-0.187
1746648207170587079,-0.187
1746648207178274200,-0.189
1746648207185961321,-0.177
1746648207193648442,-0.167
1746648207201335563,-0.162
1746648207209022684,-0.155
1746648207216709805,-0.152
1746648207224396926,-0.145
1746648207232084047,-0.133
1746648207239771168,-0.125
1746648207247458289,-0.125
1746648207255145410,-0.128
1746648207262832531,-0.13
1746648207270519652,-0.11800000000000001
1746648207278206773,-0.108
1746648207285893894,-0.12
1746648207293581015,-0.133
1746648207301268136,-0.11800000000000001
1746648207308955257,-0.106
1746648207316642378,-0.125
1746648207324329499,-0.14
1746648207332016620,-0.128
1746648207339703741,-0.128
1746648207347390862,-0.145
1746648207355077983,-0.14
1746648207362765104,-0.13
1746648207370452225,-0.12
1746648207378139346,-0.101
1746648207385826467,-0.088
1746648207393513588,-0.083
1746648207401200709,-0.083
1746648207408887830,-0.098
1746648207416574951,-0.108
1746648207424262072,-0.106
1746648207431949257,-0.106,84,732
1746648207439636448,-0.113,,701
1746648207447323639,-0.113
1746648207455010830,-0.098
1746648207462698021,-0.096
1746648207470385212,-0.135
1746648207478072403,-0.155
1746648207485759594,0.054
1746648207493446785,0.53
1746648207501133976,0.784
1746648207508821167,0.357
1746648207516508358,-0.295
1746648207524195549,-0.40900000000000003
1746648207531882740,-0.202
1746648207539569931,-0.192
1746648207547257122,-0.209
1746648207554944313,-0.11800000000000001
1746648207562631504,-0.101
1746648207570318695,-0.13
1746648207578005886,-0.10300000000000001
1746648207585693077,-0.073
1746648207593380268,-0.073
1746648207601067459,-0.069
1746648207608754650,-0.064
1746648207616441841,-0.073
1746648207624129032,-0.07100000000000001
1746648207631816223,-0.051000000000000004
1746648207639503414,-0.039
1746648207647190605,-0.041
1746648207654877796,-0.041
1746648207662564987,-0.027
1746648207670252178,-0.014
1746648207677939369,-0.019
1746648207685626560,-0.024
1746648207693313751,-0.007
1746648207701000942,0.009000000000000001
1746648207708688133,0.007
1746648207716375324,0.019
1746648207724062515,0.041
1746648207731749706,0.041
1746648207739436897,0.032
1746648207747124088,0.044
1746648207754811279,0.056
1746648207762498470,0.046
1746648207770185661,0.029
1746648207777872852,0.014
1746648207785560043,-0.014
1746648207793247234,-0.054
1746648207800934425,-0.088
1746648207808621616,-0.108
1746648207816308807,-0.125
1746648207823995998,-0.133
1746648207831683189,-0.128
1746648207839370380,-0.125
1746648207847057571,-0.133
1746648207854744762,-0.128
1746648207862431953,-0.113
1746648207870119144,-0.10300000000000001
1746648207877806335,-0.108
1746648207885493526,-0.12
1746648207893180717,-0.11800000000000001
1746648207900867908,-0.106
1746648207908555099,-0.108
1746648207916242290,-0.11
1746648207923929481,-0.10300000000000001
1746648207931616672,-0.106
1746648207939303863,-0.12
1746648207946991054,-0.13
1746648207954678245,-0.123
1746648207962365436,-0.11
1746648207970052627,-0.11
1746648207977739818,-0.113
1746648207985427009,-0.11
1746648207993114245,-0.11
1746648208000801436,-0.123
1746648208008488627,-0.125
1746648208016175818,-0.11800000000000001
1746648208023863009,-0.11
1746648208031550200,-0.088
1746648208039237391,-0.064
1746648208046924582,-0.066
1746648208054611773,-0.081
1746648208062298964,-0.081
1746648208069986155,-0.083
1746648208077673346,-0.091
1746648208085360537,-0.093
1746648208093047728,-0.091
1746648208100734919,-0.083
1746648208108422110,-0.07100000000000001
1746648208116109301,-0.078
1746648208123796492,-0.11800000000000001
1746648208131483683,-0.145
1746648208139170874,-0.019
1746648208146858065,0.392
1746648208154545256,0.764
1746648208162232447,0.522
1746648208169919638,-0.14
1746648208177606829,-0.419
1746648208185294020,-0.249
1746648208192981211,-0.184
1746648208200668402,-0.221
1746648208208355593,-0.138
1746648208216042784,-0.078
1746648208223729975,-0.101
1746648208231417166,-0.093
1746648208239104357,-0.066
1746648208246791548,-0.054
1746648208254478739,-0.054
1746648208262165930,-0.054
1746648208269853121,-0.051000000000000004
1746648208277540312,-0.041
1746648208285227503,-0.036000000000000004
1746648208292914694,-0.032
1746648208300601885,-0.024
1746648208308289076,-0.017
1746648208315976267,-0.009000000000000001
1746648208323663458,-0.009000000000000001
1746648208331350649,-0.007
1746648208339037840,0.004
1746648208346725031,0.019
1746648208354412222,0.034
1746648208362099413,0.036000000000000004
1746648208369786604,0.041
1746648208377473795,0.059000000000000004
1746648208385160986,0.069
1746648208392848177,0.07100000000000001
1746648208400535368,0.073
1746648208408222559,0.076
1746648208415909750,0.07100000000000001
1746648208423596941,0.054
1746648208431284132,0.029
1746648208438971323,0.002
1746648208446658514,-0.027
1746648208454345705,-0.066
1746648208462032896,-0.098
1746648208469720087,-0.106
1746648208477407278,-0.101
1746648208485094469,-0.101
1746648208492781660,-0.101
1746648208500468851,-0.098
1746648208508156042,-0.098
1746648208515843233,-0.098
1746648208523530424,-0.096
1746648208531217615,-0.091
1746648208538904806,-0.083
1746648208546591997,-0.078
1746648208554279229,-0.078,84,666
1746648208561966420,-0.078
1746648208569653611,-0.076
1746648208577340802,-0.073
1746648208585027993,-0.073
1746648208592715184,-0.083
1746648208600402375,-0.088
1746648208608089566,-0.083
1746648208615776757,-0.069
1746648208623463948,-0.061
1746648208631151139,-0.073
1746648208638838330,-0.091
1746648208646525521,-0.088
1746648208654212712,-0.091
1746648208661899903,-0.101
1746648208669587094,-0.08600000000000001
1746648208677274285,-0.051000000000000004
1746648208684961476,-0.039
1746648208692648667,-0.039
1746648208700335858,-0.032
1746648208708023049,-0.036000000000000004
1746648208715710240,-0.051000000000000004
1746648208723397431,-0.051000000000000004
1746648208731084622,-0.046
1746648208738771813,-0.051000000000000004
1746648208746459004,-0.049
1746648208754146195,-0.041
1746648208761833386,-0.046
1746648208769520577,-0.069
1746648208777207768,-0.093
1746648208784894959,-0.07100000000000001
1746648208792582150,0.17500000000000002
1746648208800269341,0.626
1746648208807956532,0.754
1746648208815643723,0.226
1746648208823330914,-0.335
1746648208831018105,-0.332
1746648208838705296,-0.155
1746648208846392487,-0.17
1746648208854079678,-0.14
1746648208861766869,-0.039
1746648208869454060,-0.039
1746648208877141251,-0.064
1746648208884828442,-0.039
1746648208892515633,-0.027
1746648208900202824,-0.032
1746648208907890015,-0.019
1746648208915577206,-0.004
1746648208923264397,-0.007
1746648208930951588,-0.004
1746648208938638779,0.002
1746648208946325970,-0.009000000000000001
1746648208954013161,-0.017
1746648208961700352,0.004
1746648208969387543,0.017
1746648208977074734,0.004
1746648208984761925,0.009000000000000001
1746648208992449116,0.034
1746648209000136307,0.044
1746648209007823498,0.044
1746648209015510689,0.054
1746648209023197880,0.069
1746648209030885071,0.07100000000000001
1746648209038572262,0.073
1746648209046259453,0.081
1746648209053946644,0.083
1746648209061633835,0.081
1746648209069321026,0.07100000000000001
1746648209077008217,0.054
1746648209084695408,0.022
1746648209092382599,-0.019
1746648209100069790,-0.054
1746648209107756981,-0.076
1746648209115444213,-0.098
1746648209123131125,-0.106
1746648209130818037,-0.10300000000000001
1746648209138504949,-0.12
1746648209146191861,-0.125
1746648209153878773,-0.113
1746648209161565685,-0.11
1746648209169252597,-0.108
1746648209176939509,-0.106
1746648209184626421,-0.106
1746648209192313333,-0.10300000000000001
1746648209200000245,-0.106
1746648209207687157,-0.11
1746648209215374069,-0.106
1746648209223060981,-0.10300000000000001
1746648209230747893,-0.108
1746648209238434805,-0.108
1746648209246121717,-0.11
1746648209253808629,-0.11800000000000001
1746648209261495541,-0.108
1746648209269182453,-0.096
1746648209276869365,-0.108
1746648209284556277,-0.12
1746648209292243189,-0.115
1746648209299930101,-0.108
1746648209307617013,-0.115
1746648209315303925,-0.123
1746648209322990837,-0.125
1746648209330677749,-0.12
1746648209338364661,-0.108
1746648209346051573,-0.096
1746648209353738485,-0.078
1746648209361425397,-0.069
1746648209369112309,-0.078
1746648209376799221,-0.093
1746648209384486133,-0.098
1746648209392173045,-0.098
1746648209399859957,-0.098
1746648209407546869,-0.098
1746648209415233781,-0.106
1746648209422920693,-0.106
1746648209430607605,-0.106
1746648209438294517,-0.135
1746648209445981429,-0.088
1746648209453668341,0.23900000000000002
1746648209461355253,0.673
1746648209469042165,0.594
1746648209476729077,-0.051000000000000004
1746648209484415989,-0.453
1746648209492102901,-0.32
1746648209499789813,-0.20400000000000001
1746648209507476725,-0.229
1746648209515163637,-0.15
1746648209522850549,-0.08600000000000001
1746648209530537461,-0.11800000000000001
1746648209538224373,-0.11800000000000001
1746648209545911285,-0.088
1746648209553598197,-0.083
1746648209561285109,-0.076
1746648209568972021,-0.061
1746648209576658933,-0.066
1746648209584345845,-0.07100000000000001
1746648209592032757,-0.056
1746648209599719669,-0.051000000000000004
1746648209607406581,-0.056
1746648209615093493,-0.046
1746648209622780405,-0.034
1746648209630467317,-0.032
1746648209638154229,-0.027
1746648209645841141,-0.014
1746648209653528053,-0.007
1746648209661214965,-0.002
1746648209668901877,0.004
1746648209676588849,0.022,85,667
1746648209684276319,0.034,,655
1746648209691963789,0.036000000000000004
1746648209699651259,0.036000000000000004
1746648209707338729,0.034
1746648209715026199,0.036000000000000004
1746648209722713669,0.044
1746648209730401139,0.034
1746648209738088609,0.004
1746648209745776079,-0.027
1746648209753463549,-0.061
1746648209761151019,-0.088
1746648209768838489,-0.11
1746648209776525959,-0.13
1746648209784213429,-0.138
1746648209791900899,-0.135
1746648209799588369,-0.145
1746648209807275839,-0.14300000000000002
1746648209814963309,-0.123
1746648209822650779,-0.123
1746648209830338249,-0.13
1746648209838025719,-0.123
1746648209845713189,-0.115
1746648209853400659,-0.135
1746648209861088129,-0.14300000000000002
1746648209868775599,-0.11
1746648209876463069,-0.091
1746648209884150539,-0.108
1746648209891838009,-0.11
1746648209899525479,-0.11
1746648209907212949,-0.135
1746648209914900419,-0.14300000000000002
1746648209922587889,-0.125
1746648209930275359,-0.125
1746648209937962829,-0.14300000000000002
1746648209945650299,-0.145
1746648209953337769,-0.138
1746648209961025239,-0.155
1746648209968712709,-0.167
1746648209976400179,-0.152
1746648209984087649,-0.135
1746648209991775119,-0.12
1746648209999462589,-0.098
1746648210007150059,-0.08600000000000001
1746648210014837529,-0.096
1746648210022524999,-0.113
1746648210030212469,-0.12
1746648210037899939,-0.123
1746648210045587409,-0.115
1746648210053274879,-0.11
1746648210060962349,-0.113
1746648210068649819,-0.113
1746648210076337289,-0.123
1746648210084024759,-0.147
1746648210091712229,-0.091
1746648210099399699,0.234
1746648210107087169,0.66
1746648210114774639,0.579
1746648210122462109,-0.064
1746648210130149579,-0.466
1746648210137837049,-0.34
1746648210145524519,-0.219
1746648210153211989,-0.23900000000000002
1746648210160899459,-0.165
1746648210168586929,-0.101
1746648210176274399,-0.125
1746648210183961869,-0.12
1746648210191649339,-0.088
1746648210199336809,-0.088
1746648210207024279,-0.08600000000000001
1746648210214711749,-0.064
1746648210222399219,-0.059000000000000004
1746648210230086689,-0.059000000000000004
1746648210237774181,-0.059000000000000004
1746648210245461372,-0.066
1746648210253148563,-0.066
1746648210260835754,-0.051000000000000004
1746648210268522945,-0.036000000000000004
1746648210276210136,-0.027
1746648210283897327,-0.029
1746648210291584518,-0.036000000000000004
1746648210299271709,-0.024
1746648210306958900,-0.002
1746648210314646091,0.004
1746648210322333282,0.014
1746648210330020473,0.029
1746648210337707664,0.029
1746648210345394855,0.024
1746648210353082046,0.027
1746648210360769237,0.036000000000000004
1746648210368456428,0.029
1746648210376143619,0.017
1746648210383830810,0.002
1746648210391518001,-0.032
1746648210399205192,-0.073
1746648210406892383,-0.101
1746648210414579574,-0.128
1746648210422266765,-0.152
1746648210429953956,-0.155
1746648210437641147,-0.15
1746648210445328338,-0.152
1746648210453015529,-0.14300000000000002
1746648210460702720,-0.125
1746648210468389911,-0.12
1746648210476077102,-0.133
1746648210483764293,-0.138
1746648210491451484,-0.123
1746648210499138675,-0.11800000000000001
1746648210506825866,-0.138
1746648210514513057,-0.138
1746648210522200248,-0.128
1746648210529887439,-0.135
1746648210537574630,-0.138
1746648210545261821,-0.133
1746648210552949012,-0.138
1746648210560636203,-0.14
1746648210568323394,-0.13
1746648210576010585,-0.125
1746648210583697776,-0.14300000000000002
1746648210591384967,-0.157
1746648210599072158,-0.155
1746648210606759349,-0.14300000000000002
1746648210614446540,-0.13
1746648210622133731,-0.128
1746648210629820922,-0.123
1746648210637508113,-0.098
1746648210645195304,-0.08600000000000001
1746648210652882495,-0.10300000000000001
1746648210660569686,-0.115
1746648210668256877,-0.11
1746648210675944068,-0.11800000000000001
1746648210683631259,-0.123
1746648210691318450,-0.115
1746648210699005641,-0.106
1746648210706692832,-0.106
1746648210714380023,-0.13
1746648210722067214,-0.128
1746648210729754405,0.073
1746648210737441596,0.503
1746648210745128787,0.6970000000000001
1746648210752815978,0.249
1746648210760503169,-0.35000000000000003
1746648210768190360,-0.426
1746648210775877551,-0.23900000000000002
1746648210783564742,-0.221
1746648210791251933,-0.209
1746648210798939165,-0.113,86,649
1746648210806626286,-0.093
1746648210814313407,-0.113
1746648210822000528,-0.093
1746648210829687649,-0.076
1746648210837374770,-0.073
1746648210845061891,-0.059000000000000004
1746648210852749012,-0.051000000000000004
1746648210860436133,-0.061
1746648210868123254,-0.056
1746648210875810375,-0.051000000000000004
1746648210883497496,-0.054
1746648210891184617,-0.044
1746648210898871738,-0.029
1746648210906558859,-0.027
1746648210914245980,-0.017
1746648210921933101,-0.004
1746648210929620222,-0.009000000000000001
1746648210937307343,0.0
1746648210944994464,0.024
1746648210952681585,0.036000000000000004
1746648210960368706,0.039
1746648210968055827,0.051000000000000004
1746648210975742948,0.061
1746648210983430069,0.059000000000000004
1746648210991117190,0.051000000000000004
1746648210998804311,0.046
1746648211006491432,0.041
1746648211014178553,0.027
1746648211021865674,-0.002
1746648211029552795,-0.034
1746648211037239916,-0.066
1746648211044927037,-0.106
1746648211052614158,-0.13
1746648211060301279,-0.125
1746648211067988400,-0.125
1746648211075675521,-0.133
1746648211083362642,-0.13
1746648211091049763,-0.128
1746648211098736884,-0.12
1746648211106424005,-0.11
1746648211114111126,-0.108
1746648211121798247,-0.101
1746648211129485368,-0.096
1746648211137172489,-0.108
1746648211144859610,-0.12
1746648211152546731,-0.106
1746648211160233852,-0.096
1746648211167920973,-0.101
1746648211175608094,-0.108
1746648211183295215,-0.115
1746648211190982336,-0.113
1746648211198669457,-0.106
1746648211206356578,-0.108
1746648211214043699,-0.113
1746648211221730820,-0.113
1746648211229417941,-0.11800000000000001
1746648211237105062,-0.123
1746648211244792183,-0.12
1746648211252479304,-0.11800000000000001
1746648211260166425,-0.108
1746648211267853546,-0.088
1746648211275540667,-0.076
1746648211283227788,-0.061
1746648211290914909,-0.049
1746648211298602030,-0.054
1746648211306289151,-0.059000000000000004
1746648211313976272,-0.056
1746648211321663393,-0.066
1746648211329350514,-0.076
1746648211337037635,-0.066
1746648211344724756,-0.064
1746648211352411877,-0.078
1746648211360099062,-0.108,87,659
1746648211367786183,-0.098,,646
1746648211375473304,0.113
1746648211383160425,0.549
1746648211390847546,0.722
1746648211398534667,0.224
1746648211406221788,-0.387
1746648211413908909,-0.424
1746648211421596030,-0.224
1746648211429283151,-0.221
1746648211436970272,-0.209
1746648211444657393,-0.108
1746648211452344514,-0.091
1746648211460031635,-0.11
1746648211467718756,-0.08600000000000001
1746648211475405877,-0.066
1746648211483092998,-0.066
1746648211490780119,-0.056
1746648211498467240,-0.049
1746648211506154361,-0.051000000000000004
1746648211513841482,-0.046
1746648211521528603,-0.032
1746648211529215724,-0.017
1746648211536902845,-0.012
1746648211544589966,-0.014
1746648211552277087,-0.004
1746648211559964208,0.009000000000000001
1746648211567651329,0.017
1746648211575338450,0.017
1746648211583025571,0.024
1746648211590712692,0.034
1746648211598399813,0.036000000000000004
1746648211606086934,0.036000000000000004
1746648211613774055,0.036000000000000004
1746648211621461176,0.041
1746648211629148297,0.059000000000000004
1746648211636835418,0.066
1746648211644522539,0.061
1746648211652209660,0.046
1746648211659896781,0.022
1746648211667583902,-0.012
1746648211675271023,-0.049
1746648211682958144,-0.076
1746648211690645265,-0.101
1746648211698332386,-0.125
1746648211706019507,-0.138
1746648211713706628,-0.135
1746648211721393749,-0.14
1746648211729080870,-0.14300000000000002
1746648211736767991,-0.128
1746648211744455112,-0.115
1746648211752142233,-0.115
1746648211759829354,-0.113
1746648211767516475,-0.11800000000000001
1746648211775203596,-0.11800000000000001
1746648211782890717,-0.113
1746648211790577838,-0.11
1746648211798264959,-0.106
1746648211805952080,-0.101
1746648211813639201,-0.11
1746648211821326322,-0.115
1746648211829013443,-0.108
1746648211836700564,-0.106
1746648211844387685,-0.115
1746648211852074806,-0.11800000000000001
1746648211859761927,-0.113
1746648211867449048,-0.115
1746648211875136169,-0.13
1746648211882823290,-0.13
1746648211890510411,-0.113
1746648211898197532,-0.091
1746648211905884653,-0.106
1746648211913571774,-0.13
1746648211921258959,-0.10300000000000001
1746648211928946080,-0.078
1746648211936633201,-0.098
1746648211944320322,-0.101
1746648211952007443,-0.098
1746648211959694564,-0.108
1746648211967381685,-0.091
1746648211975068806,-0.081
1746648211982755927,-0.098
1746648211990443048,-0.101
1746648211998130169,-0.108
1746648212005817290,-0.096
1746648212013504411,0.152
1746648212021191532,0.609
1746648212028878653,0.658
1746648212036565774,-0.022
1746648212044252895,-0.633
1746648212051940016,-0.535
1746648212059627137,-0.266
1746648212067314258,-0.244
1746648212075001379,-0.199
1746648212082688500,-0.096
1746648212090375621,-0.081
1746648212098062742,-0.07100000000000001
1746648212105749863,-0.034
1746648212113436984,-0.034
1746648212121124105,-0.051000000000000004
1746648212128811226,-0.041
1746648212136498347,-0.041
1746648212144185468,-0.049
1746648212151872589,-0.029
1746648212159559710,-0.039
1746648212167246831,-0.061
1746648212174933952,-0.014
1746648212182621073,0.024
1746648212190308194,0.009000000000000001
1746648212197995315,0.022
1746648212205682436,0.059000000000000004
1746648212213369557,0.069
1746648212221056678,0.08600000000000001
1746648212228743799,0.147
1746648212236430920,0.216
1746648212244118041,0.221
1746648212251805162,0.184
1746648212259492283,0.182
1746648212267179404,0.194
1746648212274866525,0.17500000000000002
1746648212282553646,0.135
1746648212290240767,0.106
1746648212297927888,0.078
1746648212305615009,0.022
1746648212313302130,-0.046
1746648212320989251,-0.081
1746648212328676372,-0.091
1746648212336363493,-0.115
1746648212344050614,-0.138
1746648212351737735,-0.15
1746648212359424856,-0.167
1746648212367111977,-0.17500000000000002
1746648212374799098,-0.145
1746648212382486219,-0.106
1746648212390173340,-0.108
1746648212397860461,-0.123
1746648212405547582,-0.128
1746648212413234703,-0.133
1746648212420921824,-0.135
1746648212428608945,-0.123
1746648212436296066,-0.108
1746648212443983187,-0.123
1746648212451670308,-0.133
1746648212459357429,-0.115
1746648212467044550,-0.128
1746648212474731671,-0.152
1746648212482418856,-0.125,88,634
1746648212490105977,-0.098
1746648212497793098,-0.11
1746648212505480219,-0.115
1746648212513167340,-0.106
1746648212520854461,-0.101
1746648212528541582,-0.096
1746648212536228703,-0.10300000000000001
1746648212543915824,-0.108
1746648212551602945,-0.091
1746648212559290066,-0.091
1746648212566977187,-0.108
1746648212574664308,-0.10300000000000001
1746648212582351429,-0.093
1746648212590038550,-0.115
1746648212597725671,-0.125
1746648212605412792,-0.08600000000000001
1746648212613099913,0.029
1746648212620787034,0.34
1746648212628474155,0.665
1746648212636161276,0.404
1746648212643848397,-0.41600000000000004
1746648212651535518,-0.747
1746648212659222639,-0.384
1746648212666909760,-0.226
1746648212674596881,-0.303
1746648212682284002,-0.16
1746648212689971123,-0.004
1746648212697658244,-0.014
1746648212705345365,-0.044
1746648212713032486,-0.012
1746648212720719607,0.012
1746648212728406728,-0.012
1746648212736093849,-0.014
1746648212743780970,0.034
1746648212751468091,0.027
1746648212759155212,-0.017
1746648212766842333,0.024
1746648212774529454,0.093
1746648212782216575,0.088
1746648212789903696,0.036000000000000004
1746648212797590817,0.007
1746648212805277938,0.069
1746648212812965059,0.133
1746648212820652180,0.106
1746648212828339301,0.07100000000000001
1746648212836026422,0.101
1746648212843713543,0.165
1746648212851400664,0.17
1746648212859087785,0.12
1746648212866774906,0.115
1746648212874462027,0.128
1746648212882149148,0.128
1746648212889836269,0.088
1746648212897523390,0.039
1746648212905210511,0.024
1746648212912897632,-0.022
1746648212920584753,-0.13
1746648212928271874,-0.184
1746648212935958995,-0.145
1746648212943646116,-0.14
1746648212951333237,-0.184
1746648212959020358,-0.165
1746648212966707479,-0.125
1746648212974394600,-0.135
1746648212982081721,-0.157
1746648212989768842,-0.147
1746648212997455963,-0.123
1746648213005143084,-0.128
1746648213012830205,-0.145
1746648213020517326,-0.135
1746648213028204447,-0.123
1746648213035891568,-0.133
1746648213043578753,-0.128
1746648213051265874,-0.12
1746648213058952995,-0.135
1746648213066640116,-0.14
1746648213074327237,-0.14
1746648213082014358,-0.152
1746648213089701479,-0.147
1746648213097388600,-0.133
1746648213105075721,-0.133
1746648213112762842,-0.145
1746648213120449963,-0.145
1746648213128137084,-0.13
1746648213135824205,-0.113
1746648213143511326,-0.11
1746648213151198447,-0.113
1746648213158885568,-0.128
1746648213166572689,-0.133
1746648213174259810,-0.11800000000000001
1746648213181946931,-0.10300000000000001
1746648213189634052,-0.10300000000000001
1746648213197321173,-0.115
1746648213205008294,-0.13
1746648213212695415,-0.056
1746648213220382536,0.278
1746648213228069657,0.626
1746648213235756778,0.355
1746648213243443899,-0.394
1746648213251131020,-0.665
1746648213258818141,-0.369
1746648213266505262,-0.219
1746648213274192383,-0.214
1746648213281879504,-0.059000000000000004
1746648213289566625,0.029
1746648213297253746,-0.012
1746648213304940867,0.002
1746648213312627988,0.004
1746648213320315109,-0.046
1746648213328002230,-0.049
1746648213335689351,-0.024
1746648213343376472,-0.036000000000000004
1746648213351063593,-0.044
1746648213358750714,-0.022
1746648213366437835,-0.009000000000000001
1746648213374124956,-0.019
1746648213381812077,-0.014
1746648213389499198,-0.002
1746648213397186319,0.004
1746648213404873440,0.017
1746648213412560561,0.024
1746648213420247682,0.029
1746648213427934803,0.041
1746648213435621924,0.064
1746648213443309045,0.078
1746648213450996166,0.076
1746648213458683287,0.069
1746648213466370408,0.07100000000000001
1746648213474057529,0.08600000000000001
1746648213481744650,0.088
1746648213489431771,0.064
1746648213497118892,0.044
1746648213504806013,0.024
1746648213512493134,-0.024
1746648213520180255,-0.059000000000000004
1746648213527867376,-0.07100000000000001
1746648213535554497,-0.091
1746648213543241618,-0.113
1746648213550928739,-0.133
1746648213558615860,-0.135
1746648213566302981,-0.128
1746648213573990102,-0.128
1746648213581677223,-0.138
1746648213589364344,-0.138
1746648213597051465,-0.12
1746648213604738650,-0.115,89,646
1746648213612425771,-0.11800000000000001,,637
1746648213620112892,-0.10300000000000001
1746648213627800013,-0.10300000000000001
1746648213635487134,-0.125
1746648213643174255,-0.12
1746648213650861376,-0.11
1746648213658548497,-0.125
1746648213666235618,-0.128
1746648213673922739,-0.11800000000000001
1746648213681609860,-0.123
1746648213689296981,-0.138
1746648213696984102,-0.133
1746648213704671223,-0.123
1746648213712358344,-0.13
1746648213720045465,-0.14300000000000002
1746648213727732586,-0.14
1746648213735419707,-0.128
1746648213743106828,-0.123
1746648213750793949,-0.128
1746648213758481070,-0.11800000000000001
1746648213766168191,-0.08600000000000001
1746648213773855312,-0.073
1746648213781542433,-0.093
1746648213789229554,-0.093
1746648213796916675,-0.078
1746648213804603796,-0.098
1746648213812290917,-0.123
1746648213819978038,-0.10300000000000001
1746648213827665159,-0.08600000000000001
1746648213835352280,-0.106
1746648213843039401,-0.14300000000000002
1746648213850726522,-0.13
1746648213858413643,0.101
1746648213866100764,0.562
1746648213873787885,0.747
1746648213881475006,0.234
1746648213889162127,-0.404
1746648213896849248,-0.429
1746648213904536369,-0.197
1746648213912223490,-0.20700000000000002
1746648213919910611,-0.20700000000000002
1746648213927597732,-0.10300000000000001
1746648213935284853,-0.106
1746648213942971974,-0.135
1746648213950659095,-0.093
1746648213958346216,-0.064
1746648213966033337,-0.066
1746648213973720458,-0.066
1746648213981407579,-0.061
1746648213989094700,-0.049
1746648213996781821,-0.034
1746648214004468942,-0.029
1746648214012156063,-0.032
1746648214019843184,-0.027
1746648214027530305,-0.032
1746648214035217426,-0.032
1746648214042904547,-0.017
1746648214050591668,-0.004
1746648214058278789,0.002
1746648214065965910,0.014
1746648214073653031,0.027
1746648214081340152,0.041
1746648214089027273,0.056
1746648214096714394,0.054
1746648214104401515,0.044
1746648214112088636,0.051000000000000004
1746648214119775757,0.07100000000000001
1746648214127462878,0.078
1746648214135149999,0.069
1746648214142837120,0.049
1746648214150524241,0.014
1746648214158211362,-0.032
1746648214165898547,-0.059000000000000004
1746648214173585668,-0.076
1746648214181272789,-0.10300000000000001
1746648214188959910,-0.123
1746648214196647031,-0.123
1746648214204334152,-0.11800000000000001
1746648214212021273,-0.12
1746648214219708394,-0.12
1746648214227395515,-0.115
1746648214235082636,-0.108
1746648214242769757,-0.091
1746648214250456878,-0.078
1746648214258143999,-0.098
1746648214265831120,-0.106
1746648214273518241,-0.093
1746648214281205362,-0.093
1746648214288892483,-0.101
1746648214296579604,-0.093
1746648214304266725,-0.088
1746648214311953846,-0.093
1746648214319640967,-0.096
1746648214327328088,-0.091
1746648214335015209,-0.108
1746648214342702330,-0.113
1746648214350389451,-0.093
1746648214358076572,-0.091
1746648214365763693,-0.098
1746648214373450814,-0.093
1746648214381137935,-0.096
1746648214388825056,-0.106
1746648214396512177,-0.11
1746648214404199298,-0.108
1746648214411886419,-0.10300000000000001
1746648214419573540,-0.10300000000000001
1746648214427260661,-0.098
1746648214434947782,-0.091
1746648214442634903,-0.078
1746648214450322024,-0.056
1746648214458009145,-0.059000000000000004
1746648214465696266,-0.078
1746648214473383387,-0.088
1746648214481070508,-0.091
1746648214488757629,-0.096
1746648214496444750,-0.093
1746648214504131871,-0.08600000000000001
1746648214511818992,-0.08600000000000001
1746648214519506113,-0.10300000000000001
1746648214527193234,-0.14300000000000002
1746648214534880355,-0.088
1746648214542567476,0.23600000000000002
1746648214550254597,0.673
1746648214557941718,0.658
1746648214565628839,0.054
1746648214573315960,-0.399
1746648214581003081,-0.308
1746648214588690202,-0.182
1746648214596377323,-0.221
1746648214604064444,-0.182
1746648214611751565,-0.133
1746648214619438686,-0.147
1746648214627125807,-0.128
1746648214634812928,-0.093
1746648214642500049,-0.101
1746648214650187170,-0.10300000000000001
1746648214657874291,-0.083
1746648214665561412,-0.073
1746648214673248533,-0.073
1746648214680935654,-0.066
1746648214688622775,-0.066
1746648214696309896,-0.069
1746648214703997017,-0.064
1746648214711684138,-0.059000000000000004
1746648214719371259,-0.056
1746648214727058448,-0.049,91,604
1746648214734745569,-0.036000000000000004,,600
1746648214742432690,-0.032
1746648214750119811,-0.022
1746648214757806932,-0.007
1746648214765494053,0.002
1746648214773181174,0.012
1746648214780868295,0.024
1746648214788555416,0.029
1746648214796242537,0.036000000000000004
1746648214803929658,0.039
1746648214811616779,0.019
1746648214819303900,0.0
1746648214826991021,-0.007
1746648214834678142,-0.032
1746648214842365263,-0.076
1746648214850052384,-0.108
1746648214857739505,-0.125
1746648214865426626,-0.13
1746648214873113747,-0.145
1746648214880800868,-0.167
1746648214888487989,-0.165
1746648214896175110,-0.152
1746648214903862231,-0.16
1746648214911549352,-0.177
1746648214919236473,-0.177
1746648214926923594,-0.17
1746648214934610715,-0.17500000000000002
1746648214942297836,-0.18
1746648214949984957,-0.17
1746648214957672078,-0.165
1746648214965359199,-0.162
1746648214973046320,-0.14
1746648214980733441,-0.13
1746648214988420562,-0.145
1746648214996107683,-0.14300000000000002
1746648215003794804,-0.133
1746648215011481925,-0.145
1746648215019169046,-0.162
1746648215026856167,-0.165
1746648215034543288,-0.16
1746648215042230409,-0.165
1746648215049917530,-0.167
1746648215057604651,-0.14300000000000002
1746648215065291772,-0.133
1746648215072978893,-0.138
1746648215080666014,-0.128
1746648215088353135,-0.113
1746648215096040256,-0.113
1746648215103727377,-0.12
1746648215111414498,-0.123
1746648215119101619,-0.125
1746648215126788740,-0.133
1746648215134475861,-0.12
1746648215142162982,-0.101
1746648215149850103,-0.113
1746648215157537224,-0.123
1746648215165224345,-0.11
1746648215172911466,-0.113
1746648215180598587,-0.128
1746648215188285708,-0.125
1746648215195972829,-0.11
1746648215203659950,-0.101
1746648215211347071,-0.08600000000000001
1746648215219034192,-0.073
1746648215226721313,-0.073
1746648215234408434,-0.078
1746648215242095555,-0.083
1746648215249782676,-0.091
1746648215257469797,-0.108
1746648215265156918,-0.11
1746648215272844039,-0.098
1746648215280531160,-0.096
1746648215288218345,-0.096,92,644
1746648215295905466,-0.10300000000000001
1746648215303592587,-0.138
1746648215311279708,-0.155
1746648215318966829,0.022
1746648215326653950,0.463
1746648215334341071,0.752
1746648215342028192,0.392
1746648215349715313,-0.258
1746648215357402434,-0.433
1746648215365089555,-0.244
1746648215372776676,-0.194
1746648215380463797,-0.192
1746648215388150918,-0.10300000000000001
1746648215395838039,-0.096
1746648215403525160,-0.125
1746648215411212281,-0.096
1746648215418899402,-0.076
1746648215426586523,-0.088
1746648215434273644,-0.083
1746648215441960765,-0.073
1746648215449647886,-0.076
1746648215457335007,-0.073
1746648215465022128,-0.066
1746648215472709249,-0.059000000000000004
1746648215480396370,-0.044
1746648215488083491,-0.029
1746648215495770612,-0.034
1746648215503457733,-0.046
1746648215511144854,-0.041
1746648215518831975,-0.024
1746648215526519096,-0.012
1746648215534206217,0.002
1746648215541893338,0.019
1746648215549580459,0.024
1746648215557267580,0.027
1746648215564954701,0.032
1746648215572641822,0.032
1746648215580328943,0.036000000000000004
1746648215588016064,0.046
1746648215595703185,0.051000000000000004
1746648215603390306,0.044
1746648215611077427,0.012
1746648215618764548,-0.032
1746648215626451669,-0.059000000000000004
1746648215634138790,-0.07100000000000001
1746648215641825911,-0.098
1746648215649513032,-0.133
1746648215657200153,-0.138
1746648215664887274,-0.128
1746648215672574395,-0.14300000000000002
1746648215680261516,-0.157
1746648215687948637,-0.147
1746648215695635758,-0.135
1746648215703322879,-0.125
1746648215711010000,-0.128
1746648215718697121,-0.133
1746648215726384242,-0.128
1746648215734071363,-0.125
1746648215741758484,-0.13
1746648215749445605,-0.123
1746648215757132726,-0.108
1746648215764819847,-0.11800000000000001
1746648215772506968,-0.14
1746648215780194089,-0.138
1746648215787881210,-0.128
1746648215795568331,-0.133
1746648215803255452,-0.135
1746648215810942573,-0.13
1746648215818629694,-0.128
1746648215826316815,-0.133
1746648215834003936,-0.135
1746648215841691057,-0.133
1746648215849378242,-0.11800000000000001
1746648215857065363,-0.11
1746648215864752484,-0.123
1746648215872439605,-0.125
1746648215880126726,-0.12
1746648215887813847,-0.128
1746648215895500968,-0.13
1746648215903188089,-0.125
1746648215910875210,-0.128
1746648215918562331,-0.123
1746648215926249452,-0.113
1746648215933936573,-0.11
1746648215941623694,-0.113
1746648215949310815,-0.11800000000000001
1746648215956997936,-0.115
1746648215964685057,-0.113
1746648215972372178,-0.128
1746648215980059299,-0.13
1746648215987746420,-0.113
1746648215995433541,-0.108
1746648216003120662,-0.106
1746648216010807783,-0.091
1746648216018494904,-0.078
1746648216026182025,-0.078
1746648216033869146,-0.08600000000000001
1746648216041556267,-0.091
1746648216049243388,-0.08600000000000001
1746648216056930509,-0.083
1746648216064617630,-0.093
1746648216072304751,-0.106
1746648216079991872,-0.106
1746648216087678993,-0.096
1746648216095366114,-0.096
1746648216103053235,-0.108
1746648216110740356,-0.123
1746648216118427477,-0.135
1746648216126114598,-0.007
1746648216133801719,0.404
1746648216141488840,0.739
1746648216149175961,0.426
1746648216156863082,-0.23900000000000002
1746648216164550203,-0.436
1746648216172237324,-0.234
1746648216179924445,-0.197
1746648216187611566,-0.224
1746648216195298687,-0.123
1746648216202985808,-0.088
1746648216210672929,-0.125
1746648216218360050,-0.10300000000000001
1746648216226047171,-0.066
1746648216233734292,-0.066
1746648216241421413,-0.066
1746648216249108534,-0.056
1746648216256795655,-0.056
1746648216264482776,-0.059000000000000004
1746648216272169897,-0.051000000000000004
1746648216279857018,-0.039
1746648216287544139,-0.036000000000000004
1746648216295231260,-0.041
1746648216302918381,-0.039
1746648216310605502,-0.032
1746648216318292623,-0.022
1746648216325979744,-0.007
1746648216333666865,-0.002
1746648216341353986,-0.002
1746648216349041107,0.004
1746648216356728228,0.014
1746648216364415349,0.022
1746648216372102470,0.029
1746648216379789591,0.046
1746648216387476712,0.059000000000000004
1746648216395163833,0.056
1746648216402850954,0.051000000000000004
1746648216410538139,0.036000000000000004,93,683
1746648216418225260,0.009000000000000001
1746648216425912381,-0.014
1746648216433599502,-0.044
1746648216441286623,-0.076
1746648216448973744,-0.106
1746648216456660865,-0.11800000000000001
1746648216464347986,-0.12
1746648216472035107,-0.125
1746648216479722228,-0.128
1746648216487409349,-0.13
1746648216495096470,-0.128
1746648216502783591,-0.11800000000000001
1746648216510470712,-0.11800000000000001
1746648216518157833,-0.125
1746648216525844954,-0.11800000000000001
1746648216533532075,-0.106
1746648216541219196,-0.10300000000000001
1746648216548906317,-0.10300000000000001
1746648216556593438,-0.106
1746648216564280559,-0.101
1746648216571967680,-0.093
1746648216579654801,-0.093
1746648216587341922,-0.098
1746648216595029043,-0.101
1746648216602716164,-0.10300000000000001
1746648216610403285,-0.10300000000000001
1746648216618090406,-0.101
1746648216625777527,-0.101
1746648216633464648,-0.10300000000000001
1746648216641151769,-0.10300000000000001
1746648216648838890,-0.096
1746648216656526011,-0.098
1746648216664213132,-0.11
1746648216671900253,-0.108
1746648216679587374,-0.093
1746648216687274495,-0.091
1746648216694961616,-0.10300000000000001
1746648216702648737,-0.101
1746648216710335858,-0.088
1746648216718022979,-0.088
1746648216725710100,-0.088
1746648216733397221,-0.083
1746648216741084342,-0.08600000000000001
1746648216748771463,-0.083
1746648216756458584,-0.081
1746648216764145705,-0.078
1746648216771832826,-0.069
1746648216779519947,-0.066
1746648216787207068,-0.076
1746648216794894189,-0.078
1746648216802581310,-0.076
1746648216810268431,-0.073
1746648216817955552,-0.066
1746648216825642673,-0.066
1746648216833329794,-0.081
1746648216841016915,-0.08600000000000001
1746648216848704036,-0.07100000000000001
1746648216856391157,-0.07100000000000001
1746648216864078278,-0.069
1746648216871765399,-0.049
1746648216879452520,-0.039
1746648216887139641,-0.046
1746648216894826762,-0.049
1746648216902513883,-0.054
1746648216910201004,-0.056
1746648216917888125,-0.061
1746648216925575246,-0.07100000000000001
1746648216933262367,-0.078
1746648216940949488,-0.078
1746648216948636609,-0.078
1746648216956323730,-0.081
1746648216964010851,-0.08600000000000001
1746648216971698036,-0.113
1746648216979385157,-0.054
1746648216987072278,0.29
1746648216994759399,0.712
1746648217002446520,0.606
1746648217010133641,-0.032
1746648217017820762,-0.424
1746648217025507883,-0.298
1746648217033195004,-0.182
1746648217040882125,-0.20700000000000002
1746648217048569246,-0.145
1746648217056256367,-0.076
1746648217063943488,-0.093
1746648217071630609,-0.098
1746648217079317730,-0.07100000000000001
1746648217087004851,-0.061
1746648217094691972,-0.059000000000000004
1746648217102379093,-0.054
1746648217110066214,-0.059000000000000004
1746648217117753335,-0.056
1746648217125440456,-0.049
1746648217133127577,-0.051000000000000004
1746648217140814698,-0.049
1746648217148501819,-0.041
1746648217156188940,-0.036000000000000004
1746648217163876061,-0.039
1746648217171563182,-0.034
1746648217179250303,-0.014
1746648217186937424,-0.002
1746648217194624545,-0.007
1746648217202311666,0.004
1746648217209998787,0.029
1746648217217685908,0.036000000000000004
1746648217225373029,0.027
1746648217233060150,0.029
1746648217240747271,0.046
1746648217248434392,0.044
1746648217256121513,0.036000000000000004
1746648217263808634,0.044
1746648217271495755,0.032
1746648217279182876,-0.007
1746648217286869997,-0.041
1746648217294557118,-0.066
1746648217302244239,-0.093
1746648217309931360,-0.11800000000000001
1746648217317618481,-0.133
1746648217325305602,-0.135
1746648217332992723,-0.135
1746648217340679844,-0.133
1746648217348366965,-0.13
1746648217356054086,-0.13
1746648217363741207,-0.13
1746648217371428328,-0.123
1746648217379115449,-0.133
1746648217386802570,-0.14300000000000002
1746648217394489691,-0.14300000000000002
1746648217402176812,-0.14300000000000002
1746648217409863933,-0.133
1746648217417551054,-0.11800000000000001
1746648217425238175,-0.11800000000000001
1746648217432925296,-0.115
1746648217440612417,-0.108
1746648217448299538,-0.106
1746648217455986659,-0.11
1746648217463673780,-0.11
1746648217471360901,-0.106
1746648217479048022,-0.115
1746648217486735143,-0.125
1746648217494422264,-0.11800000000000001
1746648217502109385,-0.108
1746648217509796506,-0.106
1746648217517483627,-0.108
1746648217525170748,-0.108
1746648217532857933,-0.10300000000000001,93,780
1746648217540545124,-0.10300000000000001
1746648217548232315,-0.11
1746648217555919506,-0.108
1746648217563606697,-0.108
1746648217571293888,-0.11800000000000001
1746648217578981079,-0.11800000000000001
1746648217586668270,-0.108
1746648217594355461,-0.11
1746648217602042652,-0.11800000000000001
1746648217609729843,-0.11800000000000001
1746648217617417034,-0.11800000000000001
1746648217625104225,-0.106
1746648217632791416,-0.101
1746648217640478607,-0.098
1746648217648165798,-0.08600000000000001
1746648217655852989,-0.081
1746648217663540180,-0.093
1746648217671227371,-0.098
1746648217678914562,-0.093
1746648217686601753,-0.091
1746648217694288944,-0.08600000000000001
1746648217701976135,-0.08600000000000001
1746648217709663326,-0.076
1746648217717350517,-0.056
1746648217725037708,-0.046
1746648217732724899,-0.056
1746648217740412090,-0.061
1746648217748099281,-0.064
1746648217755786472,-0.069
1746648217763473663,-0.069
1746648217771160854,-0.073
1746648217778848045,-0.08600000000000001
1746648217786535236,-0.088
1746648217794222427,-0.076
1746648217801909618,-0.069
1746648217809596809,-0.088
1746648217817284000,-0.11800000000000001
1746648217824971191,-0.083
1746648217832658382,0.182
1746648217840345573,0.611
1746648217848032764,0.631
1746648217855719955,0.017
1746648217863407146,-0.485
1746648217871094337,-0.389
1746648217878781528,-0.216
1746648217886468719,-0.231
1746648217894155910,-0.16
1746648217901843101,-0.059000000000000004
1746648217909530292,-0.078
1746648217917217483,-0.083
1746648217924904674,-0.039
1746648217932591865,-0.036000000000000004
1746648217940279056,-0.041
1746648217947966247,-0.019
1746648217955653438,-0.009000000000000001
1746648217963340629,-0.027
1746648217971027820,-0.027
1746648217978715011,-0.017
1746648217986402202,-0.019
1746648217994089393,-0.009000000000000001
1746648218001776584,0.014
1746648218009463775,0.019
1746648218017150966,0.022
1746648218024838157,0.034
1746648218032525348,0.051000000000000004
1746648218040212539,0.056
1746648218047899730,0.069
1746648218055586921,0.08600000000000001
1746648218063274112,0.08600000000000001
1746648218070961303,0.07100000000000001
1746648218078648494,0.069
1746648218086335685,0.076
1746648218094022921,0.08600000000000001
1746648218101710112,0.088
1746648218109397303,0.076
1746648218117084494,0.066
1746648218124771685,0.056
1746648218132458876,0.002
1746648218140146067,-0.061
1746648218147833258,-0.08600000000000001
1746648218155520449,-0.10300000000000001
1746648218163207640,-0.125
1746648218170894831,-0.14
1746648218178582022,-0.14300000000000002
1746648218186269213,-0.14
1746648218193956404,-0.15
1746648218201643595,-0.147
1746648218209330786,-0.11800000000000001
1746648218217017977,-0.106
1746648218224705168,-0.12
1746648218232392359,-0.125
1746648218240079550,-0.108
1746648218247766741,-0.098
1746648218255453932,-0.101
1746648218263141123,-0.096
1746648218270828314,-0.096
1746648218278515505,-0.108
1746648218286202696,-0.113
1746648218293889887,-0.12
1746648218301577078,-0.125
1746648218309264269,-0.11800000000000001
1746648218316951460,-0.125
1746648218324638651,-0.138
1746648218332325842,-0.128
1746648218340013033,-0.115
1746648218347700224,-0.115
1746648218355387415,-0.106
1746648218363074606,-0.098
1746648218370761797,-0.108
1746648218378448988,-0.123
1746648218386136179,-0.12
1746648218393823370,-0.11
1746648218401510561,-0.10300000000000001
1746648218409197752,-0.096
1746648218416884943,-0.091
1746648218424572134,-0.088
1746648218432259325,-0.096
1746648218439946516,-0.10300000000000001
1746648218447633707,-0.10300000000000001
1746648218455320898,-0.096
1746648218463008089,-0.088
1746648218470695280,-0.083
1746648218478382471,-0.073
1746648218486069662,-0.061
1746648218493756853,-0.059000000000000004
1746648218501444044,-0.064
1746648218509131235,-0.064
1746648218516818426,-0.069
1746648218524505617,-0.07100000000000001
1746648218532192808,-0.081
1746648218539879999,-0.091
1746648218547567190,-0.096
1746648218555254381,-0.091
1746648218562941572,-0.083
1746648218570628763,-0.08600000000000001
1746648218578315954,-0.106
1746648218586003145,-0.061
1746648218593690336,0.231
1746648218601377527,0.653
1746648218609064718,0.586
1746648218616751909,-0.113
1746648218624439100,-0.577
1746648218632126291,-0.406
1746648218639813482,-0.234
1746648218647500673,-0.276
1746648218655187905,-0.187,91,808
1746648218662875096,-0.051000000000000004
1746648218670562287,-0.056
1746648218678249478,-0.07100000000000001
1746648218685936669,-0.036000000000000004
1746648218693623860,-0.027
1746648218701311051,-0.041
1746648218708998242,-0.034
1746648218716685433,-0.022
1746648218724372624,-0.027
1746648218732059815,-0.034
1746648218739747006,-0.017
1746648218747434197,-0.007
1746648218755121388,-0.014
1746648218762808579,-0.004
1746648218770495770,0.014
1746648218778182961,0.022
1746648218785870152,0.029
1746648218793557343,0.044
1746648218801244534,0.054
1746648218808931725,0.066
1746648218816618916,0.081
1746648218824306107,0.093
1746648218831993298,0.106
1746648218839680489,0.10300000000000001
1746648218847367680,0.093
1746648218855054871,0.101
1746648218862742062,0.106
1746648218870429253,0.078
1746648218878116444,0.029
1746648218885803635,-0.012
1746648218893490826,-0.051000000000000004
1746648218901178017,-0.108
1746648218908865208,-0.162
1746648218916552399,-0.187
1746648218924239590,-0.209
1746648218931926781,-0.214
1746648218939613972,-0.18
1746648218947301163,-0.165
1746648218954988354,-0.162
1746648218962675545,-0.14
1746648218970362736,-0.12
1746648218978049927,-0.113
1746648218985737118,-0.106
1746648218993424309,-0.098
1746648219001111500,-0.088
1746648219008798691,-0.088
1746648219016485882,-0.093
1746648219024173073,-0.088
1746648219031860264,-0.081
1746648219039547455,-0.083
1746648219047234646,-0.08600000000000001
1746648219054921837,-0.08600000000000001
1746648219062609028,-0.088
1746648219070296219,-0.098
1746648219077983410,-0.098
1746648219085670601,-0.093
1746648219093357792,-0.093
1746648219101044983,-0.091
1746648219108732174,-0.091
1746648219116419365,-0.096
1746648219124106556,-0.101
1746648219131793747,-0.108
1746648219139480938,-0.106
1746648219147168129,-0.096
1746648219154855320,-0.096
1746648219162542511,-0.101
1746648219170229702,-0.08600000000000001
1746648219177916893,-0.076
1746648219185604084,-0.078
1746648219193291275,-0.076
1746648219200978466,-0.088
1746648219208665657,-0.108
1746648219216352889,-0.096
1746648219224040080,-0.081
1746648219231727271,-0.101
1746648219239414462,-0.115
1746648219247101653,-0.10300000000000001
1746648219254788844,-0.083
1746648219262476035,-0.066
1746648219270163226,-0.049
1746648219277850417,-0.039
1746648219285537608,-0.039
1746648219293224799,-0.049
1746648219300911990,-0.056
1746648219308599181,-0.061
1746648219316286372,-0.064
1746648219323973563,-0.061
1746648219331660754,-0.064
1746648219339347945,-0.069
1746648219347035136,-0.061
1746648219354722327,-0.066
1746648219362409518,-0.101
1746648219370096709,-0.056
1746648219377783900,0.266
1746648219385471091,0.712
1746648219393158282,0.705
1746648219400845473,0.093
1746648219408532664,-0.382
1746648219416219855,-0.298
1746648219423907046,-0.157
1746648219431594237,-0.199
1746648219439281428,-0.165
1746648219446968619,-0.088
1746648219454655810,-0.096
1746648219462343001,-0.101
1746648219470030192,-0.07100000000000001
1746648219477717383,-0.066
1746648219485404574,-0.066
1746648219493091765,-0.049
1746648219500778956,-0.041
1746648219508466147,-0.044
1746648219516153338,-0.036000000000000004
1746648219523840529,-0.029
1746648219531527720,-0.029
1746648219539214911,-0.027
1746648219546902102,-0.014
1746648219554589293,-0.009000000000000001
1746648219562276484,-0.007
1746648219569963675,0.004
1746648219577650866,0.007
1746648219585338057,0.009000000000000001
1746648219593025248,0.027
1746648219600712439,0.044
1746648219608399630,0.039
1746648219616086821,0.036000000000000004
1746648219623774012,0.046
1746648219631461203,0.051000000000000004
1746648219639148394,0.054
1746648219646835585,0.054
1746648219654522776,0.051000000000000004
1746648219662209967,0.044
1746648219669897158,0.022
1746648219677584349,-0.019
1746648219685271540,-0.064
1746648219692958731,-0.096
1746648219700645922,-0.108
1746648219708333113,-0.113
1746648219716020304,-0.12
1746648219723707495,-0.13
1746648219731394686,-0.125
1746648219739081877,-0.115
1746648219746769068,-0.12
1746648219754456259,-0.11800000000000001
1746648219762143450,-0.11
1746648219769830641,-0.11
1746648219777517873,-0.106,83,855
1746648219785205064,-0.096,,847
1746648219792892255,-0.093
1746648219800579446,-0.093
1746648219808266637,-0.093
1746648219815953828,-0.098
1746648219823641019,-0.10300000000000001
1746648219831328210,-0.10300000000000001
1746648219839015401,-0.108
1746648219846702592,-0.108
1746648219854389783,-0.101
1746648219862076974,-0.11
1746648219869764165,-0.125
1746648219877451356,-0.115
1746648219885138547,-0.108
1746648219892825738,-0.11
1746648219900512929,-0.113
1746648219908200120,-0.115
1746648219915887311,-0.11800000000000001
1746648219923574502,-0.108
1746648219931261693,-0.106
1746648219938948884,-0.11
1746648219946636075,-0.101
1746648219954323266,-0.093
1746648219962010457,-0.091
1746648219969697648,-0.088
1746648219977384839,-0.091
1746648219985072030,-0.10300000000000001
1746648219992759221,-0.108
1746648220000446412,-0.108
1746648220008133603,-0.113
1746648220015820794,-0.12
1746648220023507985,-0.11
1746648220031195176,-0.093
1746648220038882367,-0.08600000000000001
1746648220046569558,-0.08600000000000001
1746648220054256749,-0.081
1746648220061943940,-0.078
1746648220069631131,-0.08600000000000001
1746648220077318322,-0.10300000000000001
1746648220085005513,-0.10300000000000001
1746648220092692704,-0.093
1746648220100379895,-0.088
1746648220108067086,-0.08600000000000001
1746648220115754277,-0.08600000000000001
1746648220123441468,-0.113
1746648220131128659,-0.115
1746648220138815850,0.08600000000000001
1746648220146503041,0.53
1746648220154190232,0.722
1746648220161877423,0.258
1746648220169564614,-0.335
1746648220177251805,-0.392
1746648220184938996,-0.202
1746648220192626187,-0.20400000000000001
1746648220200313378,-0.199
1746648220208000569,-0.088
1746648220215687760,-0.07100000000000001
1746648220223374951,-0.098
1746648220231062142,-0.076
1746648220238749333,-0.064
1746648220246436524,-0.073
1746648220254123715,-0.069
1746648220261810906,-0.054
1746648220269498097,-0.054
1746648220277185288,-0.066
1746648220284872479,-0.061
1746648220292559670,-0.044
1746648220300246861,-0.032
1746648220307934052,-0.032
1746648220315621243,-0.029
1746648220323308434,-0.029
1746648220330995625,-0.034
1746648220338682857,-0.007,82,760
1746648220346370048,0.032
1746648220354057239,0.034
1746648220361744430,0.029
1746648220369431621,0.049
1746648220377118812,0.059000000000000004
1746648220384806003,0.064
1746648220392493194,0.088
1746648220400180385,0.101
1746648220407867576,0.081
1746648220415554767,0.061
1746648220423241958,0.046
1746648220430929149,0.007
1746648220438616340,-0.049
1746648220446303531,-0.081
1746648220453990722,-0.106
1746648220461677913,-0.14
1746648220469365104,-0.157
1746648220477052295,-0.162
1746648220484739486,-0.17200000000000001
1746648220492426677,-0.162
1746648220500113868,-0.165
1746648220507801059,-0.184
1746648220515488250,-0.17200000000000001
1746648220523175441,-0.145
1746648220530862632,-0.145
1746648220538549823,-0.145
1746648220546237014,-0.133
1746648220553924205,-0.11800000000000001
1746648220561611396,-0.125
1746648220569298587,-0.13
1746648220576985778,-0.12
1746648220584672969,-0.11800000000000001
1746648220592360160,-0.123
1746648220600047351,-0.123
1746648220607734542,-0.128
1746648220615421733,-0.125
1746648220623108924,-0.113
1746648220630796115,-0.11
1746648220638483306,-0.128
1746648220646170497,-0.133
1746648220653857688,-0.115
1746648220661544879,-0.115
1746648220669232070,-0.113
1746648220676919261,-0.10300000000000001
1746648220684606452,-0.108
1746648220692293643,-0.11800000000000001
1746648220699980834,-0.128
1746648220707668025,-0.147
1746648220715355216,-0.17
1746648220723042407,-0.167
1746648220730729598,-0.147
1746648220738416789,-0.145
1746648220746103980,-0.152
1746648220753791171,-0.128
1746648220761478362,-0.093
1746648220769165553,-0.088
1746648220776852744,-0.093
1746648220784539935,-0.083
1746648220792227126,-0.061
1746648220799914317,-0.044
1746648220807601508,-0.041
1746648220815288699,-0.061
1746648220822975890,-0.081
1746648220830663081,-0.078
1746648220838350272,-0.066
1746648220846037463,-0.076
1746648220853724654,-0.091
1746648220861411845,-0.083
1746648220869099036,-0.076
1746648220876786227,-0.098
1746648220884473418,-0.064
1746648220892160609,0.192
1746648220899847841,0.611
1746648220907534962,0.65
1746648220915222083,0.034
1746648220922909204,-0.522
1746648220930596325,-0.453
1746648220938283446,-0.246
1746648220945970567,-0.249
1746648220953657688,-0.184
1746648220961344809,-0.061
1746648220969031930,-0.051000000000000004
1746648220976719051,-0.061
1746648220984406172,-0.032
1746648220992093293,-0.036000000000000004
1746648220999780414,-0.044
1746648221007467535,-0.024
1746648221015154656,-0.017
1746648221022841777,-0.019
1746648221030528898,-0.004
1746648221038216019,0.0
1746648221045903140,-0.007
1746648221053590261,0.0
1746648221061277382,0.012
1746648221068964503,0.017
1746648221076651624,0.019
1746648221084338745,0.019
1746648221092025866,0.032
1746648221099712987,0.056
1746648221107400108,0.076
1746648221115087229,0.093
1746648221122774350,0.108
1746648221130461471,0.12
1746648221138148592,0.13
1746648221145835713,0.12
1746648221153522834,0.108
1746648221161209955,0.101
1746648221168897076,0.08600000000000001
1746648221176584197,0.056
1746648221184271318,0.019
1746648221191958439,-0.027
1746648221199645560,-0.078
1746648221207332681,-0.11
1746648221215019802,-0.135
1746648221222706923,-0.16
1746648221230394044,-0.167
1746648221238081165,-0.16
1746648221245768286,-0.16
1746648221253455407,-0.162
1746648221261142528,-0.152
1746648221268829649,-0.145
1746648221276516770,-0.147
1746648221284203891,-0.14
1746648221291891012,-0.13
1746648221299578133,-0.12
1746648221307265254,-0.108
1746648221314952375,-0.10300000000000001
1746648221322639496,-0.108
1746648221330326617,-0.108
1746648221338013738,-0.106
1746648221345700859,-0.108
1746648221353387980,-0.12
1746648221361075101,-0.125
1746648221368762222,-0.11800000000000001
1746648221376449343,-0.113
1746648221384136464,-0.115
1746648221391823585,-0.115
1746648221399510706,-0.11800000000000001
1746648221407197827,-0.123
1746648221414884948,-0.133
1746648221422572069,-0.133
1746648221430259190,-0.13
1746648221437946311,-0.128
1746648221445633432,-0.125
1746648221453320553,-0.12
1746648221461007738,-0.11,81,784
1746648221468694859,-0.108
1746648221476381980,-0.123
1746648221484069101,-0.12
1746648221491756222,-0.108
1746648221499443343,-0.113
1746648221507130464,-0.125
1746648221514817585,-0.12
1746648221522504706,-0.11800000000000001
1746648221530191827,-0.125
1746648221537878948,-0.11
1746648221545566069,-0.088
1746648221553253190,-0.083
1746648221560940311,-0.078
1746648221568627432,-0.076
1746648221576314553,-0.08600000000000001
1746648221584001674,-0.10300000000000001
1746648221591688795,-0.108
1746648221599375916,-0.101
1746648221607063037,-0.098
1746648221614750158,-0.101
1746648221622437279,-0.098
1746648221630124400,-0.101
1746648221637811521,-0.123
1746648221645498642,-0.138
1746648221653185763,0.041
1746648221660872884,0.488
1746648221668560005,0.744
1746648221676247126,0.327
1746648221683934247,-0.33
1746648221691621368,-0.453
1746648221699308489,-0.241
1746648221706995610,-0.216
1746648221714682731,-0.221
1746648221722369852,-0.133
1746648221730056973,-0.115
1746648221737744094,-0.135
1746648221745431215,-0.108
1746648221753118336,-0.093
1746648221760805457,-0.093
1746648221768492578,-0.078
1746648221776179699,-0.069
1746648221783866820,-0.069
1746648221791553941,-0.076
1746648221799241062,-0.091
1746648221806928183,-0.10300000000000001
1746648221814615304,-0.088
1746648221822302425,-0.078
1746648221829989546,-0.076
1746648221837676667,-0.061
1746648221845363788,-0.051000000000000004
1746648221853050909,-0.041
1746648221860738030,-0.012
1746648221868425151,0.007
1746648221876112272,0.004
1746648221883799393,0.022
1746648221891486514,0.054
1746648221899173635,0.069
1746648221906860756,0.073
1746648221914547877,0.081
1746648221922234998,0.081
1746648221929922119,0.069
1746648221937609240,0.046
1746648221945296361,0.012
1746648221952983482,-0.027
1746648221960670603,-0.066
1746648221968357724,-0.098
1746648221976044845,-0.123
1746648221983731966,-0.138
1746648221991419087,-0.145
1746648221999106208,-0.147
1746648222006793329,-0.14300000000000002
1746648222014480450,-0.145
1746648222022167635,-0.147
1746648222029854965,-0.14
1746648222037542295,-0.133
1746648222045229625,-0.13
1746648222052916955,-0.12
1746648222060604285,-0.108
1746648222068291615,-0.10300000000000001
1746648222075978945,-0.106
1746648222083666275,-0.106
1746648222091353605,-0.101
1746648222099040935,-0.108
1746648222106728265,-0.138
1746648222114415595,-0.155
1746648222122102925,-0.13
1746648222129790255,-0.11
1746648222137477585,-0.113
1746648222145164915,-0.12
1746648222152852245,-0.133
1746648222160539575,-0.133
1746648222168226905,-0.115
1746648222175914235,-0.11800000000000001
1746648222183601565,-0.125
1746648222191288895,-0.12
1746648222198976225,-0.11800000000000001
1746648222206663555,-0.11800000000000001
1746648222214350885,-0.108
1746648222222038215,-0.115
1746648222229725545,-0.135
1746648222237412875,-0.128
1746648222245100205,-0.10300000000000001
1746648222252787535,-0.10300000000000001
1746648222260474865,-0.108
1746648222268162195,-0.098
1746648222275849525,-0.093
1746648222283536855,-0.10300000000000001
1746648222291224185,-0.11
1746648222298911515,-0.108
1746648222306598845,-0.093
1746648222314286175,-0.069
1746648222321973505,-0.064
1746648222329660835,-0.07100000000000001
1746648222337348165,-0.061
1746648222345035495,-0.049
1746648222352722825,-0.069
1746648222360410155,-0.083
1746648222368097485,-0.073
1746648222375784815,-0.078
1746648222383472145,-0.091
1746648222391159475,-0.08600000000000001
1746648222398846805,-0.073
1746648222406534135,-0.08600000000000001
1746648222414221465,-0.12
1746648222421908795,-0.113
1746648222429596125,0.113
1746648222437283455,0.5740000000000001
1746648222444970785,0.761
1746648222452658115,0.28300000000000003
1746648222460345445,-0.308
1746648222468032775,-0.364
1746648222475720105,-0.189
1746648222483407435,-0.187
1746648222491094765,-0.17200000000000001
1746648222498782095,-0.093
1746648222506469425,-0.093
1746648222514156755,-0.106
1746648222521844085,-0.081
1746648222529531415,-0.076
1746648222537218745,-0.076
1746648222544906075,-0.064
1746648222552593405,-0.061
1746648222560280735,-0.069
1746648222567968065,-0.061
1746648222575655395,-0.046
1746648222583342793,-0.041,80,763
1746648222591029984,-0.046,,752
1746648222598717175,-0.039
1746648222606404366,-0.027
1746648222614091557,-0.019
1746648222621778748,-0.022
1746648222629465939,-0.022
1746648222637153130,0.0
1746648222644840321,0.017
1746648222652527512,0.024
1746648222660214703,0.046
1746648222667901894,0.061
1746648222675589085,0.059000000000000004
1746648222683276276,0.064
1746648222690963467,0.073
1746648222698650658,0.069
1746648222706337849,0.064
1746648222714025040,0.041
1746648222721712231,0.002
1746648222729399422,-0.034
1746648222737086613,-0.069
1746648222744773804,-0.096
1746648222752460995,-0.123
1746648222760148186,-0.135
1746648222767835377,-0.135
1746648222775522568,-0.14300000000000002
1746648222783209759,-0.147
1746648222790896950,-0.14
1746648222798584141,-0.145
1746648222806271332,-0.14
1746648222813958523,-0.13
1746648222821645714,-0.128
1746648222829332905,-0.125
1746648222837020096,-0.125
1746648222844707287,-0.133
1746648222852394478,-0.123
1746648222860081669,-0.101
1746648222867768860,-0.096
1746648222875456051,-0.093
1746648222883143242,-0.081
1746648222890830433,-0.08600000000000001
1746648222898517624,-0.101
1746648222906204815,-0.091
1746648222913892006,-0.081
1746648222921579197,-0.093
1746648222929266388,-0.106
1746648222936953579,-0.096
1746648222944640770,-0.088
1746648222952327961,-0.091
1746648222960015152,-0.096
1746648222967702343,-0.088
1746648222975389534,-0.078
1746648222983076725,-0.096
1746648222990763916,-0.108
1746648222998451107,-0.098
1746648223006138298,-0.083
1746648223013825489,-0.081
1746648223021512680,-0.093
1746648223029199871,-0.098
1746648223036887062,-0.081
1746648223044574253,-0.069
1746648223052261444,-0.073
1746648223059948635,-0.078
1746648223067635826,-0.10300000000000001
1746648223075323017,-0.14300000000000002
1746648223083010208,-0.15
1746648223090697399,-0.13
1746648223098384590,-0.11
1746648223106071781,-0.093
1746648223113758972,-0.07100000000000001
1746648223121446163,-0.061
1746648223129133354,-0.066
1746648223136820545,-0.083
1746648223144507777,-0.101
1746648223152194968,-0.096
1746648223159882159,-0.08600000000000001
1746648223167569350,-0.096
1746648223175256541,-0.098
1746648223182943732,-0.083
1746648223190630923,-0.076
1746648223198318114,-0.093
1746648223206005305,-0.069
1746648223213692496,0.187
1746648223221379687,0.628
1746648223229066878,0.678
1746648223236754069,0.07100000000000001
1746648223244441260,-0.463
1746648223252128451,-0.424
1746648223259815642,-0.251
1746648223267502833,-0.244
1746648223275190024,-0.18
1746648223282877215,-0.073
1746648223290564406,-0.059000000000000004
1746648223298251597,-0.054
1746648223305938788,-0.049
1746648223313625979,-0.066
1746648223321313170,-0.044
1746648223329000361,-0.019
1746648223336687552,-0.039
1746648223344374743,-0.034
1746648223352061934,0.002
1746648223359749125,-0.002
1746648223367436316,-0.014
1746648223375123507,0.002
1746648223382810698,0.017
1746648223390497889,0.027
1746648223398185080,0.046
1746648223405872271,0.059000000000000004
1746648223413559462,0.061
1746648223421246653,0.08600000000000001
1746648223428933844,0.10300000000000001
1746648223436621035,0.101
1746648223444308226,0.12
1746648223451995417,0.145
1746648223459682608,0.14300000000000002
1746648223467369799,0.14300000000000002
1746648223475056990,0.155
1746648223482744181,0.14300000000000002
1746648223490431372,0.10300000000000001
1746648223498118563,0.081
1746648223505805754,0.059000000000000004
1746648223513492945,0.0
1746648223521180136,-0.056
1746648223528867327,-0.083
1746648223536554518,-0.11
1746648223544241709,-0.147
1746648223551928900,-0.15
1746648223559616091,-0.128
1746648223567303282,-0.138
1746648223574990473,-0.152
1746648223582677664,-0.138
1746648223590364855,-0.128
1746648223598052046,-0.123
1746648223605739237,-0.115
1746648223613426428,-0.11
1746648223621113619,-0.10300000000000001
1746648223628800810,-0.101
1746648223636488001,-0.108
1746648223644175192,-0.096
1746648223651862383,-0.081
1746648223659549574,-0.088
1746648223667236765,-0.096
1746648223674923956,-0.098
1746648223682611147,-0.108
1746648223690298338,-0.108
1746648223697985529,-0.096
1746648223705672761,-0.091,80,764
1746648223713359952,-0.106
1746648223721047143,-0.108
1746648223728734334,-0.093
1746648223736421525,-0.096
1746648223744108716,-0.106
1746648223751795907,-0.098
1746648223759483098,-0.093
1746648223767170289,-0.106
1746648223774857480,-0.108
1746648223782544671,-0.091
1746648223790231862,-0.088
1746648223797919053,-0.10300000000000001
1746648223805606244,-0.101
1746648223813293435,-0.091
1746648223820980626,-0.098
1746648223828667817,-0.10300000000000001
1746648223836355008,-0.08600000000000001
1746648223844042199,-0.076
1746648223851729390,-0.07100000000000001
1746648223859416581,-0.051000000000000004
1746648223867103772,-0.049
1746648223874790963,-0.078
1746648223882478154,-0.098
1746648223890165345,-0.08600000000000001
1746648223897852536,-0.088
1746648223905539727,-0.101
1746648223913226918,-0.091
1746648223920914109,-0.091
1746648223928601300,-0.108
1746648223936288491,-0.123
1746648223943975682,-0.12
1746648223951662873,0.061
1746648223959350064,0.5
1746648223967037255,0.7020000000000001
1746648223974724446,0.199
1746648223982411637,-0.458
1746648223990098828,-0.515
1746648223997786019,-0.271
1746648224005473210,-0.244
1746648224013160401,-0.221
1746648224020847592,-0.08600000000000001
1746648224028534783,-0.061
1746648224036221974,-0.10300000000000001
1746648224043909165,-0.083
1746648224051596356,-0.056
1746648224059283547,-0.064
1746648224066970738,-0.061
1746648224074657929,-0.046
1746648224082345120,-0.044
1746648224090032311,-0.046
1746648224097719502,-0.044
1746648224105406693,-0.039
1746648224113093884,-0.036000000000000004
1746648224120781075,-0.029
1746648224128468266,-0.027
1746648224136155457,-0.017
1746648224143842648,0.002
1746648224151529839,0.007
1746648224159217030,0.012
1746648224166904221,0.034
1746648224174591412,0.049
1746648224182278603,0.056
1746648224189965794,0.064
1746648224197652985,0.07100000000000001
1746648224205340176,0.076
1746648224213027367,0.081
1746648224220714558,0.081
1746648224228401749,0.066
1746648224236088940,0.039
1746648224243776131,-0.007
1746648224251463322,-0.059000000000000004
1746648224259150513,-0.096
1746648224266837745,-0.123,80,775
1746648224274524866,-0.167
1746648224282211987,-0.231
1746648224289899108,-0.276
1746648224297586229,-0.28600000000000003
1746648224305273350,-0.28800000000000003
1746648224312960471,-0.268
1746648224320647592,-0.23900000000000002
1746648224328334713,-0.216
1746648224336021834,-0.189
1746648224343708955,-0.162
1746648224351396076,-0.15
1746648224359083197,-0.145
1746648224366770318,-0.138
1746648224374457439,-0.128
1746648224382144560,-0.125
1746648224389831681,-0.133
1746648224397518802,-0.13
1746648224405205923,-0.123
1746648224412893044,-0.123
1746648224420580165,-0.123
1746648224428267286,-0.123
1746648224435954407,-0.123
1746648224443641528,-0.115
1746648224451328649,-0.11
1746648224459015770,-0.125
1746648224466702891,-0.135
1746648224474390012,-0.12
1746648224482077133,-0.115
1746648224489764254,-0.125
1746648224497451375,-0.108
1746648224505138496,-0.108
1746648224512825617,-0.135
1746648224520512738,-0.135
1746648224528199859,-0.113
1746648224535886980,-0.113
1746648224543574101,-0.11800000000000001
1746648224551261222,-0.11
1746648224558948343,-0.11
1746648224566635464,-0.11800000000000001
1746648224574322585,-0.123
1746648224582009706,-0.125
1746648224589696827,-0.125
1746648224597383948,-0.12
1746648224605071069,-0.115
1746648224612758190,-0.106
1746648224620445311,-0.091
1746648224628132432,-0.08600000000000001
1746648224635819553,-0.08600000000000001
1746648224643506674,-0.07100000000000001
1746648224651193795,-0.07100000000000001
1746648224658880916,-0.093
1746648224666568037,-0.101
1746648224674255158,-0.093
1746648224681942279,-0.088
1746648224689629400,-0.093
1746648224697316521,-0.101
1746648224705003642,-0.096
1746648224712690763,-0.113
1746648224720377884,-0.155
1746648224728065005,-0.07100000000000001
1746648224735752126,0.305
1746648224743439247,0.724
1746648224751126368,0.616
1746648224758813489,-0.022
1746648224766500610,-0.419
1746648224774187731,-0.3
1746648224781874852,-0.199
1746648224789561973,-0.229
1746648224797249094,-0.16
1746648224804936215,-0.11
1746648224812623336,-0.133
1746648224820310457,-0.123
1746648224827997642,-0.10300000000000001
1746648224835684763,-0.101
1746648224843371884,-0.08600000000000001
1746648224851059005,-0.081
1746648224858746126,-0.091
1746648224866433247,-0.081
1746648224874120368,-0.066
1746648224881807489,-0.066
1746648224889494610,-0.066
1746648224897181731,-0.064
1746648224904868852,-0.056
1746648224912555973,-0.049
1746648224920243094,-0.036000000000000004
1746648224927930215,-0.024
1746648224935617336,-0.024
1746648224943304457,-0.017
1746648224950991578,0.0
1746648224958678699,0.017
1746648224966365820,0.029
1746648224974052941,0.027
1746648224981740062,0.017
1746648224989427183,0.024
1746648224997114304,0.051000000000000004
1746648225004801425,0.054
1746648225012488546,0.039
1746648225020175667,0.027
1746648225027862788,-0.009000000000000001
1746648225035549909,-0.061
1746648225043237030,-0.098
1746648225050924151,-0.11800000000000001
1746648225058611272,-0.13
1746648225066298393,-0.135
1746648225073985514,-0.14
1746648225081672635,-0.15
1746648225089359756,-0.155
1746648225097046877,-0.147
1746648225104733998,-0.133
1746648225112421119,-0.133
1746648225120108240,-0.145
1746648225127795361,-0.14300000000000002
1746648225135482482,-0.128
1746648225143169603,-0.128
1746648225150856724,-0.13
1746648225158543845,-0.128
1746648225166230966,-0.128
1746648225173918087,-0.123
1746648225181605208,-0.113
1746648225189292329,-0.115
1746648225196979450,-0.12
1746648225204666571,-0.115
1746648225212353692,-0.113
1746648225220040813,-0.12
1746648225227727934,-0.12
1746648225235415055,-0.115
1746648225243102176,-0.113
1746648225250789297,-0.113
1746648225258476418,-0.11800000000000001
1746648225266163539,-0.125
1746648225273850660,-0.123
1746648225281537781,-0.115
1746648225289224902,-0.11
1746648225296912023,-0.108
1746648225304599144,-0.101
1746648225312286265,-0.101
1746648225319973386,-0.098
1746648225327660507,-0.091
1746648225335347628,-0.096
1746648225343034749,-0.108
1746648225350721870,-0.108
1746648225358408991,-0.10300000000000001
1746648225366096112,-0.106
1746648225373783233,-0.115
1746648225381470354,-0.115
1746648225389157539,-0.106,80,782
1746648225396844451,-0.101,,740
1746648225404531363,-0.10300000000000001
1746648225412218275,-0.096
1746648225419905187,-0.078
1746648225427592099,-0.066
1746648225435279011,-0.059000000000000004
1746648225442965923,-0.064
1746648225450652835,-0.078
1746648225458339747,-0.081
1746648225466026659,-0.078
1746648225473713571,-0.081
1746648225481400483,-0.091
1746648225489087395,-0.106
1746648225496774307,-0.106
1746648225504461219,-0.098
1746648225512148131,-0.108
1746648225519835043,-0.125
1746648225527521955,0.0
1746648225535208867,0.396
1746648225542895779,0.72
1746648225550582691,0.441
1746648225558269603,-0.216
1746648225565956515,-0.47000000000000003
1746648225573643427,-0.276
1746648225581330339,-0.18
1746648225589017251,-0.192
1746648225596704163,-0.123
1746648225604391075,-0.083
1746648225612077987,-0.101
1746648225619764899,-0.091
1746648225627451811,-0.064
1746648225635138723,-0.051000000000000004
1746648225642825635,-0.054
1746648225650512547,-0.051000000000000004
1746648225658199459,-0.039
1746648225665886371,-0.032
1746648225673573283,-0.032
1746648225681260195,-0.024
1746648225688947107,-0.014
1746648225696634019,-0.019
1746648225704320931,-0.019
1746648225712007843,-0.007
1746648225719694755,0.002
1746648225727381667,0.009000000000000001
1746648225735068579,0.022
1746648225742755491,0.041
1746648225750442403,0.056
1746648225758129315,0.069
1746648225765816227,0.088
1746648225773503139,0.108
1746648225781190051,0.11
1746648225788876963,0.098
1746648225796563875,0.091
1746648225804250787,0.093
1746648225811937699,0.08600000000000001
1746648225819624611,0.041
1746648225827311523,-0.009000000000000001
1746648225834998435,-0.041
1746648225842685347,-0.076
1746648225850372259,-0.10300000000000001
1746648225858059171,-0.12
1746648225865746083,-0.14300000000000002
1746648225873432995,-0.155
1746648225881119907,-0.145
1746648225888806819,-0.14300000000000002
1746648225896493731,-0.155
1746648225904180643,-0.155
1746648225911867555,-0.138
1746648225919554467,-0.135
1746648225927241379,-0.138
1746648225934928291,-0.123
1746648225942615203,-0.11800000000000001
1746648225950302179,-0.115
1746648225957989370,-0.108
1746648225965676561,-0.11
1746648225973363752,-0.113
1746648225981050943,-0.101
1746648225988738134,-0.098
1746648225996425325,-0.096
1746648226004112516,-0.091
1746648226011799707,-0.106
1746648226019486898,-0.11800000000000001
1746648226027174089,-0.101
1746648226034861280,-0.098
1746648226042548471,-0.12
1746648226050235662,-0.11800000000000001
1746648226057922853,-0.106
1746648226065610044,-0.108
1746648226073297235,-0.11
1746648226080984426,-0.096
1746648226088671617,-0.091
1746648226096358808,-0.101
1746648226104045999,-0.106
1746648226111733190,-0.108
1746648226119420381,-0.11
1746648226127107572,-0.11
1746648226134794763,-0.11
1746648226142481954,-0.106
1746648226150169145,-0.088
1746648226157856336,-0.081
1746648226165543527,-0.078
1746648226173230718,-0.073
1746648226180917909,-0.076
1746648226188605100,-0.069
1746648226196292291,-0.059000000000000004
1746648226203979482,-0.066
1746648226211666673,-0.069
1746648226219353864,-0.069
1746648226227041055,-0.073
1746648226234728246,-0.076
1746648226242415437,-0.083
1746648226250102628,-0.08600000000000001
1746648226257789819,-0.078
1746648226265477010,-0.078
1746648226273164201,-0.096
1746648226280851392,0.019
1746648226288538583,0.421
1746648226296225774,0.732
1746648226303912965,0.367
1746648226311600156,-0.34700000000000003
1746648226319287347,-0.542
1746648226326974538,-0.295
1746648226334661729,-0.221
1746648226342348920,-0.23600000000000002
1746648226350036111,-0.11
1746648226357723302,-0.039
1746648226365410493,-0.076
1746648226373097684,-0.066
1746648226380784875,-0.034
1746648226388472066,-0.051000000000000004
1746648226396159257,-0.051000000000000004
1746648226403846448,-0.024
1746648226411533639,-0.022
1746648226419220830,-0.024
1746648226426908021,-0.017
1746648226434595212,-0.009000000000000001
1746648226442282403,0.0
1746648226449969594,0.007
1746648226457656785,0.0
1746648226465343976,0.004
1746648226473031167,0.027
1746648226480718358,0.034
1746648226488405549,0.046
1746648226496092740,0.076
1746648226503779931,0.096
1746648226511467163,0.101,80,780
1746648226519154354,0.106
1746648226526841545,0.115
1746648226534528736,0.125
1746648226542215927,0.133
1746648226549903118,0.123
1746648226557590309,0.10300000000000001
1746648226565277500,0.076
1746648226572964691,0.027
1746648226580651882,-0.032
1746648226588339073,-0.078
1746648226596026264,-0.11
1746648226603713455,-0.133
1746648226611400646,-0.16
1746648226619087837,-0.17200000000000001
1746648226626775028,-0.167
1746648226634462219,-0.18
1746648226642149410,-0.189
1746648226649836601,-0.167
1746648226657523792,-0.157
1746648226665210983,-0.17
1746648226672898174,-0.167
1746648226680585365,-0.147
1746648226688272556,-0.14300000000000002
1746648226695959747,-0.14
1746648226703646938,-0.12
1746648226711334129,-0.113
1746648226719021320,-0.13
1746648226726708511,-0.125
1746648226734395702,-0.108
1746648226742082893,-0.12
1746648226749770084,-0.133
1746648226757457275,-0.12
1746648226765144466,-0.115
1746648226772831657,-0.13
1746648226780518848,-0.133
1746648226788206039,-0.125
1746648226795893230,-0.125
1746648226803580421,-0.128
1746648226811267612,-0.13
1746648226818954803,-0.13
1746648226826641994,-0.125
1746648226834329185,-0.13
1746648226842016376,-0.133
1746648226849703567,-0.13
1746648226857390758,-0.133
1746648226865077949,-0.135
1746648226872765140,-0.13
1746648226880452331,-0.125
1746648226888139522,-0.123
1746648226895826713,-0.128
1746648226903513904,-0.133
1746648226911201095,-0.13
1746648226918888286,-0.12
1746648226926575477,-0.11
1746648226934262668,-0.113
1746648226941949859,-0.125
1746648226949637050,-0.128
1746648226957324241,-0.12
1746648226965011432,-0.11
1746648226972698623,-0.098
1746648226980385814,-0.081
1746648226988073005,-0.069
1746648226995760196,-0.059000000000000004
1746648227003447387,-0.056
1746648227011134578,-0.066
1746648227018821769,-0.083
1746648227026508960,-0.083
1746648227034196151,-0.083
1746648227041883342,-0.08600000000000001
1746648227049570533,-0.083
1746648227057257724,-0.08600000000000001
1746648227064944915,-0.101
1746648227072632147,-0.13
1746648227080319338,-0.093
1746648227088006529,0.189
1746648227095693720,0.648
1746648227103380911,0.722
1746648227111068102,0.147
1746648227118755293,-0.396
1746648227126442484,-0.372
1746648227134129675,-0.216
1746648227141816866,-0.241
1746648227149504057,-0.20700000000000002
1746648227157191248,-0.13
1746648227164878439,-0.14300000000000002
1746648227172565630,-0.147
1746648227180252821,-0.11800000000000001
1746648227187940012,-0.12
1746648227195627203,-0.125
1746648227203314394,-0.106
1746648227211001585,-0.096
1746648227218688776,-0.093
1746648227226375967,-0.078
1746648227234063158,-0.073
1746648227241750349,-0.08600000000000001
1746648227249437540,-0.081
1746648227257124731,-0.061
1746648227264811922,-0.046
1746648227272499113,-0.041
1746648227280186304,-0.044
1746648227287873495,-0.039
1746648227295560686,-0.022
1746648227303247877,-0.007
1746648227310935068,0.0
1746648227318622259,0.012
1746648227326309450,0.024
1746648227333996641,0.034
1746648227341683832,0.039
1746648227349371023,0.046
1746648227357058214,0.051000000000000004
1746648227364745405,0.049
1746648227372432596,0.027
1746648227380119787,-0.012
1746648227387806978,-0.049
1746648227395494169,-0.088
1746648227403181360,-0.11800000000000001
1746648227410868551,-0.135
1746648227418555742,-0.155
1746648227426242933,-0.17200000000000001
1746648227433930124,-0.17200000000000001
1746648227441617315,-0.16
1746648227449304506,-0.15
1746648227456991697,-0.145
1746648227464678888,-0.14300000000000002
1746648227472366079,-0.138
1746648227480053270,-0.133
1746648227487740461,-0.133
1746648227495427652,-0.13
1746648227503114843,-0.12
1746648227510802034,-0.12
1746648227518489225,-0.128
1746648227526176416,-0.128
1746648227533863607,-0.11800000000000001
1746648227541550798,-0.108
1746648227549237989,-0.113
1746648227556925180,-0.125
1746648227564612371,-0.12
1746648227572299562,-0.108
1746648227579986753,-0.113
1746648227587673944,-0.125
1746648227595361135,-0.125
1746648227603048326,-0.11800000000000001
1746648227610735517,-0.11
1746648227618422708,-0.11
1746648227626109899,-0.115
1746648227633797131,-0.113,79,798
1746648227641484252,-0.113
1746648227649171373,-0.115
1746648227656858494,-0.113
1746648227664545615,-0.108
1746648227672232736,-0.10300000000000001
1746648227679919857,-0.10300000000000001
1746648227687606978,-0.10300000000000001
1746648227695294099,-0.10300000000000001
1746648227702981220,-0.101
1746648227710668341,-0.10300000000000001
1746648227718355462,-0.113
1746648227726042583,-0.115
1746648227733729704,-0.115
1746648227741416825,-0.108
1746648227749103946,-0.08600000000000001
1746648227756791067,-0.078
1746648227764478188,-0.076
1746648227772165309,-0.056
1746648227779852430,-0.051000000000000004
1746648227787539551,-0.076
1746648227795226672,-0.088
1746648227802913793,-0.083
1746648227810600914,-0.088
1746648227818288035,-0.091
1746648227825975156,-0.083
1746648227833662277,-0.08600000000000001
1746648227841349398,-0.108
1746648227849036519,-0.128
1746648227856723640,-0.083
1746648227864410761,0.194
1746648227872097882,0.643
1746648227879785003,0.6950000000000001
1746648227887472124,0.11
1746648227895159245,-0.404
1746648227902846366,-0.34
1746648227910533487,-0.17
1746648227918220608,-0.199
1746648227925907729,-0.17200000000000001
1746648227933594850,-0.093
1746648227941281971,-0.106
1746648227948969092,-0.113
1746648227956656213,-0.073
1746648227964343334,-0.069
1746648227972030455,-0.078
1746648227979717576,-0.069
1746648227987404697,-0.054
1746648227995091818,-0.054
1746648228002778939,-0.064
1746648228010466060,-0.066
1746648228018153181,-0.051000000000000004
1746648228025840302,-0.029
1746648228033527423,-0.029
1746648228041214544,-0.029
1746648228048901665,-0.019
1746648228056588786,-0.007
1746648228064275907,0.004
1746648228071963028,0.019
1746648228079650149,0.029
1746648228087337270,0.046
1746648228095024391,0.059000000000000004
1746648228102711512,0.066
1746648228110398633,0.083
1746648228118085754,0.096
1746648228125772875,0.08600000000000001
1746648228133459996,0.081
1746648228141147117,0.076
1746648228148834238,0.044
1746648228156521359,-0.002
1746648228164208480,-0.039
1746648228171895601,-0.076
1746648228179582722,-0.108
1746648228187269843,-0.133
1746648228194957028,-0.152
1746648228202644149,-0.162
1746648228210331270,-0.155
1746648228218018391,-0.152
1746648228225705512,-0.152
1746648228233392633,-0.135
1746648228241079754,-0.128
1746648228248766875,-0.145
1746648228256453996,-0.147
1746648228264141117,-0.133
1746648228271828238,-0.128
1746648228279515359,-0.128
1746648228287202480,-0.123
1746648228294889601,-0.12
1746648228302576722,-0.11800000000000001
1746648228310263843,-0.115
1746648228317950964,-0.11800000000000001
1746648228325638085,-0.125
1746648228333325206,-0.12
1746648228341012327,-0.108
1746648228348699448,-0.11
1746648228356386569,-0.115
1746648228364073690,-0.113
1746648228371760811,-0.108
1746648228379447932,-0.106
1746648228387135053,-0.106
1746648228394822174,-0.106
1746648228402509295,-0.106
1746648228410196416,-0.098
1746648228417883537,-0.091
1746648228425570658,-0.10300000000000001
1746648228433257779,-0.11800000000000001
1746648228440944900,-0.108
1746648228448632021,-0.093
1746648228456319142,-0.088
1746648228464006263,-0.093
1746648228471693384,-0.10300000000000001
1746648228479380505,-0.11
1746648228487067626,-0.10300000000000001
1746648228494754747,-0.093
1746648228502441868,-0.096
1746648228510128989,-0.101
1746648228517816110,-0.098
1746648228525503231,-0.091
1746648228533190352,-0.073
1746648228540877473,-0.059000000000000004
1746648228548564594,-0.049
1746648228556251715,-0.049
1746648228563938836,-0.064
1746648228571625957,-0.076
1746648228579313078,-0.07100000000000001
1746648228587000199,-0.073
1746648228594687320,-0.076
1746648228602374441,-0.07100000000000001
1746648228610061562,-0.07100000000000001
1746648228617748683,-0.081
1746648228625435804,-0.10300000000000001
1746648228633122925,-0.073
1746648228640810046,0.189
1746648228648497167,0.628
1746648228656184288,0.648
1746648228663871409,0.007
1746648228671558530,-0.52
1746648228679245651,-0.419
1746648228686932772,-0.219
1746648228694619893,-0.23600000000000002
1746648228702307014,-0.192
1746648228709994135,-0.081
1746648228717681256,-0.064
1746648228725368377,-0.076
1746648228733055498,-0.061
1746648228740742619,-0.051000000000000004
1746648228748429740,-0.049
1746648228756116925,-0.039,79,753
1746648228763804046,-0.032
1746648228771491167,-0.034
1746648228779178288,-0.036000000000000004
1746648228786865409,-0.024
1746648228794552530,-0.022
1746648228802239651,-0.032
1746648228809926772,-0.019
1746648228817613893,0.0
1746648228825301014,0.002
1746648228832988135,0.019
1746648228840675256,0.044
1746648228848362377,0.049
1746648228856049498,0.059000000000000004
1746648228863736619,0.091
1746648228871423740,0.108
1746648228879110861,0.115
1746648228886797982,0.123
1746648228894485103,0.13
1746648228902172224,0.135
1746648228909859345,0.123
1746648228917546466,0.091
1746648228925233587,0.059000000000000004
1746648228932920708,0.024
1746648228940607829,-0.019
1746648228948294950,-0.064
1746648228955982071,-0.101
1746648228963669192,-0.133
1746648228971356313,-0.152
1746648228979043434,-0.16
1746648228986730555,-0.167
1746648228994417676,-0.17500000000000002
1746648229002104797,-0.162
1746648229009791918,-0.147
1746648229017479039,-0.14300000000000002
1746648229025166160,-0.14
1746648229032853281,-0.14
1746648229040540402,-0.138
1746648229048227523,-0.12
1746648229055914644,-0.115
1746648229063601765,-0.125
1746648229071288886,-0.113
1746648229078976007,-0.108
1746648229086663128,-0.123
1746648229094350249,-0.123
1746648229102037370,-0.115
1746648229109724491,-0.115
1746648229117411612,-0.115
1746648229125098733,-0.113
1746648229132785854,-0.123
1746648229140472975,-0.133
1746648229148160096,-0.128
1746648229155847217,-0.123
1746648229163534338,-0.13
1746648229171221459,-0.14
1746648229178908580,-0.133
1746648229186595701,-0.12
1746648229194282822,-0.125
1746648229201969943,-0.133
1746648229209657064,-0.123
1746648229217344185,-0.113
1746648229225031306,-0.125
1746648229232718427,-0.128
1746648229240405548,-0.113
1746648229248092669,-0.106
1746648229255779790,-0.113
1746648229263466911,-0.125
1746648229271154032,-0.13
1746648229278841153,-0.12
1746648229286528274,-0.113
1746648229294215395,-0.101
1746648229301902516,-0.08600000000000001
1746648229309589637,-0.083
1746648229317276822,-0.078,79,804
1746648229324963943,-0.076,,776
1746648229332651064,-0.093
1746648229340338185,-0.108
1746648229348025306,-0.098
1746648229355712427,-0.098
1746648229363399548,-0.108
1746648229371086669,-0.101
1746648229378773790,-0.096
1746648229386460911,-0.11
1746648229394148032,-0.14
1746648229401835153,-0.108
1746648229409522274,0.189
1746648229417209395,0.643
1746648229424896516,0.621
1746648229432583637,-0.024
1746648229440270758,-0.493
1746648229447957879,-0.374
1746648229455645000,-0.216
1746648229463332121,-0.23900000000000002
1746648229471019242,-0.17500000000000002
1746648229478706363,-0.083
1746648229486393484,-0.096
1746648229494080605,-0.106
1746648229501767726,-0.083
1746648229509454847,-0.073
1746648229517141968,-0.066
1746648229524829089,-0.059000000000000004
1746648229532516210,-0.056
1746648229540203331,-0.046
1746648229547890452,-0.044
1746648229555577573,-0.044
1746648229563264694,-0.032
1746648229570951815,-0.027
1746648229578638936,-0.032
1746648229586326057,-0.019
1746648229594013178,-0.002
1746648229601700299,0.002
1746648229609387420,0.012
1746648229617074541,0.029
1746648229624761662,0.046
1746648229632448783,0.054
1746648229640135904,0.054
1746648229647823025,0.054
1746648229655510146,0.056
1746648229663197267,0.064
1746648229670884388,0.073
1746648229678571509,0.083
1746648229686258630,0.076
1746648229693945751,0.049
1746648229701632872,0.002
1746648229709319993,-0.049
1746648229717007114,-0.091
1746648229724694235,-0.123
1746648229732381356,-0.152
1746648229740068477,-0.184
1746648229747755598,-0.224
1746648229755442719,-0.244
1746648229763129840,-0.20700000000000002
1746648229770816961,-0.17200000000000001
1746648229778504082,-0.177
1746648229786191203,-0.177
1746648229793878324,-0.17500000000000002
1746648229801565445,-0.18
1746648229809252566,-0.152
1746648229816939687,-0.113
1746648229824626808,-0.101
1746648229832313929,-0.098
1746648229840001050,-0.088
1746648229847688171,-0.078
1746648229855375292,-0.076
1746648229863062413,-0.076
1746648229870749534,-0.078
1746648229878436719,-0.081
1746648229886123840,-0.081
1746648229893810961,-0.07100000000000001
1746648229901498082,-0.07100000000000001
1746648229909185203,-0.083
1746648229916872324,-0.08600000000000001
1746648229924559445,-0.076
1746648229932246566,-0.081
1746648229939933687,-0.083
1746648229947620808,-0.078
1746648229955307929,-0.081
1746648229962995050,-0.081
1746648229970682171,-0.076
1746648229978369292,-0.073
1746648229986056413,-0.066
1746648229993743534,-0.059000000000000004
1746648230001430655,-0.07100000000000001
1746648230009117776,-0.091
1746648230016804897,-0.091
1746648230024492018,-0.076
1746648230032179139,-0.07100000000000001
1746648230039866260,-0.08600000000000001
1746648230047553381,-0.098
1746648230055240502,-0.101
1746648230062927623,-0.096
1746648230070614744,-0.078
1746648230078301865,-0.066
1746648230085988986,-0.066
1746648230093676107,-0.049
1746648230101363228,-0.041
1746648230109050349,-0.061
1746648230116737470,-0.066
1746648230124424591,-0.056
1746648230132111712,-0.059000000000000004
1746648230139798833,-0.061
1746648230147485954,-0.056
1746648230155173075,-0.051000000000000004
1746648230162860196,-0.054
1746648230170547317,-0.069
1746648230178234438,-0.096
1746648230185921559,-0.017
1746648230193608680,0.342
1746648230201295801,0.749
1746648230208982922,0.618
1746648230216670043,-0.027
1746648230224357164,-0.401
1746648230232044285,-0.263
1746648230239731406,-0.155
1746648230247418527,-0.184
1746648230255105648,-0.123
1746648230262792769,-0.076
1746648230270479890,-0.093
1746648230278167011,-0.081
1746648230285854132,-0.059000000000000004
1746648230293541253,-0.066
1746648230301228374,-0.064
1746648230308915495,-0.049
1746648230316602616,-0.046
1746648230324289737,-0.051000000000000004
1746648230331976858,-0.046
1746648230339663979,-0.036000000000000004
1746648230347351100,-0.029
1746648230355038221,-0.032
1746648230362725342,-0.034
1746648230370412463,-0.029
1746648230378099584,-0.022
1746648230385786705,-0.017
1746648230393473826,-0.007
1746648230401160947,0.009000000000000001
1746648230408848068,0.029
1746648230416535189,0.041
1746648230424222310,0.044
1746648230431909431,0.046
1746648230439596616,0.066,78,776
1746648230447283737,0.081
1746648230454970858,0.078
1746648230462657979,0.064
1746648230470345100,0.051000000000000004
1746648230478032221,0.029
1746648230485719342,-0.004
1746648230493406463,-0.046
1746648230501093584,-0.078
1746648230508780705,-0.11
1746648230516467826,-0.133
1746648230524154947,-0.135
1746648230531842068,-0.138
1746648230539529189,-0.145
1746648230547216310,-0.14
1746648230554903431,-0.14
1746648230562590552,-0.138
1746648230570277673,-0.13
1746648230577964794,-0.13
1746648230585651915,-0.128
1746648230593339036,-0.12
1746648230601026157,-0.12
1746648230608713278,-0.12
1746648230616400399,-0.11800000000000001
1746648230624087520,-0.11800000000000001
1746648230631774641,-0.113
1746648230639461762,-0.108
1746648230647148883,-0.11
1746648230654836004,-0.11800000000000001
1746648230662523125,-0.125
1746648230670210246,-0.123
1746648230677897367,-0.115
1746648230685584488,-0.11
1746648230693271609,-0.11800000000000001
1746648230700958730,-0.12
1746648230708645851,-0.113
1746648230716332972,-0.113
1746648230724020093,-0.115
1746648230731707214,-0.108
1746648230739394335,-0.113
1746648230747081456,-0.113
1746648230754768577,-0.106
1746648230762455698,-0.098
1746648230770142819,-0.091
1746648230777829940,-0.091
1746648230785517061,-0.101
1746648230793204182,-0.096
1746648230800891303,-0.088
1746648230808578424,-0.11
1746648230816265545,-0.13
1746648230823952666,-0.11800000000000001
1746648230831639787,-0.101
1746648230839326908,-0.098
1746648230847014029,-0.08600000000000001
1746648230854701150,-0.066
1746648230862388271,-0.056
1746648230870075392,-0.044
1746648230877762513,-0.034
1746648230885449634,-0.051000000000000004
1746648230893136755,-0.07100000000000001
1746648230900823876,-0.076
1746648230908510997,-0.078
1746648230916198118,-0.073
1746648230923885239,-0.066
1746648230931572360,-0.073
1746648230939259481,-0.083
1746648230946946602,-0.081
1746648230954633723,-0.096
1746648230962320844,-0.019
1746648230970007965,0.335
1746648230977695086,0.715
1746648230985382207,0.5
1746648230993069328,-0.187
1746648231000756513,-0.493
1746648231008443704,-0.295
1746648231016130895,-0.202
1746648231023818086,-0.231
1746648231031505277,-0.135
1746648231039192468,-0.069
1746648231046879659,-0.106
1746648231054566850,-0.101
1746648231062254041,-0.069
1746648231069941232,-0.07100000000000001
1746648231077628423,-0.059000000000000004
1746648231085315614,-0.046
1746648231093002805,-0.066
1746648231100689996,-0.076
1746648231108377187,-0.054
1746648231116064378,-0.029
1746648231123751569,-0.022
1746648231131438760,-0.024
1746648231139125951,-0.019
1746648231146813142,-0.004
1746648231154500333,0.004
1746648231162187524,0.017
1746648231169874715,0.034
1746648231177561906,0.044
1746648231185249097,0.051000000000000004
1746648231192936288,0.076
1746648231200623479,0.098
1746648231208310670,0.098
1746648231215997861,0.10300000000000001
1746648231223685052,0.11
1746648231231372243,0.098
1746648231239059434,0.083
1746648231246746625,0.076
1746648231254433816,0.049
1746648231262121007,-0.009000000000000001
1746648231269808198,-0.056
1746648231277495389,-0.08600000000000001
1746648231285182580,-0.12
1746648231292869771,-0.147
1746648231300556962,-0.155
1746648231308244153,-0.152
1746648231315931344,-0.155
1746648231323618535,-0.167
1746648231331305726,-0.17200000000000001
1746648231338992917,-0.162
1746648231346680108,-0.147
1746648231354367299,-0.145
1746648231362054490,-0.14300000000000002
1746648231369741681,-0.135
1746648231377428872,-0.13
1746648231385116063,-0.125
1746648231392803254,-0.11800000000000001
1746648231400490445,-0.12
1746648231408177636,-0.123
1746648231415864827,-0.12
1746648231423552018,-0.12
1746648231431239209,-0.123
1746648231438926400,-0.125
1746648231446613591,-0.125
1746648231454300782,-0.128
1746648231461987973,-0.128
1746648231469675164,-0.125
1746648231477362355,-0.125
1746648231485049546,-0.123
1746648231492736737,-0.13
1746648231500423928,-0.138
1746648231508111119,-0.125
1746648231515798310,-0.113
1746648231523485501,-0.11800000000000001
1746648231531172692,-0.11800000000000001
1746648231538859883,-0.11
1746648231546547074,-0.11
1746648231554234265,-0.12
1746648231561921501,-0.12,78,769
1746648231569608692,-0.113
1746648231577295883,-0.12
1746648231584983074,-0.13
1746648231592670265,-0.123
1746648231600357456,-0.11
1746648231608044647,-0.093
1746648231615731838,-0.083
1746648231623419029,-0.093
1746648231631106220,-0.093
1746648231638793411,-0.078
1746648231646480602,-0.091
1746648231654167793,-0.11
1746648231661854984,-0.10300000000000001
1746648231669542175,-0.08600000000000001
1746648231677229366,-0.098
1746648231684916557,-0.108
1746648231692603748,-0.091
1746648231700290939,-0.083
1746648231707978130,-0.11800000000000001
1746648231715665321,-0.11800000000000001
1746648231723352512,0.096
1746648231731039703,0.527
1746648231738726894,0.668
1746648231746414085,0.14
1746648231754101276,-0.466
1746648231761788467,-0.48
1746648231769475658,-0.258
1746648231777162849,-0.244
1746648231784850040,-0.212
1746648231792537231,-0.088
1746648231800224422,-0.066
1746648231807911613,-0.093
1746648231815598804,-0.076
1746648231823285995,-0.059000000000000004
1746648231830973186,-0.051000000000000004
1746648231838660377,-0.039
1746648231846347568,-0.046
1746648231854034759,-0.051000000000000004
1746648231861721950,-0.034
1746648231869409141,-0.027
1746648231877096332,-0.036000000000000004
1746648231884783523,-0.034
1746648231892470714,-0.017
1746648231900157905,-0.002
1746648231907845096,0.007
1746648231915532287,0.019
1746648231923219478,0.029
1746648231930906669,0.027
1746648231938593860,0.039
1746648231946281051,0.07100000000000001
1746648231953968242,0.088
1746648231961655433,0.096
1746648231969342624,0.11
1746648231977029815,0.12
1746648231984717006,0.11800000000000001
1746648231992404197,0.11
1746648232000091388,0.098
1746648232007778579,0.064
1746648232015465770,0.017
1746648232023152961,-0.019
1746648232030840152,-0.059000000000000004
1746648232038527343,-0.11
1746648232046214534,-0.15
1746648232053901725,-0.157
1746648232061588916,-0.162
1746648232069276107,-0.17200000000000001
1746648232076963298,-0.17500000000000002
1746648232084650489,-0.162
1746648232092337680,-0.155
1746648232100024871,-0.152
1746648232107712062,-0.145
1746648232115399253,-0.128
1746648232123086485,-0.128
1746648232130773676,-0.133
1746648232138460867,-0.125
1746648232146148058,-0.11800000000000001
1746648232153835249,-0.108
1746648232161522440,-0.101
1746648232169209631,-0.108
1746648232176896822,-0.12
1746648232184584013,-0.12
1746648232192271204,-0.113
1746648232199958395,-0.113
1746648232207645586,-0.12
1746648232215332777,-0.11800000000000001
1746648232223019968,-0.123
1746648232230707159,-0.14
1746648232238394350,-0.14300000000000002
1746648232246081541,-0.125
1746648232253768732,-0.125
1746648232261455923,-0.135
1746648232269143114,-0.128
1746648232276830305,-0.123
1746648232284517496,-0.123
1746648232292204687,-0.115
1746648232299891878,-0.115
1746648232307579069,-0.123
1746648232315266260,-0.12
1746648232322953451,-0.11800000000000001
1746648232330640642,-0.115
1746648232338327833,-0.115
1746648232346015024,-0.11800000000000001
1746648232353702215,-0.125
1746648232361389406,-0.133
1746648232369076597,-0.128
1746648232376763788,-0.11800000000000001
1746648232384450979,-0.108
1746648232392138170,-0.098
1746648232399825361,-0.083
1746648232407512552,-0.07100000000000001
1746648232415199743,-0.076
1746648232422886934,-0.096
1746648232430574125,-0.106
1746648232438261316,-0.10300000000000001
1746648232445948507,-0.10300000000000001
1746648232453635698,-0.101
1746648232461322889,-0.091
1746648232469010080,-0.091
1746648232476697271,-0.101
1746648232484384462,-0.138
1746648232492071653,-0.11800000000000001
1746648232499758844,0.17200000000000001
1746648232507446035,0.643
1746648232515133226,0.712
1746648232522820417,0.138
1746648232530507608,-0.399
1746648232538194799,-0.377
1746648232545881990,-0.221
1746648232553569181,-0.241
1746648232561256372,-0.214
1746648232568943563,-0.125
1746648232576630754,-0.12
1746648232584317945,-0.13
1746648232592005136,-0.108
1746648232599692327,-0.098
1746648232607379518,-0.096
1746648232615066709,-0.088
1746648232622753900,-0.088
1746648232630441091,-0.078
1746648232638128282,-0.066
1746648232645815473,-0.069
1746648232653502664,-0.073
1746648232661189855,-0.064
1746648232668877046,-0.051000000000000004
1746648232676564237,-0.049
1746648232684251469,-0.054,78,783
1746648232691938799,-0.054,,775
1746648232699626129,-0.039
1746648232707313459,-0.012
1746648232715000789,0.004
1746648232722688119,0.019
1746648232730375449,0.039
1746648232738062779,0.051000000000000004
1746648232745750109,0.054
1746648232753437439,0.056
1746648232761124769,0.059000000000000004
1746648232768812099,0.061
1746648232776499429,0.061
1746648232784186759,0.039
1746648232791874089,-0.007
1746648232799561419,-0.044
1746648232807248749,-0.069
1746648232814936079,-0.098
1746648232822623409,-0.13
1746648232830310739,-0.14300000000000002
1746648232837998069,-0.14300000000000002
1746648232845685399,-0.152
1746648232853372729,-0.155
1746648232861060059,-0.14300000000000002
1746648232868747389,-0.135
1746648232876434719,-0.133
1746648232884122049,-0.125
1746648232891809379,-0.13
1746648232899496709,-0.14300000000000002
1746648232907184039,-0.15
1746648232914871369,-0.155
1746648232922558699,-0.157
1746648232930246029,-0.145
1746648232937933359,-0.138
1746648232945620689,-0.13
1746648232953308019,-0.123
1746648232960995349,-0.11800000000000001
1746648232968682679,-0.115
1746648232976370009,-0.11800000000000001
1746648232984057339,-0.113
1746648232991744669,-0.11
1746648232999431999,-0.11800000000000001
1746648233007119329,-0.13
1746648233014806659,-0.13
1746648233022493989,-0.123
1746648233030181319,-0.115
1746648233037868649,-0.11
1746648233045555979,-0.108
1746648233053243309,-0.113
1746648233060930639,-0.115
1746648233068617969,-0.113
1746648233076305299,-0.106
1746648233083992629,-0.10300000000000001
1746648233091679959,-0.106
1746648233099367289,-0.10300000000000001
1746648233107054619,-0.098
1746648233114741949,-0.093
1746648233122429279,-0.091
1746648233130116609,-0.098
1746648233137803939,-0.11
1746648233145491269,-0.113
1746648233153178599,-0.098
1746648233160865929,-0.083
1746648233168553259,-0.076
1746648233176240589,-0.069
1746648233183927919,-0.056
1746648233191615249,-0.061
1746648233199302579,-0.083
1746648233206989909,-0.083
1746648233214677239,-0.069
1746648233222364569,-0.073
1746648233230051899,-0.098
1746648233237739229,-0.113
1746648233245426623,-0.098
1746648233253113744,-0.096
1746648233260800865,-0.13
1746648233268487986,-0.091
1746648233276175107,0.20700000000000002
1746648233283862228,0.65
1746648233291549349,0.67
1746648233299236470,0.076
1746648233306923591,-0.421
1746648233314610712,-0.357
1746648233322297833,-0.197
1746648233329984954,-0.212
1746648233337672075,-0.16
1746648233345359196,-0.066
1746648233353046317,-0.076
1746648233360733438,-0.096
1746648233368420559,-0.07100000000000001
1746648233376107680,-0.07100000000000001
1746648233383794801,-0.088
1746648233391481922,-0.078
1746648233399169043,-0.064
1746648233406856164,-0.061
1746648233414543285,-0.064
1746648233422230406,-0.051000000000000004
1746648233429917527,-0.029
1746648233437604648,-0.027
1746648233445291769,-0.029
1746648233452978890,-0.009000000000000001
1746648233460666011,0.007
1746648233468353132,0.014
1746648233476040253,0.039
1746648233483727374,0.054
1746648233491414495,0.051000000000000004
1746648233499101616,0.073
1746648233506788737,0.101
1746648233514475858,0.11
1746648233522162979,0.115
1746648233529850100,0.123
1746648233537537221,0.12
1746648233545224342,0.113
1746648233552911463,0.093
1746648233560598584,0.056
1746648233568285705,0.019
1746648233575972826,-0.014
1746648233583659947,-0.059000000000000004
1746648233591347068,-0.091
1746648233599034189,-0.106
1746648233606721310,-0.128
1746648233614408431,-0.145
1746648233622095552,-0.15
1746648233629782673,-0.147
1746648233637469794,-0.14300000000000002
1746648233645156915,-0.145
1746648233652844036,-0.15
1746648233660531157,-0.14300000000000002
1746648233668218278,-0.128
1746648233675905399,-0.123
1746648233683592520,-0.13
1746648233691279641,-0.128
1746648233698966762,-0.108
1746648233706653883,-0.096
1746648233714341004,-0.098
1746648233722028125,-0.11
1746648233729715246,-0.115
1746648233737402367,-0.113
1746648233745089488,-0.11800000000000001
1746648233752776609,-0.12
1746648233760463730,-0.108
1746648233768150851,-0.106
1746648233775837972,-0.106
1746648233783525093,-0.096
1746648233791212214,-0.101
1746648233798899335,-0.11800000000000001
1746648233806586520,-0.12,78,758
1746648233814273641,-0.106
1746648233821960762,-0.096
1746648233829647883,-0.10300000000000001
1746648233837335004,-0.11
1746648233845022125,-0.106
1746648233852709246,-0.091
1746648233860396367,-0.083
1746648233868083488,-0.091
1746648233875770609,-0.096
1746648233883457730,-0.091
1746648233891144851,-0.101
1746648233898831972,-0.11800000000000001
1746648233906519093,-0.115
1746648233914206214,-0.098
1746648233921893335,-0.083
1746648233929580456,-0.07100000000000001
1746648233937267577,-0.056
1746648233944954698,-0.044
1746648233952641819,-0.051000000000000004
1746648233960328940,-0.069
1746648233968016061,-0.064
1746648233975703182,-0.059000000000000004
1746648233983390303,-0.078
1746648233991077424,-0.081
1746648233998764545,-0.066
1746648234006451666,-0.069
1746648234014138787,-0.073
1746648234021825908,-0.081
1746648234029513029,-0.093
1746648234037200150,0.054
1746648234044887271,0.468
1746648234052574392,0.739
1746648234060261513,0.33
1746648234067948634,-0.367
1746648234075635755,-0.517
1746648234083322876,-0.266
1746648234091009997,-0.20400000000000001
1746648234098697118,-0.219
1746648234106384239,-0.106
1746648234114071360,-0.041
1746648234121758481,-0.066
1746648234129445602,-0.061
1746648234137132723,-0.032
1746648234144819844,-0.024
1746648234152506965,-0.036000000000000004
1746648234160194086,-0.044
1746648234167881207,-0.022
1746648234175568328,-0.004
1746648234183255449,-0.014
1746648234190942570,-0.019
1746648234198629691,-0.012
1746648234206316812,-0.004
1746648234214003933,0.004
1746648234221691054,0.014
1746648234229378175,0.029
1746648234237065296,0.044
1746648234244752417,0.054
1746648234252439538,0.061
1746648234260126659,0.076
1746648234267813780,0.088
1746648234275500901,0.106
1746648234283188022,0.115
1746648234290875143,0.115
1746648234298562264,0.115
1746648234306249385,0.113
1746648234313936506,0.098
1746648234321623627,0.081
1746648234329310748,0.039
1746648234336997869,-0.022
1746648234344684990,-0.061
1746648234352372111,-0.083
1746648234360059232,-0.12
1746648234367746421,-0.152,78,775
1746648234375433542,-0.167
1746648234383120663,-0.18
1746648234390807784,-0.18
1746648234398494905,-0.17
1746648234406182026,-0.167
1746648234413869147,-0.167
1746648234421556268,-0.155
1746648234429243389,-0.145
1746648234436930510,-0.145
1746648234444617631,-0.138
1746648234452304752,-0.125
1746648234459991873,-0.11800000000000001
1746648234467678994,-0.11800000000000001
1746648234475366115,-0.113
1746648234483053236,-0.106
1746648234490740357,-0.108
1746648234498427478,-0.115
1746648234506114599,-0.108
1746648234513801720,-0.106
1746648234521488841,-0.12
1746648234529175962,-0.128
1746648234536863083,-0.125
1746648234544550204,-0.123
1746648234552237325,-0.11800000000000001
1746648234559924446,-0.11800000000000001
1746648234567611567,-0.123
1746648234575298688,-0.123
1746648234582985809,-0.12
1746648234590672930,-0.125
1746648234598360051,-0.123
1746648234606047172,-0.113
1746648234613734293,-0.108
1746648234621421414,-0.115
1746648234629108535,-0.115
1746648234636795656,-0.106
1746648234644482777,-0.106
1746648234652169898,-0.106
1746648234659857019,-0.098
1746648234667544140,-0.098
1746648234675231261,-0.101
1746648234682918382,-0.101
1746648234690605503,-0.106
1746648234698292624,-0.101
1746648234705979745,-0.093
1746648234713666866,-0.11
1746648234721353987,-0.12
1746648234729041108,-0.098
1746648234736728229,-0.088
1746648234744415350,-0.096
1746648234752102471,-0.093
1746648234759789592,-0.076
1746648234767476713,-0.066
1746648234775163834,-0.066
1746648234782850955,-0.078
1746648234790538076,-0.093
1746648234798225197,-0.088
1746648234805912318,-0.088
1746648234813599439,-0.098
1746648234821286560,-0.098
1746648234828973681,-0.091
1746648234836660802,-0.101
1746648234844347923,-0.135
1746648234852035044,-0.15
1746648234859722165,0.019
1746648234867409286,0.468
1746648234875096407,0.784
1746648234882783528,0.453
1746648234890470649,-0.20400000000000001
1746648234898157770,-0.41600000000000004
1746648234905844891,-0.241
1746648234913532012,-0.20700000000000002
1746648234921219133,-0.231
1746648234928906318,-0.152
1746648234936593439,-0.128
1746648234944280560,-0.145
1746648234951967681,-0.123
1746648234959654802,-0.098
1746648234967341923,-0.096
1746648234975029044,-0.093
1746648234982716165,-0.083
1746648234990403286,-0.076
1746648234998090407,-0.073
1746648235005777528,-0.069
1746648235013464649,-0.059000000000000004
1746648235021151770,-0.059000000000000004
1746648235028838891,-0.07100000000000001
1746648235036526012,-0.083
1746648235044213133,-0.081
1746648235051900254,-0.066
1746648235059587375,-0.044
1746648235067274496,-0.032
1746648235074961617,-0.027
1746648235082648738,-0.022
1746648235090335859,-0.014
1746648235098022980,-0.012
1746648235105710101,-0.002
1746648235113397222,0.019
1746648235121084343,0.044
1746648235128771464,0.059000000000000004
1746648235136458585,0.059000000000000004
1746648235144145706,0.046
1746648235151832827,0.027
1746648235159519948,-0.004
1746648235167207069,-0.046
1746648235174894190,-0.08600000000000001
1746648235182581311,-0.11
1746648235190268432,-0.12
1746648235197955553,-0.125
1746648235205642674,-0.135
1746648235213329795,-0.138
1746648235221016916,-0.138
1746648235228704037,-0.13
1746648235236391158,-0.12
1746648235244078279,-0.11800000000000001
1746648235251765400,-0.123
1746648235259452521,-0.125
1746648235267139642,-0.11800000000000001
1746648235274826763,-0.11
1746648235282513884,-0.113
1746648235290201005,-0.115
1746648235297888126,-0.113
1746648235305575247,-0.108
1746648235313262368,-0.108
1746648235320949489,-0.106
1746648235328636610,-0.106
1746648235336323731,-0.108
1746648235344010852,-0.11
1746648235351697973,-0.108
1746648235359385094,-0.106
1746648235367072215,-0.11
1746648235374759336,-0.115
1746648235382446457,-0.106
1746648235390133578,-0.108
1746648235397820699,-0.113
1746648235405507820,-0.10300000000000001
1746648235413194941,-0.098
1746648235420882062,-0.10300000000000001
1746648235428569183,-0.108
1746648235436256304,-0.106
1746648235443943425,-0.101
1746648235451630546,-0.091
1746648235459317667,-0.08600000000000001
1746648235467004788,-0.093
1746648235474691909,-0.096
1746648235482379030,-0.091
1746648235490066215,-0.08600000000000001,78,775
1746648235497753127,-0.08600000000000001
1746648235505440039,-0.081
1746648235513126951,-0.073
1746648235520813863,-0.088
1746648235528500775,-0.113
1746648235536187687,-0.11
1746648235543874599,-0.091
1746648235551561511,-0.08600000000000001
1746648235559248423,-0.083
1746648235566935335,-0.07100000000000001
1746648235574622247,-0.054
1746648235582309159,-0.049
1746648235589996071,-0.061
1746648235597682983,-0.078
1746648235605369895,-0.083
1746648235613056807,-0.08600000000000001
1746648235620743719,-0.091
1746648235628430631,-0.113
1746648235636117543,-0.152
1746648235643804455,-0.162
1746648235651491367,-0.152
1746648235659178279,-0.167
1746648235666865191,-0.051000000000000004
1746648235674552103,0.357
1746648235682239015,0.724
1746648235689925927,0.485
1746648235697612839,-0.17500000000000002
1746648235705299751,-0.446
1746648235712986663,-0.249
1746648235720673575,-0.16
1746648235728360487,-0.199
1746648235736047399,-0.125
1746648235743734311,-0.069
1746648235751421223,-0.08600000000000001
1746648235759108135,-0.076
1746648235766795047,-0.049
1746648235774481959,-0.046
1746648235782168871,-0.046
1746648235789855783,-0.041
1746648235797542695,-0.036000000000000004
1746648235805229607,-0.029
1746648235812916519,-0.019
1746648235820603431,-0.012
1746648235828290343,-0.012
1746648235835977255,-0.012
1746648235843664167,-0.007
1746648235851351079,-0.002
1746648235859037991,0.002
1746648235866724903,0.014
1746648235874411815,0.032
1746648235882098727,0.049
1746648235889785639,0.064
1746648235897472551,0.081
1746648235905159463,0.106
1746648235912846375,0.12
1746648235920533287,0.11800000000000001
1746648235928220199,0.11800000000000001
1746648235935907111,0.125
1746648235943594023,0.108
1746648235951280935,0.064
1746648235958967847,0.034
1746648235966654759,0.014
1746648235974341671,-0.029
1746648235982028583,-0.069
1746648235989715495,-0.088
1746648235997402407,-0.11
1746648236005089319,-0.133
1746648236012776231,-0.138
1746648236020463143,-0.135
1746648236028150055,-0.135
1746648236035836967,-0.125
1746648236043523879,-0.115
1746648236051210855,-0.113
1746648236058897767,-0.113
1746648236066584679,-0.10300000000000001
1746648236074271591,-0.101
1746648236081958503,-0.106
1746648236089645415,-0.096
1746648236097332327,-0.091
1746648236105019239,-0.096
1746648236112706151,-0.083
1746648236120393063,-0.078
1746648236128079975,-0.083
1746648236135766887,-0.093
1746648236143453799,-0.098
1746648236151140711,-0.091
1746648236158827623,-0.088
1746648236166514535,-0.11
1746648236174201447,-0.11800000000000001
1746648236181888359,-0.106
1746648236189575271,-0.098
1746648236197262183,-0.08600000000000001
1746648236204949095,-0.076
1746648236212636007,-0.088
1746648236220322919,-0.098
1746648236228009831,-0.081
1746648236235696743,-0.07100000000000001
1746648236243383655,-0.073
1746648236251070567,-0.076
1746648236258757479,-0.073
1746648236266444391,-0.073
1746648236274131303,-0.064
1746648236281818215,-0.054
1746648236289505127,-0.069
1746648236297192039,-0.07100000000000001
1746648236304878951,-0.051000000000000004
1746648236312565863,-0.056
1746648236320252775,-0.081
1746648236327939687,-0.069
1746648236335626599,-0.046
1746648236343313511,-0.054
1746648236351000423,-0.051000000000000004
1746648236358687335,-0.029
1746648236366374247,-0.029
1746648236374061159,-0.046
1746648236381748071,-0.054
1746648236389434983,-0.049
1746648236397121895,-0.059000000000000004
1746648236404808807,-0.073
1746648236412495719,-0.07100000000000001
1746648236420182631,-0.061
1746648236427869543,-0.056
1746648236435556455,-0.07100000000000001
1746648236443243367,-0.061
1746648236450930279,0.165
1746648236458617191,0.613
1746648236466304103,0.72
1746648236473991015,0.128
1746648236481677927,-0.47300000000000003
1746648236489364839,-0.441
1746648236497051751,-0.209
1746648236504738663,-0.221
1746648236512425575,-0.20400000000000001
1746648236520112487,-0.07100000000000001
1746648236527799399,-0.039
1746648236535486311,-0.059000000000000004
1746648236543173223,-0.034
1746648236550860135,-0.017
1746648236558547047,-0.032
1746648236566233959,-0.036000000000000004
1746648236573920871,-0.024
1746648236581607783,-0.017
1746648236589294695,-0.009000000000000001
1746648236596981607,-0.009000000000000001
1746648236604668519,-0.009000000000000001
1746648236612355491,0.004,78,765
1746648236620042612,0.012,,823
1746648236627729733,0.007
1746648236635416854,0.022
1746648236643103975,0.049
1746648236650791096,0.051000000000000004
1746648236658478217,0.049
1746648236666165338,0.066
1746648236673852459,0.08600000000000001
1746648236681539580,0.098
1746648236689226701,0.123
1746648236696913822,0.14300000000000002
1746648236704600943,0.147
1746648236712288064,0.15
1746648236719975185,0.138
1746648236727662306,0.106
1746648236735349427,0.07100000000000001
1746648236743036548,0.024
1746648236750723669,-0.024
1746648236758410790,-0.059000000000000004
1746648236766097911,-0.096
1746648236773785032,-0.138
1746648236781472153,-0.162
1746648236789159274,-0.165
1746648236796846395,-0.17
1746648236804533516,-0.182
1746648236812220637,-0.182
1746648236819907758,-0.167
1746648236827594879,-0.157
1746648236835282000,-0.152
1746648236842969121,-0.145
1746648236850656242,-0.147
1746648236858343363,-0.147
1746648236866030484,-0.14300000000000002
1746648236873717605,-0.135
1746648236881404726,-0.125
1746648236889091847,-0.11800000000000001
1746648236896778968,-0.125
1746648236904466089,-0.12
1746648236912153210,-0.11
1746648236919840331,-0.12
1746648236927527452,-0.133
1746648236935214573,-0.13
1746648236942901694,-0.128
1746648236950588815,-0.133
1746648236958275936,-0.138
1746648236965963057,-0.133
1746648236973650178,-0.123
1746648236981337299,-0.13
1746648236989024420,-0.135
1746648236996711541,-0.128
1746648237004398662,-0.13
1746648237012085783,-0.14
1746648237019772904,-0.133
1746648237027460025,-0.123
1746648237035147146,-0.128
1746648237042834267,-0.125
1746648237050521388,-0.115
1746648237058208509,-0.123
1746648237065895630,-0.12
1746648237073582751,-0.108
1746648237081269872,-0.11
1746648237088956993,-0.115
1746648237096644114,-0.12
1746648237104331235,-0.123
1746648237112018356,-0.128
1746648237119705477,-0.128
1746648237127392598,-0.11800000000000001
1746648237135079719,-0.11
1746648237142766840,-0.108
