time,ecg,hr,rr,marker
1748285901634187295,0.012
1748285901641874416,0.019
1748285901649561537,0.031
1748285901657248658,0.043000000000000003
1748285901664935779,0.053
1748285901672622900,0.058
1748285901680310021,0.065
1748285901687997142,0.08
1748285901695684263,0.09
1748285901703371384,0.10200000000000001
1748285901711058505,0.114
1748285901718745626,0.124
1748285901726432747,0.136
1748285901734119868,0.15
1748285901741806989,0.163
1748285901749494110,0.17500000000000002
1748285901757181231,0.184
1748285901764868352,0.197
1748285901772555473,0.20400000000000001
1748285901780242594,0.20400000000000001
1748285901787929715,0.20400000000000001
1748285901795616836,0.199
1748285901803303957,0.189
1748285901810991078,0.17200000000000001
1748285901818678199,0.14300000000000002
1748285901826365320,0.10200000000000001
1748285901834052441,0.055
1748285901841739562,0.007
1748285901849426683,-0.038
1748285901857113804,-0.07200000000000001
1748285901864800925,-0.097
1748285901872488046,-0.116
1748285901880175167,-0.128
1748285901887862288,-0.131
1748285901895549409,-0.131
1748285901903236530,-0.128
1748285901910923651,-0.124
1748285901918610772,-0.121
1748285901926297893,-0.121
1748285901933985014,-0.114
1748285901941672135,-0.107
1748285901949359256,-0.10200000000000001
1748285901957046377,-0.099
1748285901964733498,-0.099
1748285901972420619,-0.099
1748285901980107740,-0.10200000000000001
1748285901987794861,-0.10200000000000001
1748285901995481982,-0.097
1748285902003169103,-0.099
1748285902010856224,-0.10400000000000001
1748285902018543345,-0.10400000000000001
1748285902026230466,-0.10200000000000001
1748285902033917587,-0.10200000000000001
1748285902041604708,-0.10200000000000001
1748285902049291829,-0.10200000000000001
1748285902056978950,-0.099
1748285902064666071,-0.099
1748285902072353192,-0.094
1748285902080040313,-0.092
1748285902087727434,-0.092
1748285902095414555,-0.092
1748285902103101676,-0.09
1748285902110788797,-0.08700000000000001
1748285902118475918,-0.085
1748285902126163039,-0.082
1748285902133850160,-0.082
1748285902141537281,-0.077
1748285902149224402,-0.077
1748285902156911523,-0.075
1748285902164598644,-0.07200000000000001
1748285902172285765,-0.068
1748285902179972886,-0.065
1748285902187660007,-0.065
1748285902195347192,-0.063,52,1314
1748285902203034313,-0.06
1748285902210721434,-0.06
1748285902218408555,-0.058
1748285902226095676,-0.058
1748285902233782797,-0.058
1748285902241469918,-0.053
1748285902249157039,-0.053
1748285902256844160,-0.053
1748285902264531281,-0.051000000000000004
1748285902272218402,-0.051000000000000004
1748285902279905523,-0.048
1748285902287592644,-0.046
1748285902295279765,-0.048
1748285902302966886,-0.046
1748285902310654007,-0.043000000000000003
1748285902318341128,-0.043000000000000003
1748285902326028249,-0.043000000000000003
1748285902333715370,-0.041
1748285902341402491,-0.038
1748285902349089612,-0.036000000000000004
1748285902356776733,-0.036000000000000004
1748285902364463854,-0.036000000000000004
1748285902372150975,-0.034
1748285902379838096,-0.031
1748285902387525217,-0.031
1748285902395212338,-0.031
1748285902402899459,-0.031
1748285902410586580,-0.031
1748285902418273701,-0.029
1748285902425960822,-0.029
1748285902433647943,-0.029
1748285902441335064,-0.026000000000000002
1748285902449022185,-0.026000000000000002
1748285902456709306,-0.024
1748285902464396427,-0.024
1748285902472083548,-0.024
1748285902479770669,-0.021
1748285902487457790,-0.021
1748285902495144911,-0.021
1748285902502832032,-0.021
1748285902510519153,-0.024
1748285902518206274,-0.024
1748285902525893395,-0.026000000000000002
1748285902533580516,-0.029
1748285902541267637,-0.026000000000000002
1748285902548954758,-0.026000000000000002
1748285902556641879,-0.014
1748285902564329000,0.007
1748285902572016121,0.014
1748285902579703242,0.014
1748285902587390363,0.017
1748285902595077484,0.004
1748285902602764605,-0.017
1748285902610451726,-0.024
1748285902618138847,-0.021
1748285902625825968,-0.024
1748285902633513089,-0.024
1748285902641200210,-0.021
1748285902648887331,-0.026000000000000002
1748285902656574452,-0.046
1748285902664261573,-0.068
1748285902671948694,0.116
1748285902679635815,0.742
1748285902687322936,1.367
1748285902695010057,1.141
1748285902702697178,0.077
1748285902710384299,-0.681
1748285902718071420,-0.508
1748285902725758541,-0.211
1748285902733445662,-0.231
1748285902741132783,-0.165
1748285902748819904,-0.051000000000000004
1748285902756507093,-0.07,52,1292
1748285902764193866,-0.082
1748285902771880639,-0.038
1748285902779567412,-0.031
1748285902787254185,-0.038
1748285902794940958,-0.019
1748285902802627731,-0.009000000000000001
1748285902810314504,-0.009000000000000001
1748285902818001277,0.0
1748285902825688050,0.012
1748285902833374823,0.019
1748285902841061596,0.029
1748285902848748369,0.038
1748285902856435142,0.046
1748285902864121915,0.055
1748285902871808688,0.065
1748285902879495461,0.075
1748285902887182234,0.08700000000000001
1748285902894869007,0.099
1748285902902555780,0.111
1748285902910242553,0.124
1748285902917929326,0.136
1748285902925616099,0.148
1748285902933302872,0.165
1748285902940989645,0.18
1748285902948676418,0.192
1748285902956363191,0.20400000000000001
1748285902964049964,0.214
1748285902971736737,0.218
1748285902979423510,0.221
1748285902987110283,0.218
1748285902994797056,0.211
1748285903002483829,0.197
1748285903010170602,0.17200000000000001
1748285903017857375,0.136
1748285903025544148,0.092
1748285903033230921,0.041
1748285903040917694,-0.004
1748285903048604467,-0.048
1748285903056291240,-0.085
1748285903063978013,-0.109
1748285903071664786,-0.124
1748285903079351559,-0.131
1748285903087038332,-0.136
1748285903094725105,-0.133
1748285903102411878,-0.131
1748285903110098651,-0.124
1748285903117785424,-0.11900000000000001
1748285903125472197,-0.114
1748285903133158970,-0.111
1748285903140845743,-0.107
1748285903148532516,-0.10200000000000001
1748285903156219289,-0.099
1748285903163906062,-0.099
1748285903171592835,-0.099
1748285903179279608,-0.094
1748285903186966381,-0.097
1748285903194653154,-0.099
1748285903202339927,-0.099
1748285903210026700,-0.099
1748285903217713473,-0.099
1748285903225400246,-0.099
1748285903233087019,-0.097
1748285903240773792,-0.097
1748285903248460565,-0.094
1748285903256147338,-0.092
1748285903263834111,-0.092
1748285903271520884,-0.09
1748285903279207657,-0.08700000000000001
1748285903286894430,-0.085
1748285903294581203,-0.082
1748285903302267976,-0.082
1748285903309954749,-0.077
1748285903317641559,-0.075
1748285903325328750,-0.07200000000000001
1748285903333015941,-0.07200000000000001
1748285903340703132,-0.068
1748285903348390323,-0.065
1748285903356077514,-0.063
1748285903363764705,-0.063
1748285903371451896,-0.063
1748285903379139087,-0.06
1748285903386826278,-0.058
1748285903394513469,-0.058
1748285903402200660,-0.058
1748285903409887851,-0.055
1748285903417575042,-0.051000000000000004
1748285903425262233,-0.051000000000000004
1748285903432949424,-0.051000000000000004
1748285903440636615,-0.048
1748285903448323806,-0.043000000000000003
1748285903456010997,-0.043000000000000003
1748285903463698188,-0.041
1748285903471385379,-0.038
1748285903479072570,-0.038
1748285903486759761,-0.036000000000000004
1748285903494446952,-0.034
1748285903502134143,-0.034
1748285903509821334,-0.036000000000000004
1748285903517508525,-0.034
1748285903525195716,-0.029
1748285903532882907,-0.029
1748285903540570098,-0.029
1748285903548257289,-0.029
1748285903555944480,-0.026000000000000002
1748285903563631671,-0.026000000000000002
1748285903571318862,-0.024
1748285903579006053,-0.026000000000000002
1748285903586693244,-0.026000000000000002
1748285903594380435,-0.024
1748285903602067626,-0.024
1748285903609754817,-0.024
1748285903617442008,-0.024
1748285903625129199,-0.021
1748285903632816390,-0.021
1748285903640503581,-0.021
1748285903648190772,-0.019
1748285903655877963,-0.019
1748285903663565154,-0.019
1748285903671252345,-0.017
1748285903678939536,-0.017
1748285903686626727,-0.019
1748285903694313918,-0.019
1748285903702001109,-0.017
1748285903709688300,-0.017
1748285903717375491,-0.017
1748285903725062682,-0.017
1748285903732749873,-0.017
1748285903740437064,-0.017
1748285903748124255,-0.014
1748285903755811446,-0.014
1748285903763498637,-0.017
1748285903771185828,-0.021
1748285903778873019,-0.026000000000000002
1748285903786560210,-0.024
1748285903794247401,-0.019
1748285903801934592,-0.009000000000000001
1748285903809621783,0.009000000000000001
1748285903817308974,0.017
1748285903824996165,0.012
1748285903832683356,0.017
1748285903840370547,0.007
1748285903848057738,-0.017
1748285903855744929,-0.024
1748285903863432120,-0.021
1748285903871119311,-0.024
1748285903878806543,-0.024,51,1291
1748285903886493734,-0.021
1748285903894180925,-0.024
1748285903901868116,-0.048
1748285903909555307,-0.082
1748285903917242498,0.082
1748285903924929689,0.683
1748285903932616880,1.333
1748285903940304071,1.214
1748285903947991262,0.226
1748285903955678453,-0.591
1748285903963365644,-0.501
1748285903971052835,-0.194
1748285903978740026,-0.20400000000000001
1748285903986427217,-0.17200000000000001
1748285903994114408,-0.07
1748285904001801599,-0.085
1748285904009488790,-0.099
1748285904017175981,-0.06
1748285904024863172,-0.048
1748285904032550363,-0.053
1748285904040237554,-0.038
1748285904047924745,-0.029
1748285904055611936,-0.024
1748285904063299127,-0.014
1748285904070986318,-0.004
1748285904078673509,0.002
1748285904086360700,0.009000000000000001
1748285904094047891,0.019
1748285904101735082,0.026000000000000002
1748285904109422273,0.034
1748285904117109464,0.043000000000000003
1748285904124796655,0.055
1748285904132483846,0.063
1748285904140171037,0.07200000000000001
1748285904147858228,0.082
1748285904155545419,0.094
1748285904163232610,0.10400000000000001
1748285904170919801,0.116
1748285904178606992,0.128
1748285904186294183,0.14100000000000001
1748285904193981374,0.153
1748285904201668565,0.163
1748285904209355756,0.17
1748285904217042947,0.17200000000000001
1748285904224730138,0.17500000000000002
1748285904232417329,0.17200000000000001
1748285904240104520,0.165
1748285904247791711,0.155
1748285904255478902,0.136
1748285904263166093,0.10400000000000001
1748285904270853284,0.063
1748285904278540475,0.017
1748285904286227666,-0.029
1748285904293914857,-0.07200000000000001
1748285904301602048,-0.107
1748285904309289239,-0.133
1748285904316976430,-0.153
1748285904324663621,-0.167
1748285904332350812,-0.17200000000000001
1748285904340038003,-0.17
1748285904347725194,-0.17
1748285904355412385,-0.17
1748285904363099576,-0.167
1748285904370786767,-0.165
1748285904378473958,-0.165
1748285904386161149,-0.163
1748285904393848340,-0.163
1748285904401535531,-0.163
1748285904409222722,-0.163
1748285904416909913,-0.163
1748285904424597104,-0.165
1748285904432284295,-0.167
1748285904439971527,-0.17
1748285904447658439,-0.17200000000000001
1748285904455345351,-0.17500000000000002
1748285904463032263,-0.177
1748285904470719175,-0.177
1748285904478406087,-0.177
1748285904486092999,-0.18
1748285904493779911,-0.182
1748285904501466823,-0.182
1748285904509153735,-0.18
1748285904516840647,-0.18
1748285904524527559,-0.182
1748285904532214471,-0.182
1748285904539901383,-0.18
1748285904547588295,-0.18
1748285904555275207,-0.18
1748285904562962119,-0.18
1748285904570649031,-0.177
1748285904578335943,-0.17500000000000002
1748285904586022855,-0.17500000000000002
1748285904593709767,-0.17500000000000002
1748285904601396679,-0.17500000000000002
1748285904609083591,-0.17200000000000001
1748285904616770503,-0.17200000000000001
1748285904624457415,-0.17
1748285904632144327,-0.17
1748285904639831239,-0.17
1748285904647518151,-0.17
1748285904655205063,-0.17
1748285904662891975,-0.17200000000000001
1748285904670578887,-0.17
1748285904678265799,-0.17
1748285904685952711,-0.167
1748285904693639623,-0.167
1748285904701326535,-0.17
1748285904709013447,-0.17
1748285904716700359,-0.167
1748285904724387271,-0.167
1748285904732074183,-0.165
1748285904739761095,-0.165
1748285904747448007,-0.165
1748285904755134919,-0.165
1748285904762821831,-0.165
1748285904770508743,-0.165
1748285904778195655,-0.163
1748285904785882567,-0.163
1748285904793569479,-0.163
1748285904801256391,-0.163
1748285904808943303,-0.165
1748285904816630215,-0.163
1748285904824317127,-0.163
1748285904832004039,-0.163
1748285904839690951,-0.165
1748285904847377863,-0.17
1748285904855064775,-0.17200000000000001
1748285904862751687,-0.17
1748285904870438599,-0.163
1748285904878125511,-0.15
1748285904885812423,-0.131
1748285904893499335,-0.126
1748285904901186247,-0.128
1748285904908873159,-0.126
1748285904916560071,-0.138
1748285904924246983,-0.16
1748285904931933895,-0.165
1748285904939620807,-0.163
1748285904947307719,-0.163
1748285904954994631,-0.163
1748285904962681543,-0.158
1748285904970368455,-0.16
1748285904978055367,-0.187
1748285904985742279,-0.20600000000000002
1748285904993429191,0.017
1748285905001116163,0.676,51,1197
1748285905008803284,1.26
1748285905016490405,0.9480000000000001
1748285905024177526,-0.116
1748285905031864647,-0.781
1748285905039551768,-0.5640000000000001
1748285905047238889,-0.304
1748285905054926010,-0.33
1748285905062613131,-0.257
1748285905070300252,-0.165
1748285905077987373,-0.189
1748285905085674494,-0.187
1748285905093361615,-0.148
1748285905101048736,-0.14100000000000001
1748285905108735857,-0.14100000000000001
1748285905116422978,-0.121
1748285905124110099,-0.109
1748285905131797220,-0.10200000000000001
1748285905139484341,-0.092
1748285905147171462,-0.08
1748285905154858583,-0.068
1748285905162545704,-0.055
1748285905170232825,-0.043000000000000003
1748285905177919946,-0.034
1748285905185607067,-0.021
1748285905193294188,-0.007
1748285905200981309,0.004
1748285905208668430,0.014
1748285905216355551,0.026000000000000002
1748285905224042672,0.041
1748285905231729793,0.053
1748285905239416914,0.068
1748285905247104035,0.085
1748285905254791156,0.099
1748285905262478277,0.11900000000000001
1748285905270165398,0.136
1748285905277852519,0.15
1748285905285539640,0.158
1748285905293226761,0.163
1748285905300913882,0.165
1748285905308601003,0.165
1748285905316288124,0.158
1748285905323975245,0.14300000000000002
1748285905331662366,0.116
1748285905339349487,0.077
1748285905347036608,0.029
1748285905354723729,-0.019
1748285905362410850,-0.063
1748285905370097971,-0.10200000000000001
1748285905377785092,-0.131
1748285905385472213,-0.15
1748285905393159334,-0.163
1748285905400846455,-0.165
1748285905408533576,-0.165
1748285905416220697,-0.158
1748285905423907818,-0.153
1748285905431594939,-0.15
1748285905439282060,-0.145
1748285905446969181,-0.14300000000000002
1748285905454656302,-0.136
1748285905462343423,-0.128
1748285905470030544,-0.126
1748285905477717665,-0.124
1748285905485404786,-0.121
1748285905493091907,-0.11900000000000001
1748285905500779028,-0.116
1748285905508466149,-0.114
1748285905516153270,-0.114
1748285905523840391,-0.114
1748285905531527512,-0.114
1748285905539214633,-0.114
1748285905546901754,-0.111
1748285905554588875,-0.107
1748285905562276060,-0.107
1748285905569963181,-0.107
1748285905577650302,-0.107
1748285905585337423,-0.10400000000000001
1748285905593024544,-0.10200000000000001
1748285905600711665,-0.097
1748285905608398786,-0.092
1748285905616085907,-0.092
1748285905623773028,-0.09
1748285905631460149,-0.09
1748285905639147270,-0.09
1748285905646834391,-0.085
1748285905654521512,-0.08
1748285905662208633,-0.08
1748285905669895754,-0.08
1748285905677582875,-0.077
1748285905685269996,-0.075
1748285905692957117,-0.07
1748285905700644238,-0.068
1748285905708331359,-0.065
1748285905716018480,-0.065
1748285905723705601,-0.063
1748285905731392722,-0.065
1748285905739079843,-0.063
1748285905746766964,-0.06
1748285905754454085,-0.058
1748285905762141206,-0.058
1748285905769828327,-0.058
1748285905777515448,-0.055
1748285905785202569,-0.055
1748285905792889690,-0.053
1748285905800576811,-0.053
1748285905808263932,-0.055
1748285905815951053,-0.051000000000000004
1748285905823638174,-0.043000000000000003
1748285905831325295,-0.043000000000000003
1748285905839012416,-0.046
1748285905846699537,-0.048
1748285905854386658,-0.055
1748285905862073779,-0.058
1748285905869760900,-0.053
1748285905877448021,-0.048
1748285905885135142,-0.036000000000000004
1748285905892822263,-0.014
1748285905900509384,-0.007
1748285905908196505,-0.014
1748285905915883626,-0.012
1748285905923570747,-0.019
1748285905931257868,-0.041
1748285905938944989,-0.051000000000000004
1748285905946632110,-0.048
1748285905954319231,-0.051000000000000004
1748285905962006352,-0.051000000000000004
1748285905969693473,-0.046
1748285905977380594,-0.048
1748285905985067715,-0.068
1748285905992754836,-0.082
1748285906000441957,0.085
1748285906008129078,0.681
1748285906015816199,1.338
1748285906023503320,1.1460000000000001
1748285906031190441,0.041
1748285906038877562,-0.766
1748285906046564683,-0.591
1748285906054251804,-0.267
1748285906061938925,-0.274
1748285906069626046,-0.194
1748285906077313167,-0.055
1748285906085000288,-0.075
1748285906092687409,-0.094
1748285906100374530,-0.048
1748285906108061651,-0.038
1748285906115748772,-0.043000000000000003
1748285906123435957,-0.024,50,1246
1748285906131123078,-0.012
1748285906138810199,-0.009000000000000001
1748285906146497320,-0.002
1748285906154184441,0.009000000000000001
1748285906161871562,0.014
1748285906169558683,0.026000000000000002
1748285906177245804,0.036000000000000004
1748285906184932925,0.046
1748285906192620046,0.055
1748285906200307167,0.068
1748285906207994288,0.077
1748285906215681409,0.08700000000000001
1748285906223368530,0.10200000000000001
1748285906231055651,0.116
1748285906238742772,0.128
1748285906246429893,0.14300000000000002
1748285906254117014,0.16
1748285906261804135,0.177
1748285906269491256,0.197
1748285906277178377,0.214
1748285906284865498,0.226
1748285906292552619,0.23600000000000002
1748285906300239740,0.24
1748285906307926861,0.243
1748285906315613982,0.243
1748285906323301103,0.23600000000000002
1748285906330988224,0.218
1748285906338675345,0.187
1748285906346362466,0.14100000000000001
1748285906354049587,0.08
1748285906361736708,0.021
1748285906369423829,-0.029
1748285906377110950,-0.07200000000000001
1748285906384798071,-0.107
1748285906392485192,-0.128
1748285906400172313,-0.14100000000000001
1748285906407859434,-0.145
1748285906415546555,-0.14300000000000002
1748285906423233676,-0.138
1748285906430920797,-0.133
1748285906438607918,-0.126
1748285906446295039,-0.121
1748285906453982160,-0.116
1748285906461669281,-0.114
1748285906469356402,-0.107
1748285906477043523,-0.10400000000000001
1748285906484730644,-0.10200000000000001
1748285906492417765,-0.10200000000000001
1748285906500104886,-0.10200000000000001
1748285906507792007,-0.10400000000000001
1748285906515479128,-0.10400000000000001
1748285906523166249,-0.10200000000000001
1748285906530853370,-0.10200000000000001
1748285906538540491,-0.10200000000000001
1748285906546227612,-0.10200000000000001
1748285906553914733,-0.099
1748285906561601854,-0.097
1748285906569288975,-0.094
1748285906576976096,-0.094
1748285906584663217,-0.09
1748285906592350338,-0.08700000000000001
1748285906600037459,-0.085
1748285906607724580,-0.082
1748285906615411701,-0.077
1748285906623098822,-0.07200000000000001
1748285906630785943,-0.07
1748285906638473064,-0.068
1748285906646160185,-0.065
1748285906653847306,-0.063
1748285906661534427,-0.06
1748285906669221548,-0.058
1748285906676908669,-0.055
1748285906684595858,-0.051000000000000004
1748285906692282979,-0.051000000000000004
1748285906699970100,-0.048
1748285906707657221,-0.043000000000000003
1748285906715344342,-0.043000000000000003
1748285906723031463,-0.041
1748285906730718584,-0.038
1748285906738405705,-0.036000000000000004
1748285906746092826,-0.036000000000000004
1748285906753779947,-0.034
1748285906761467068,-0.031
1748285906769154189,-0.031
1748285906776841310,-0.031
1748285906784528431,-0.026000000000000002
1748285906792215552,-0.024
1748285906799902673,-0.024
1748285906807589794,-0.024
1748285906815276915,-0.021
1748285906822964036,-0.019
1748285906830651157,-0.019
1748285906838338278,-0.019
1748285906846025399,-0.017
1748285906853712520,-0.014
1748285906861399641,-0.019
1748285906869086762,-0.024
1748285906876773883,-0.024
1748285906884461004,-0.019
1748285906892148125,-0.014
1748285906899835246,0.004
1748285906907522367,0.021
1748285906915209488,0.021
1748285906922896609,0.021
1748285906930583730,0.021
1748285906938270851,0.004
1748285906945957972,-0.017
1748285906953645093,-0.019
1748285906961332214,-0.017
1748285906969019335,-0.019
1748285906976706456,-0.019
1748285906984393577,-0.014
1748285906992080698,-0.019
1748285906999767819,-0.046
1748285907007454940,-0.07
1748285907015142061,0.136
1748285907022829182,0.793
1748285907030516303,1.416
1748285907038203424,1.155
1748285907045890545,0.07200000000000001
1748285907053577666,-0.664
1748285907061264787,-0.467
1748285907068951908,-0.18
1748285907076639029,-0.211
1748285907084326150,-0.148
1748285907092013271,-0.043000000000000003
1748285907099700392,-0.07
1748285907107387513,-0.08
1748285907115074634,-0.036000000000000004
1748285907122761755,-0.029
1748285907130448876,-0.034
1748285907138135997,-0.017
1748285907145823118,-0.007
1748285907153510239,-0.002
1748285907161197360,0.007
1748285907168884481,0.019
1748285907176571602,0.026000000000000002
1748285907184258723,0.034
1748285907191945844,0.043000000000000003
1748285907199632965,0.053
1748285907207320086,0.063
1748285907215007207,0.07200000000000001
1748285907222694328,0.082
1748285907230381449,0.092
1748285907238068570,0.10400000000000001
1748285907245755755,0.116,50,1075
1748285907253442876,0.126
1748285907261129997,0.138
1748285907268817118,0.155
1748285907276504239,0.17
1748285907284191360,0.184
1748285907291878481,0.199
1748285907299565602,0.211
1748285907307252723,0.218
1748285907314939844,0.226
1748285907322626965,0.226
1748285907330314086,0.223
1748285907338001207,0.216
1748285907345688328,0.199
1748285907353375449,0.167
1748285907361062570,0.126
1748285907368749691,0.077
1748285907376436812,0.026000000000000002
1748285907384123933,-0.021
1748285907391811054,-0.058
1748285907399498175,-0.08700000000000001
1748285907407185296,-0.107
1748285907414872417,-0.11900000000000001
1748285907422559538,-0.126
1748285907430246659,-0.126
1748285907437933780,-0.121
1748285907445620901,-0.116
1748285907453308022,-0.111
1748285907460995143,-0.109
1748285907468682264,-0.10400000000000001
1748285907476369385,-0.10200000000000001
1748285907484056506,-0.097
1748285907491743627,-0.094
1748285907499430748,-0.094
1748285907507117869,-0.092
1748285907514804990,-0.09
1748285907522492111,-0.092
1748285907530179232,-0.092
1748285907537866353,-0.09
1748285907545553474,-0.092
1748285907553240595,-0.092
1748285907560927716,-0.09
1748285907568614837,-0.09
1748285907576301958,-0.09
1748285907583989079,-0.09
1748285907591676200,-0.08700000000000001
1748285907599363321,-0.085
1748285907607050442,-0.082
1748285907614737563,-0.082
1748285907622424684,-0.08
1748285907630111805,-0.077
1748285907637798926,-0.075
1748285907645486047,-0.07200000000000001
1748285907653173168,-0.068
1748285907660860289,-0.065
1748285907668547410,-0.065
1748285907676234531,-0.063
1748285907683921652,-0.06
1748285907691608773,-0.055
1748285907699295894,-0.053
1748285907706983015,-0.053
1748285907714670136,-0.051000000000000004
1748285907722357257,-0.048
1748285907730044378,-0.048
1748285907737731499,-0.046
1748285907745418620,-0.046
1748285907753105741,-0.046
1748285907760792862,-0.043000000000000003
1748285907768479983,-0.041
1748285907776167104,-0.041
1748285907783854225,-0.038
1748285907791541346,-0.038
1748285907799228467,-0.038
1748285907806915652,-0.036000000000000004,50
1748285907814602634,-0.034
1748285907822289616,-0.034
1748285907829976598,-0.034
1748285907837663580,-0.031
1748285907845350562,-0.031
1748285907853037544,-0.029
1748285907860724526,-0.029
1748285907868411508,-0.029
1748285907876098490,-0.026000000000000002
1748285907883785472,-0.026000000000000002
1748285907891472454,-0.026000000000000002
1748285907899159436,-0.026000000000000002
1748285907906846418,-0.026000000000000002
1748285907914533400,-0.026000000000000002
1748285907922220382,-0.024
1748285907929907364,-0.021
1748285907937594346,-0.021
1748285907945281328,-0.021
1748285907952968310,-0.019
1748285907960655292,-0.019
1748285907968342274,-0.019
1748285907976029256,-0.017
1748285907983716238,-0.019
1748285907991403220,-0.017
1748285907999090202,-0.017
1748285908006777184,-0.017
1748285908014464166,-0.017
1748285908022151148,-0.014
1748285908029838130,-0.014
1748285908037525112,-0.014
1748285908045212094,-0.014
1748285908052899076,-0.012
1748285908060586058,-0.012
1748285908068273040,-0.012
1748285908075960022,-0.012
1748285908083647004,-0.009000000000000001
1748285908091333986,-0.009000000000000001
1748285908099020968,-0.009000000000000001
1748285908106707950,-0.009000000000000001
1748285908114394932,-0.009000000000000001
1748285908122081914,-0.012
1748285908129768896,-0.019
1748285908137455878,-0.019
1748285908145142860,-0.014
1748285908152829842,-0.007
1748285908160516824,0.009000000000000001
1748285908168203806,0.024
1748285908175890788,0.019
1748285908183577770,0.019
1748285908191264752,0.017
1748285908198951734,-0.002
1748285908206638716,-0.019
1748285908214325698,-0.019
1748285908222012680,-0.019
1748285908229699662,-0.019
1748285908237386644,-0.017
1748285908245073626,-0.017
1748285908252760608,-0.031
1748285908260447590,-0.07200000000000001
1748285908268134572,-0.036000000000000004
1748285908275821554,0.367
1748285908283508536,1.097
1748285908291195518,1.401
1748285908298882500,0.727
1748285908306569482,-0.318
1748285908314256464,-0.627
1748285908321943446,-0.28400000000000003
1748285908329630428,-0.163
1748285908337317410,-0.20600000000000002
1748285908345004392,-0.107
1748285908352691374,-0.065
1748285908360378356,-0.10400000000000001
1748285908368065379,-0.08
1748285908375752222,-0.051000000000000004
1748285908383439065,-0.055
1748285908391125908,-0.048
1748285908398812751,-0.031
1748285908406499594,-0.029
1748285908414186437,-0.019
1748285908421873280,-0.007
1748285908429560123,0.0
1748285908437246966,0.007
1748285908444933809,0.019
1748285908452620652,0.026000000000000002
1748285908460307495,0.034
1748285908467994338,0.043000000000000003
1748285908475681181,0.053
1748285908483368024,0.06
1748285908491054867,0.07
1748285908498741710,0.08
1748285908506428553,0.09
1748285908514115396,0.099
1748285908521802239,0.111
1748285908529489082,0.124
1748285908537175925,0.136
1748285908544862768,0.148
1748285908552549611,0.158
1748285908560236454,0.167
1748285908567923297,0.17500000000000002
1748285908575610140,0.177
1748285908583296983,0.177
1748285908590983826,0.177
1748285908598670669,0.17200000000000001
1748285908606357512,0.16
1748285908614044355,0.14100000000000001
1748285908621731198,0.111
1748285908629418041,0.075
1748285908637104884,0.031
1748285908644791727,-0.007
1748285908652478570,-0.043000000000000003
1748285908660165413,-0.07200000000000001
1748285908667852256,-0.094
1748285908675539099,-0.109
1748285908683225942,-0.11900000000000001
1748285908690912785,-0.11900000000000001
1748285908698599628,-0.11900000000000001
1748285908706286471,-0.11900000000000001
1748285908713973314,-0.116
1748285908721660157,-0.111
1748285908729347000,-0.109
1748285908737033843,-0.107
1748285908744720686,-0.10400000000000001
1748285908752407529,-0.107
1748285908760094372,-0.10400000000000001
1748285908767781215,-0.10200000000000001
1748285908775468058,-0.10400000000000001
1748285908783154901,-0.107
1748285908790841744,-0.107
1748285908798528587,-0.10400000000000001
1748285908806215430,-0.10400000000000001
1748285908813902273,-0.107
1748285908821589116,-0.107
1748285908829275959,-0.107
1748285908836962802,-0.10400000000000001
1748285908844649645,-0.10400000000000001
1748285908852336488,-0.10200000000000001
1748285908860023331,-0.097
1748285908867710174,-0.094
1748285908875397017,-0.092
1748285908883083860,-0.092
1748285908890770703,-0.092
1748285908898457546,-0.09
1748285908906144389,-0.08700000000000001
1748285908913831232,-0.085
1748285908921518075,-0.082
1748285908929204928,-0.08,50,1008
1748285908936892049,-0.077
1748285908944579170,-0.07200000000000001
1748285908952266291,-0.07200000000000001
1748285908959953412,-0.07200000000000001
1748285908967640533,-0.07
1748285908975327654,-0.068
1748285908983014775,-0.068
1748285908990701896,-0.068
1748285908998389017,-0.065
1748285909006076138,-0.063
1748285909013763259,-0.06
1748285909021450380,-0.06
1748285909029137501,-0.06
1748285909036824622,-0.06
1748285909044511743,-0.055
1748285909052198864,-0.055
1748285909059885985,-0.055
1748285909067573106,-0.053
1748285909075260227,-0.048
1748285909082947348,-0.048
1748285909090634469,-0.046
1748285909098321590,-0.046
1748285909106008711,-0.048
1748285909113695832,-0.046
1748285909121382953,-0.041
1748285909129070074,-0.041
1748285909136757195,-0.043000000000000003
1748285909144444316,-0.038
1748285909152131437,-0.038
1748285909159818558,-0.041
1748285909167505679,-0.038
1748285909175192800,-0.036000000000000004
1748285909182879921,-0.036000000000000004
1748285909190567042,-0.038
1748285909198254163,-0.038
1748285909205941284,-0.036000000000000004
1748285909213628405,-0.036000000000000004
1748285909221315526,-0.036000000000000004
1748285909229002647,-0.034
1748285909236689768,-0.034
1748285909244376889,-0.031
1748285909252064010,-0.031
1748285909259751131,-0.031
1748285909267438252,-0.034
1748285909275125373,-0.031
1748285909282812494,-0.029
1748285909290499615,-0.026000000000000002
1748285909298186736,-0.029
1748285909305873857,-0.036000000000000004
1748285909313560978,-0.041
1748285909321248099,-0.038
1748285909328935220,-0.036000000000000004
1748285909336622341,-0.026000000000000002
1748285909344309462,-0.007
1748285909351996583,0.004
1748285909359683704,0.002
1748285909367370825,0.0
1748285909375057946,-0.009000000000000001
1748285909382745067,-0.031
1748285909390432188,-0.041
1748285909398119309,-0.041
1748285909405806430,-0.043000000000000003
1748285909413493551,-0.043000000000000003
1748285909421180672,-0.041
1748285909428867793,-0.038
1748285909436554914,-0.063
1748285909444242035,-0.097
1748285909451929156,0.048
1748285909459616277,0.635
1748285909467303398,1.299
1748285909474990519,1.18
1748285909482677640,0.165
1748285909490364825,-0.664
1748285909498051946,-0.5660000000000001
1748285909505739067,-0.243
1748285909513426188,-0.245
1748285909521113309,-0.199
1748285909528800430,-0.077
1748285909536487551,-0.08700000000000001
1748285909544174672,-0.107
1748285909551861793,-0.065
1748285909559548914,-0.053
1748285909567236035,-0.06
1748285909574923156,-0.043000000000000003
1748285909582610277,-0.034
1748285909590297398,-0.029
1748285909597984519,-0.017
1748285909605671640,-0.009000000000000001
1748285909613358761,-0.004
1748285909621045882,0.004
1748285909628733003,0.014
1748285909636420124,0.024
1748285909644107245,0.031
1748285909651794366,0.041
1748285909659481487,0.051000000000000004
1748285909667168608,0.063
1748285909674855729,0.075
1748285909682542850,0.082
1748285909690229971,0.092
1748285909697917092,0.10400000000000001
1748285909705604213,0.124
1748285909713291334,0.138
1748285909720978455,0.153
1748285909728665576,0.167
1748285909736352697,0.18
1748285909744039818,0.184
1748285909751726939,0.189
1748285909759414060,0.192
1748285909767101181,0.189
1748285909774788302,0.187
1748285909782475423,0.17500000000000002
1748285909790162544,0.15
1748285909797849665,0.116
1748285909805536786,0.07
1748285909813223907,0.019
1748285909820911028,-0.029
1748285909828598149,-0.07
1748285909836285270,-0.10400000000000001
1748285909843972391,-0.131
1748285909851659512,-0.148
1748285909859346633,-0.158
1748285909867033754,-0.16
1748285909874720875,-0.155
1748285909882407996,-0.153
1748285909890095117,-0.148
1748285909897782238,-0.145
1748285909905469359,-0.138
1748285909913156480,-0.133
1748285909920843601,-0.131
1748285909928530722,-0.128
1748285909936217843,-0.126
1748285909943904964,-0.124
1748285909951592085,-0.121
1748285909959279206,-0.124
1748285909966966327,-0.126
1748285909974653448,-0.124
1748285909982340569,-0.124
1748285909990027690,-0.124
1748285909997714811,-0.124
1748285910005401932,-0.124
1748285910013089053,-0.121
1748285910020776174,-0.121
1748285910028463295,-0.11900000000000001
1748285910036150416,-0.116
1748285910043837537,-0.114
1748285910051524726,-0.109,51,1015
1748285910059211847,-0.107
1748285910066898968,-0.107
1748285910074586089,-0.107
1748285910082273210,-0.10400000000000001
1748285910089960331,-0.099
1748285910097647452,-0.097
1748285910105334573,-0.094
1748285910113021694,-0.092
1748285910120708815,-0.08700000000000001
1748285910128395936,-0.085
1748285910136083057,-0.085
1748285910143770178,-0.082
1748285910151457299,-0.082
1748285910159144420,-0.077
1748285910166831541,-0.075
1748285910174518662,-0.07200000000000001
1748285910182205783,-0.07200000000000001
1748285910189892904,-0.07
1748285910197580025,-0.068
1748285910205267146,-0.068
1748285910212954267,-0.065
1748285910220641388,-0.063
1748285910228328509,-0.06
1748285910236015630,-0.06
1748285910243702751,-0.058
1748285910251389872,-0.055
1748285910259076993,-0.055
1748285910266764114,-0.053
1748285910274451235,-0.051000000000000004
1748285910282138356,-0.053
1748285910289825477,-0.048
1748285910297512598,-0.046
1748285910305199719,-0.046
1748285910312886840,-0.046
1748285910320573961,-0.043000000000000003
1748285910328261082,-0.043000000000000003
1748285910335948203,-0.041
1748285910343635324,-0.038
1748285910351322445,-0.038
1748285910359009566,-0.041
1748285910366696687,-0.038
1748285910374383808,-0.038
1748285910382070929,-0.038
1748285910389758050,-0.038
1748285910397445171,-0.038
1748285910405132292,-0.038
1748285910412819413,-0.043000000000000003
1748285910420506534,-0.043000000000000003
1748285910428193655,-0.041
1748285910435880776,-0.029
1748285910443567897,-0.009000000000000001
1748285910451255018,-0.002
1748285910458942139,-0.004
1748285910466629260,0.0
1748285910474316381,-0.009000000000000001
1748285910482003502,-0.031
1748285910489690623,-0.041
1748285910497377744,-0.041
1748285910505064865,-0.041
1748285910512751986,-0.041
1748285910520439107,-0.038
1748285910528126228,-0.038
1748285910535813349,-0.053
1748285910543500470,-0.09
1748285910551187591,-0.017
1748285910558874712,0.467
1748285910566561833,1.199
1748285910574248954,1.345
1748285910581936075,0.491
1748285910589623196,-0.51
1748285910597310317,-0.642
1748285910604997438,-0.28200000000000003
1748285910612684623,-0.214
1748285910620371744,-0.218
1748285910628058865,-0.099
1748285910635745986,-0.08
1748285910643433107,-0.111
1748285910651120228,-0.077
1748285910658807349,-0.053
1748285910666494470,-0.06
1748285910674181591,-0.051000000000000004
1748285910681868712,-0.034
1748285910689555833,-0.029
1748285910697242954,-0.024
1748285910704930075,-0.014
1748285910712617196,-0.004
1748285910720304317,0.004
1748285910727991438,0.012
1748285910735678559,0.019
1748285910743365680,0.031
1748285910751052801,0.041
1748285910758739922,0.048
1748285910766427043,0.06
1748285910774114164,0.07
1748285910781801285,0.082
1748285910789488406,0.092
1748285910797175527,0.107
1748285910804862648,0.121
1748285910812549769,0.133
1748285910820236890,0.148
1748285910827924011,0.165
1748285910835611132,0.18
1748285910843298253,0.189
1748285910850985374,0.197
1748285910858672495,0.199
1748285910866359616,0.197
1748285910874046737,0.194
1748285910881733858,0.182
1748285910889420979,0.16
1748285910897108100,0.124
1748285910904795221,0.08
1748285910912482342,0.029
1748285910920169463,-0.019
1748285910927856584,-0.063
1748285910935543705,-0.099
1748285910943230826,-0.126
1748285910950917947,-0.14300000000000002
1748285910958605068,-0.15
1748285910966292189,-0.153
1748285910973979310,-0.153
1748285910981666431,-0.15
1748285910989353552,-0.14300000000000002
1748285910997040673,-0.138
1748285911004727794,-0.133
1748285911012414915,-0.128
1748285911020102036,-0.124
1748285911027789157,-0.121
1748285911035476278,-0.121
1748285911043163399,-0.116
1748285911050850520,-0.116
1748285911058537641,-0.116
1748285911066224762,-0.116
1748285911073911883,-0.11900000000000001
1748285911081599004,-0.11900000000000001
1748285911089286125,-0.116
1748285911096973246,-0.116
1748285911104660367,-0.114
1748285911112347488,-0.114
1748285911120034609,-0.114
1748285911127721730,-0.111
1748285911135408851,-0.109
1748285911143095972,-0.107
1748285911150783093,-0.10400000000000001
1748285911158470214,-0.10200000000000001
1748285911166157335,-0.099
1748285911173844520,-0.097,52,1257
1748285911181531502,-0.094
1748285911189218484,-0.092
1748285911196905466,-0.09
1748285911204592448,-0.08700000000000001
1748285911212279430,-0.08700000000000001
1748285911219966412,-0.082
1748285911227653394,-0.08
1748285911235340376,-0.077
1748285911243027358,-0.075
1748285911250714340,-0.07
1748285911258401322,-0.07
1748285911266088304,-0.068
1748285911273775286,-0.068
1748285911281462268,-0.065
1748285911289149250,-0.063
1748285911296836232,-0.063
1748285911304523214,-0.06
1748285911312210196,-0.06
1748285911319897178,-0.058
1748285911327584160,-0.055
1748285911335271142,-0.053
1748285911342958124,-0.053
1748285911350645106,-0.051000000000000004
1748285911358332088,-0.051000000000000004
1748285911366019070,-0.051000000000000004
1748285911373706052,-0.051000000000000004
1748285911381393034,-0.051000000000000004
1748285911389080016,-0.048
1748285911396766998,-0.046
1748285911404453980,-0.046
1748285911412140962,-0.046
1748285911419827944,-0.043000000000000003
1748285911427514926,-0.041
1748285911435201908,-0.043000000000000003
1748285911442888890,-0.041
1748285911450575872,-0.038
1748285911458262854,-0.038
1748285911465949836,-0.038
1748285911473636818,-0.036000000000000004
1748285911481323800,-0.034
1748285911489010782,-0.034
1748285911496697764,-0.034
1748285911504384746,-0.034
1748285911512071728,-0.034
1748285911519758710,-0.031
1748285911527445692,-0.031
1748285911535132674,-0.034
1748285911542819656,-0.034
1748285911550506638,-0.031
1748285911558193620,-0.031
1748285911565880602,-0.031
1748285911573567584,-0.029
1748285911581254566,-0.031
1748285911588941548,-0.031
1748285911596628530,-0.029
1748285911604315512,-0.029
1748285911612002494,-0.029
1748285911619689476,-0.034
1748285911627376458,-0.038
1748285911635063440,-0.041
1748285911642750422,-0.038
1748285911650437404,-0.029
1748285911658124386,-0.012
1748285911665811368,0.002
1748285911673498350,0.0
1748285911681185332,0.002
1748285911688872314,0.0
1748285911696559296,-0.021
1748285911704246278,-0.038
1748285911711933260,-0.038
1748285911719620242,-0.038
1748285911727307224,-0.043000000000000003
1748285911734994247,-0.038
1748285911742681090,-0.036000000000000004
1748285911750367933,-0.046
1748285911758054776,-0.082
1748285911765741619,-0.085
1748285911773428462,0.211
1748285911781115305,0.907
1748285911788802148,1.374
1748285911796488991,0.907
1748285911804175834,-0.148
1748285911811862677,-0.661
1748285911819549520,-0.382
1748285911827236363,-0.18
1748285911834923206,-0.226
1748285911842610049,-0.14300000000000002
1748285911850296892,-0.075
1748285911857983735,-0.111
1748285911865670578,-0.10200000000000001
1748285911873357421,-0.063
1748285911881044264,-0.063
1748285911888731107,-0.06
1748285911896417950,-0.041
1748285911904104793,-0.034
1748285911911791636,-0.031
1748285911919478479,-0.019
1748285911927165322,-0.009000000000000001
1748285911934852165,-0.002
1748285911942539008,0.007
1748285911950225851,0.019
1748285911957912694,0.026000000000000002
1748285911965599537,0.034
1748285911973286380,0.046
1748285911980973223,0.053
1748285911988660066,0.063
1748285911996346909,0.075
1748285912004033752,0.08700000000000001
1748285912011720595,0.097
1748285912019407438,0.109
1748285912027094281,0.121
1748285912034781124,0.131
1748285912042467967,0.14300000000000002
1748285912050154810,0.155
1748285912057841653,0.167
1748285912065528496,0.17500000000000002
1748285912073215339,0.18
1748285912080902182,0.18
1748285912088589025,0.177
1748285912096275868,0.17200000000000001
1748285912103962711,0.16
1748285912111649554,0.138
1748285912119336397,0.107
1748285912127023240,0.065
1748285912134710083,0.019
1748285912142396926,-0.021
1748285912150083769,-0.06
1748285912157770612,-0.09
1748285912165457455,-0.111
1748285912173144298,-0.128
1748285912180831141,-0.136
1748285912188517984,-0.138
1748285912196204827,-0.138
1748285912203891670,-0.136
1748285912211578513,-0.131
1748285912219265356,-0.126
1748285912226952199,-0.124
1748285912234639042,-0.121
1748285912242325885,-0.121
1748285912250012728,-0.116
1748285912257699571,-0.114
1748285912265386414,-0.114
1748285912273073257,-0.114
1748285912280760100,-0.114
1748285912288446943,-0.114
1748285912296133796,-0.111,52,1181
1748285912303820917,-0.111
1748285912311508038,-0.111
1748285912319195159,-0.114
1748285912326882280,-0.114
1748285912334569401,-0.111
1748285912342256522,-0.111
1748285912349943643,-0.109
1748285912357630764,-0.107
1748285912365317885,-0.107
1748285912373005006,-0.10400000000000001
1748285912380692127,-0.10200000000000001
1748285912388379248,-0.10200000000000001
1748285912396066369,-0.097
1748285912403753490,-0.094
1748285912411440611,-0.094
1748285912419127732,-0.092
1748285912426814853,-0.09
1748285912434501974,-0.08700000000000001
1748285912442189095,-0.082
1748285912449876216,-0.077
1748285912457563337,-0.077
1748285912465250458,-0.077
1748285912472937579,-0.075
1748285912480624700,-0.07200000000000001
1748285912488311821,-0.07200000000000001
1748285912495998942,-0.07
1748285912503686063,-0.065
1748285912511373184,-0.065
1748285912519060305,-0.068
1748285912526747426,-0.065
1748285912534434547,-0.065
1748285912542121668,-0.063
1748285912549808789,-0.06
1748285912557495910,-0.058
1748285912565183031,-0.058
1748285912572870152,-0.055
1748285912580557273,-0.051000000000000004
1748285912588244394,-0.051000000000000004
1748285912595931515,-0.051000000000000004
1748285912603618636,-0.048
1748285912611305757,-0.048
1748285912618992878,-0.053
1748285912626679999,-0.051000000000000004
1748285912634367120,-0.046
1748285912642054241,-0.046
1748285912649741362,-0.048
1748285912657428483,-0.046
1748285912665115604,-0.043000000000000003
1748285912672802725,-0.043000000000000003
1748285912680489846,-0.041
1748285912688176967,-0.041
1748285912695864088,-0.041
1748285912703551209,-0.041
1748285912711238330,-0.038
1748285912718925451,-0.038
1748285912726612572,-0.038
1748285912734299693,-0.036000000000000004
1748285912741986814,-0.036000000000000004
1748285912749673935,-0.036000000000000004
1748285912757361056,-0.036000000000000004
1748285912765048177,-0.036000000000000004
1748285912772735298,-0.034
1748285912780422419,-0.034
1748285912788109540,-0.034
1748285912795796661,-0.031
1748285912803483782,-0.029
1748285912811170903,-0.034
1748285912818858024,-0.034
1748285912826545145,-0.031
1748285912834232266,-0.034
1748285912841919387,-0.041
1748285912849606508,-0.043000000000000003
1748285912857293693,-0.041,52,1102
1748285912864980814,-0.036000000000000004
1748285912872667935,-0.019
1748285912880355056,0.0
1748285912888042177,0.0
1748285912895729298,-0.004
1748285912903416419,-0.002
1748285912911103540,-0.014
1748285912918790661,-0.038
1748285912926477782,-0.043000000000000003
1748285912934164903,-0.043000000000000003
1748285912941852024,-0.048
1748285912949539145,-0.046
1748285912957226266,-0.038
1748285912964913387,-0.046
1748285912972600508,-0.07
1748285912980287629,-0.09
1748285912987974750,0.092
1748285912995661871,0.7030000000000001
1748285913003348992,1.321
1748285913011036113,1.094
1748285913018723234,0.043000000000000003
1748285913026410355,-0.6980000000000001
1748285913034097476,-0.525
1748285913041784597,-0.231
1748285913049471718,-0.248
1748285913057158839,-0.182
1748285913064845960,-0.068
1748285913072533081,-0.09
1748285913080220202,-0.099
1748285913087907323,-0.058
1748285913095594444,-0.053
1748285913103281565,-0.055
1748285913110968686,-0.036000000000000004
1748285913118655807,-0.024
1748285913126342928,-0.021
1748285913134030049,-0.017
1748285913141717170,-0.009000000000000001
1748285913149404291,0.0
1748285913157091412,0.009000000000000001
1748285913164778533,0.019
1748285913172465654,0.026000000000000002
1748285913180152775,0.036000000000000004
1748285913187839896,0.048
1748285913195527017,0.058
1748285913203214138,0.065
1748285913210901259,0.07200000000000001
1748285913218588380,0.085
1748285913226275501,0.097
1748285913233962622,0.109
1748285913241649743,0.121
1748285913249336864,0.136
1748285913257023985,0.15
1748285913264711106,0.165
1748285913272398227,0.17500000000000002
1748285913280085348,0.182
1748285913287772469,0.187
1748285913295459590,0.187
1748285913303146711,0.187
1748285913310833832,0.184
1748285913318520953,0.17200000000000001
1748285913326208074,0.15
1748285913333895195,0.116
1748285913341582316,0.075
1748285913349269437,0.024
1748285913356956558,-0.026000000000000002
1748285913364643679,-0.07
1748285913372330800,-0.10200000000000001
1748285913380017921,-0.128
1748285913387705042,-0.148
1748285913395392163,-0.155
1748285913403079284,-0.158
1748285913410766405,-0.158
1748285913418453594,-0.155
1748285913426140715,-0.15
1748285913433827836,-0.14300000000000002
1748285913441514957,-0.14100000000000001
1748285913449202078,-0.136
1748285913456889199,-0.133
1748285913464576320,-0.128
1748285913472263441,-0.128
1748285913479950562,-0.128
1748285913487637683,-0.128
1748285913495324804,-0.128
1748285913503011925,-0.126
1748285913510699046,-0.128
1748285913518386167,-0.128
1748285913526073288,-0.128
1748285913533760409,-0.128
1748285913541447530,-0.128
1748285913549134651,-0.126
1748285913556821772,-0.126
1748285913564508893,-0.124
1748285913572196014,-0.121
1748285913579883135,-0.11900000000000001
1748285913587570256,-0.11900000000000001
1748285913595257377,-0.116
1748285913602944498,-0.111
1748285913610631619,-0.109
1748285913618318740,-0.107
1748285913626005861,-0.10400000000000001
1748285913633692982,-0.099
1748285913641380103,-0.097
1748285913649067224,-0.094
1748285913656754345,-0.092
1748285913664441466,-0.09
1748285913672128587,-0.08700000000000001
1748285913679815708,-0.085
1748285913687502829,-0.082
1748285913695189950,-0.08
1748285913702877071,-0.077
1748285913710564192,-0.075
1748285913718251313,-0.07200000000000001
1748285913725938434,-0.07200000000000001
1748285913733625555,-0.07
1748285913741312676,-0.068
1748285913748999797,-0.068
1748285913756686918,-0.068
1748285913764374039,-0.065
1748285913772061160,-0.063
1748285913779748281,-0.063
1748285913787435402,-0.06
1748285913795122523,-0.058
1748285913802809644,-0.058
1748285913810496765,-0.055
1748285913818183886,-0.055
1748285913825871007,-0.053
1748285913833558128,-0.051000000000000004
1748285913841245249,-0.051000000000000004
1748285913848932370,-0.048
1748285913856619491,-0.048
1748285913864306612,-0.046
1748285913871993733,-0.046
1748285913879680854,-0.046
1748285913887367975,-0.043000000000000003
1748285913895055096,-0.043000000000000003
1748285913902742217,-0.041
1748285913910429338,-0.041
1748285913918116459,-0.041
1748285913925803580,-0.038
1748285913933490701,-0.036000000000000004
1748285913941177822,-0.036000000000000004
1748285913948864943,-0.036000000000000004
1748285913956552064,-0.034
1748285913964239185,-0.034
1748285913971926306,-0.034
1748285913979613491,-0.034,52
1748285913987300403,-0.034
1748285913994987315,-0.031
1748285914002674227,-0.031
1748285914010361139,-0.036000000000000004
1748285914018048051,-0.043000000000000003
1748285914025734963,-0.043000000000000003
1748285914033421875,-0.038
1748285914041108787,-0.031
1748285914048795699,-0.014
1748285914056482611,0.0
1748285914064169523,0.0
1748285914071856435,0.0
1748285914079543347,-0.002
1748285914087230259,-0.024
1748285914094917171,-0.041
1748285914102604083,-0.041
1748285914110290995,-0.041
1748285914117977907,-0.046
1748285914125664819,-0.043000000000000003
1748285914133351731,-0.041
1748285914141038643,-0.053
1748285914148725555,-0.08700000000000001
1748285914156412467,-0.065
1748285914164099379,0.291
1748285914171786291,1.014
1748285914179473203,1.3840000000000001
1748285914187160115,0.768
1748285914194847027,-0.304
1748285914202533939,-0.683
1748285914210220851,-0.34500000000000003
1748285914217907763,-0.192
1748285914225594675,-0.233
1748285914233281587,-0.126
1748285914240968499,-0.07
1748285914248655411,-0.111
1748285914256342323,-0.09
1748285914264029235,-0.053
1748285914271716147,-0.058
1748285914279403059,-0.053
1748285914287089971,-0.036000000000000004
1748285914294776883,-0.031
1748285914302463795,-0.029
1748285914310150707,-0.017
1748285914317837619,-0.009000000000000001
1748285914325524531,-0.002
1748285914333211443,0.007
1748285914340898355,0.017
1748285914348585267,0.024
1748285914356272179,0.034
1748285914363959091,0.043000000000000003
1748285914371646003,0.053
1748285914379332915,0.063
1748285914387019827,0.07200000000000001
1748285914394706739,0.08700000000000001
1748285914402393651,0.097
1748285914410080563,0.109
1748285914417767475,0.121
1748285914425454387,0.133
1748285914433141299,0.145
1748285914440828211,0.16
1748285914448515123,0.17
1748285914456202035,0.17500000000000002
1748285914463888947,0.18
1748285914471575859,0.177
1748285914479262771,0.17500000000000002
1748285914486949683,0.167
1748285914494636595,0.153
1748285914502323507,0.128
1748285914510010419,0.092
1748285914517697331,0.048
1748285914525384243,0.002
1748285914533071155,-0.041
1748285914540758131,-0.077
1748285914548445322,-0.107
1748285914556132513,-0.128
1748285914563819704,-0.14100000000000001
1748285914571506895,-0.148
1748285914579194086,-0.148
1748285914586881277,-0.145
1748285914594568468,-0.14300000000000002
1748285914602255659,-0.138
1748285914609942850,-0.136
1748285914617630041,-0.133
1748285914625317232,-0.128
1748285914633004423,-0.126
1748285914640691614,-0.126
1748285914648378805,-0.124
1748285914656065996,-0.121
1748285914663753187,-0.11900000000000001
1748285914671440378,-0.11900000000000001
1748285914679127569,-0.11900000000000001
1748285914686814760,-0.11900000000000001
1748285914694501951,-0.11900000000000001
1748285914702189142,-0.11900000000000001
1748285914709876333,-0.121
1748285914717563524,-0.11900000000000001
1748285914725250715,-0.11900000000000001
1748285914732937906,-0.116
1748285914740625097,-0.114
1748285914748312288,-0.111
1748285914755999479,-0.109
1748285914763686670,-0.109
1748285914771373861,-0.107
1748285914779061052,-0.10200000000000001
1748285914786748243,-0.10200000000000001
1748285914794435434,-0.099
1748285914802122625,-0.094
1748285914809809816,-0.094
1748285914817497007,-0.092
1748285914825184198,-0.09
1748285914832871389,-0.08700000000000001
1748285914840558580,-0.082
1748285914848245771,-0.08
1748285914855932962,-0.08
1748285914863620153,-0.08
1748285914871307344,-0.077
1748285914878994535,-0.075
1748285914886681726,-0.07200000000000001
1748285914894368917,-0.07200000000000001
1748285914902056108,-0.07
1748285914909743299,-0.07
1748285914917430490,-0.065
1748285914925117681,-0.065
1748285914932804872,-0.065
1748285914940492063,-0.063
1748285914948179254,-0.063
1748285914955866445,-0.06
1748285914963553636,-0.06
1748285914971240827,-0.06
1748285914978928018,-0.058
1748285914986615209,-0.055
1748285914994302400,-0.055
1748285915001989591,-0.055
1748285915009676782,-0.055
1748285915017363973,-0.053
1748285915025051164,-0.053
1748285915032738355,-0.055
1748285915040425546,-0.051000000000000004
1748285915048112737,-0.048
1748285915055799928,-0.051000000000000004
1748285915063487119,-0.051000000000000004
1748285915071174310,-0.048
1748285915078861501,-0.048
1748285915086548692,-0.048
1748285915094235883,-0.046
1748285915101923115,-0.046,52,1218
1748285915109609958,-0.043000000000000003
1748285915117296801,-0.043000000000000003
1748285915124983644,-0.043000000000000003
1748285915132670487,-0.043000000000000003
1748285915140357330,-0.043000000000000003
1748285915148044173,-0.043000000000000003
1748285915155731016,-0.043000000000000003
1748285915163417859,-0.043000000000000003
1748285915171104702,-0.041
1748285915178791545,-0.038
1748285915186478388,-0.041
1748285915194165231,-0.038
1748285915201852074,-0.038
1748285915209538917,-0.038
1748285915217225760,-0.038
1748285915224912603,-0.038
1748285915232599446,-0.041
1748285915240286289,-0.046
1748285915247973132,-0.048
1748285915255659975,-0.048
1748285915263346818,-0.038
1748285915271033661,-0.026000000000000002
1748285915278720504,-0.009000000000000001
1748285915286407347,-0.004
1748285915294094190,-0.007
1748285915301781033,-0.007
1748285915309467876,-0.019
1748285915317154719,-0.043000000000000003
1748285915324841562,-0.048
1748285915332528405,-0.046
1748285915340215248,-0.051000000000000004
1748285915347902091,-0.051000000000000004
1748285915355588934,-0.046
1748285915363275777,-0.051000000000000004
1748285915370962620,-0.08
1748285915378649463,-0.107
1748285915386336306,0.077
1748285915394023149,0.6980000000000001
1748285915401709992,1.309
1748285915409396835,1.107
1748285915417083678,0.10200000000000001
1748285915424770521,-0.635
1748285915432457364,-0.481
1748285915440144207,-0.201
1748285915447831050,-0.228
1748285915455517893,-0.182
1748285915463204736,-0.085
1748285915470891579,-0.107
1748285915478578422,-0.116
1748285915486265265,-0.075
1748285915493952108,-0.068
1748285915501638951,-0.07200000000000001
1748285915509325794,-0.058
1748285915517012637,-0.046
1748285915524699480,-0.041
1748285915532386323,-0.031
1748285915540073166,-0.019
1748285915547760009,-0.014
1748285915555446852,-0.007
1748285915563133695,0.002
1748285915570820538,0.012
1748285915578507381,0.019
1748285915586194224,0.031
1748285915593881067,0.041
1748285915601567910,0.051000000000000004
1748285915609254753,0.06
1748285915616941596,0.07
1748285915624628439,0.08
1748285915632315282,0.092
1748285915640002125,0.10400000000000001
1748285915647688968,0.116
1748285915655375811,0.126
1748285915663062664,0.138
1748285915670749785,0.148
1748285915678436906,0.155
1748285915686124027,0.16
1748285915693811148,0.16
1748285915701498269,0.158
1748285915709185390,0.155
1748285915716872511,0.145
1748285915724559632,0.128
1748285915732246753,0.099
1748285915739933874,0.063
1748285915747620995,0.021
1748285915755308116,-0.019
1748285915762995237,-0.058
1748285915770682358,-0.09
1748285915778369479,-0.114
1748285915786056600,-0.131
1748285915793743721,-0.14100000000000001
1748285915801430842,-0.14300000000000002
1748285915809117963,-0.14300000000000002
1748285915816805084,-0.14100000000000001
1748285915824492205,-0.138
1748285915832179326,-0.136
1748285915839866447,-0.128
1748285915847553568,-0.126
1748285915855240689,-0.124
1748285915862927810,-0.121
1748285915870614931,-0.11900000000000001
1748285915878302052,-0.116
1748285915885989173,-0.116
1748285915893676294,-0.116
1748285915901363415,-0.116
1748285915909050536,-0.116
1748285915916737657,-0.11900000000000001
1748285915924424778,-0.11900000000000001
1748285915932111899,-0.11900000000000001
1748285915939799020,-0.116
1748285915947486141,-0.116
1748285915955173262,-0.114
1748285915962860383,-0.111
1748285915970547504,-0.111
1748285915978234625,-0.109
1748285915985921746,-0.107
1748285915993608867,-0.107
1748285916001295988,-0.10400000000000001
1748285916008983109,-0.10200000000000001
1748285916016670230,-0.097
1748285916024357351,-0.097
1748285916032044472,-0.094
1748285916039731593,-0.092
1748285916047418714,-0.09
1748285916055105835,-0.08700000000000001
1748285916062792956,-0.085
1748285916070480077,-0.082
1748285916078167198,-0.08
1748285916085854319,-0.077
1748285916093541440,-0.075
1748285916101228561,-0.075
1748285916108915682,-0.07200000000000001
1748285916116602803,-0.07
1748285916124289924,-0.07
1748285916131977045,-0.07
1748285916139664166,-0.068
1748285916147351287,-0.065
1748285916155038408,-0.063
1748285916162725529,-0.063
1748285916170412650,-0.063
1748285916178099771,-0.06
1748285916185786892,-0.06
1748285916193474013,-0.058
1748285916201161134,-0.058
1748285916208848255,-0.058
1748285916216535376,-0.055
1748285916224222561,-0.055,52,1217
1748285916231909682,-0.053
1748285916239596803,-0.051000000000000004
1748285916247283924,-0.051000000000000004
1748285916254971045,-0.051000000000000004
1748285916262658166,-0.051000000000000004
1748285916270345287,-0.048
1748285916278032408,-0.046
1748285916285719529,-0.046
1748285916293406650,-0.048
1748285916301093771,-0.046
1748285916308780892,-0.043000000000000003
1748285916316468013,-0.046
1748285916324155134,-0.043000000000000003
1748285916331842255,-0.041
1748285916339529376,-0.043000000000000003
1748285916347216497,-0.043000000000000003
1748285916354903618,-0.038
1748285916362590739,-0.038
1748285916370277860,-0.041
1748285916377964981,-0.041
1748285916385652102,-0.038
1748285916393339223,-0.038
1748285916401026344,-0.038
1748285916408713465,-0.038
1748285916416400586,-0.036000000000000004
1748285916424087707,-0.038
1748285916431774828,-0.043000000000000003
1748285916439461949,-0.048
1748285916447149070,-0.048
1748285916454836191,-0.043000000000000003
1748285916462523312,-0.034
1748285916470210433,-0.014
1748285916477897554,-0.004
1748285916485584675,-0.007
1748285916493271796,-0.004
1748285916500958917,-0.012
1748285916508646038,-0.036000000000000004
1748285916516333159,-0.048
1748285916524020280,-0.046
1748285916531707401,-0.046
1748285916539394522,-0.046
1748285916547081643,-0.046
1748285916554768764,-0.048
1748285916562455885,-0.063
1748285916570143006,-0.099
1748285916577830127,-0.024
1748285916585517248,0.447
1748285916593204369,1.155
1748285916600891490,1.287
1748285916608578611,0.457
1748285916616265732,-0.493
1748285916623952853,-0.605
1748285916631639974,-0.272
1748285916639327095,-0.211
1748285916647014216,-0.209
1748285916654701337,-0.10200000000000001
1748285916662388458,-0.09
1748285916670075579,-0.116
1748285916677762700,-0.082
1748285916685449821,-0.06
1748285916693136942,-0.065
1748285916700824063,-0.053
1748285916708511184,-0.038
1748285916716198305,-0.034
1748285916723885426,-0.026000000000000002
1748285916731572547,-0.017
1748285916739259668,-0.009000000000000001
1748285916746946789,0.0
1748285916754633910,0.009000000000000001
1748285916762321031,0.019
1748285916770008152,0.029
1748285916777695273,0.038
1748285916785382462,0.046,52,1173
1748285916793069583,0.055
1748285916800756704,0.068
1748285916808443825,0.077
1748285916816130946,0.08700000000000001
1748285916823818067,0.099
1748285916831505188,0.111
1748285916839192309,0.121
1748285916846879430,0.136
1748285916854566551,0.145
1748285916862253672,0.155
1748285916869940793,0.165
1748285916877627914,0.167
1748285916885315035,0.17
1748285916893002156,0.17
1748285916900689277,0.167
1748285916908376398,0.158
1748285916916063519,0.14300000000000002
1748285916923750640,0.116
1748285916931437761,0.08
1748285916939124882,0.038
1748285916946812003,-0.007
1748285916954499124,-0.048
1748285916962186245,-0.082
1748285916969873366,-0.107
1748285916977560487,-0.126
1748285916985247608,-0.136
1748285916992934729,-0.14100000000000001
1748285917000621850,-0.14100000000000001
1748285917008308971,-0.138
1748285917015996092,-0.138
1748285917023683213,-0.133
1748285917031370334,-0.128
1748285917039057455,-0.126
1748285917046744576,-0.121
1748285917054431697,-0.11900000000000001
1748285917062118818,-0.11900000000000001
1748285917069805939,-0.116
1748285917077493060,-0.114
1748285917085180181,-0.114
1748285917092867302,-0.114
1748285917100554423,-0.116
1748285917108241544,-0.116
1748285917115928665,-0.116
1748285917123615786,-0.116
1748285917131302907,-0.116
1748285917138990028,-0.116
1748285917146677149,-0.114
1748285917154364270,-0.111
1748285917162051391,-0.111
1748285917169738512,-0.109
1748285917177425633,-0.107
1748285917185112754,-0.10400000000000001
1748285917192799875,-0.10200000000000001
1748285917200486996,-0.099
1748285917208174117,-0.099
1748285917215861238,-0.097
1748285917223548359,-0.092
1748285917231235480,-0.09
1748285917238922601,-0.08700000000000001
1748285917246609722,-0.085
1748285917254296843,-0.082
1748285917261983964,-0.082
1748285917269671085,-0.08
1748285917277358206,-0.077
1748285917285045327,-0.075
1748285917292732448,-0.075
1748285917300419569,-0.07200000000000001
1748285917308106690,-0.07200000000000001
1748285917315793811,-0.07
1748285917323480932,-0.07
1748285917331168053,-0.068
1748285917338855174,-0.065
1748285917346542359,-0.065
1748285917354229271,-0.065
1748285917361916183,-0.063
1748285917369603095,-0.06
1748285917377290007,-0.06
1748285917384976919,-0.058
1748285917392663831,-0.058
1748285917400350743,-0.055
1748285917408037655,-0.055
1748285917415724567,-0.055
1748285917423411479,-0.055
1748285917431098391,-0.053
1748285917438785303,-0.053
1748285917446472215,-0.051000000000000004
1748285917454159127,-0.051000000000000004
1748285917461846039,-0.051000000000000004
1748285917469532951,-0.048
1748285917477219863,-0.046
1748285917484906775,-0.048
1748285917492593687,-0.046
1748285917500280599,-0.043000000000000003
1748285917507967511,-0.043000000000000003
1748285917515654423,-0.046
1748285917523341335,-0.043000000000000003
1748285917531028247,-0.046
1748285917538715159,-0.053
1748285917546402071,-0.053
1748285917554088983,-0.046
1748285917561775895,-0.038
1748285917569462807,-0.021
1748285917577149719,-0.007
1748285917584836631,-0.009000000000000001
1748285917592523543,-0.007
1748285917600210455,-0.012
1748285917607897367,-0.034
1748285917615584279,-0.048
1748285917623271191,-0.048
1748285917630958103,-0.048
1748285917638645015,-0.051000000000000004
1748285917646331927,-0.048
1748285917654018839,-0.046
1748285917661705751,-0.058
1748285917669392663,-0.097
1748285917677079575,-0.046
1748285917684766487,0.389
1748285917692453399,1.114
1748285917700140311,1.323
1748285917707827223,0.537
1748285917715514135,-0.452
1748285917723201047,-0.632
1748285917730887959,-0.296
1748285917738574871,-0.216
1748285917746261783,-0.221
1748285917753948695,-0.10400000000000001
1748285917761635607,-0.082
1748285917769322519,-0.114
1748285917777009431,-0.082
1748285917784696343,-0.058
1748285917792383255,-0.065
1748285917800070167,-0.053
1748285917807757079,-0.036000000000000004
1748285917815443991,-0.031
1748285917823130903,-0.024
1748285917830817815,-0.014
1748285917838504727,-0.004
1748285917846191639,0.002
1748285917853878551,0.012
1748285917861565463,0.019
1748285917869252375,0.029
1748285917876939287,0.038
1748285917884626199,0.051000000000000004
1748285917892313111,0.058
1748285917900000023,0.068
1748285917907686999,0.08,51,1226
1748285917915373911,0.09
1748285917923060823,0.10200000000000001
1748285917930747735,0.111
1748285917938434647,0.126
1748285917946121559,0.138
1748285917953808471,0.15
1748285917961495383,0.16
1748285917969182295,0.17
1748285917976869207,0.17500000000000002
1748285917984556119,0.17500000000000002
1748285917992243031,0.17500000000000002
1748285917999929943,0.17
1748285918007616855,0.16
1748285918015303767,0.14100000000000001
1748285918022990679,0.111
1748285918030677591,0.07
1748285918038364503,0.024
1748285918046051415,-0.024
1748285918053738327,-0.065
1748285918061425239,-0.099
1748285918069112151,-0.126
1748285918076799063,-0.14300000000000002
1748285918084485975,-0.153
1748285918092172887,-0.158
1748285918099859799,-0.155
1748285918107546711,-0.15
1748285918115233623,-0.145
1748285918122920535,-0.14300000000000002
1748285918130607447,-0.138
1748285918138294359,-0.133
1748285918145981271,-0.131
1748285918153668183,-0.128
1748285918161355095,-0.126
1748285918169042007,-0.126
1748285918176728919,-0.124
1748285918184415831,-0.121
1748285918192102743,-0.124
1748285918199789655,-0.124
1748285918207476567,-0.124
1748285918215163479,-0.121
1748285918222850391,-0.124
1748285918230537303,-0.124
1748285918238224215,-0.121
1748285918245911127,-0.11900000000000001
1748285918253598039,-0.116
1748285918261284951,-0.116
1748285918268971863,-0.114
1748285918276658775,-0.111
1748285918284345687,-0.109
1748285918292032599,-0.109
1748285918299719511,-0.107
1748285918307406423,-0.10400000000000001
1748285918315093335,-0.099
1748285918322780247,-0.094
1748285918330467159,-0.092
1748285918338154071,-0.094
1748285918345840983,-0.092
1748285918353527895,-0.09
1748285918361214807,-0.085
1748285918368901719,-0.082
1748285918376588631,-0.08
1748285918384275543,-0.077
1748285918391962455,-0.077
1748285918399649367,-0.075
1748285918407336279,-0.07
1748285918415023191,-0.07
1748285918422710103,-0.07
1748285918430397015,-0.07
1748285918438083927,-0.065
1748285918445770839,-0.065
1748285918453457751,-0.065
1748285918461144663,-0.065
1748285918468831635,-0.063
1748285918476518756,-0.06
1748285918484205877,-0.06
1748285918491892998,-0.053
1748285918499580119,-0.051000000000000004
1748285918507267240,-0.055
1748285918514954361,-0.058
1748285918522641482,-0.055
1748285918530328603,-0.053
1748285918538015724,-0.053
1748285918545702845,-0.053
1748285918553389966,-0.053
1748285918561077087,-0.053
1748285918568764208,-0.051000000000000004
1748285918576451329,-0.048
1748285918584138450,-0.046
1748285918591825571,-0.046
1748285918599512692,-0.051000000000000004
1748285918607199813,-0.053
1748285918614886934,-0.055
1748285918622574055,-0.055
1748285918630261176,-0.048
1748285918637948297,-0.029
1748285918645635418,-0.012
1748285918653322539,-0.012
1748285918661009660,-0.012
1748285918668696781,-0.012
1748285918676383902,-0.034
1748285918684071023,-0.053
1748285918691758144,-0.053
1748285918699445265,-0.055
1748285918707132386,-0.055
1748285918714819507,-0.051000000000000004
1748285918722506628,-0.051000000000000004
1748285918730193749,-0.058
1748285918737880870,-0.082
1748285918745567991,-0.068
1748285918753255112,0.23800000000000002
1748285918760942233,0.9460000000000001
1748285918768629354,1.367
1748285918776316475,0.759
1748285918784003596,-0.352
1748285918791690717,-0.754
1748285918799377838,-0.41300000000000003
1748285918807064959,-0.24
1748285918814752080,-0.265
1748285918822439201,-0.138
1748285918830126322,-0.063
1748285918837813443,-0.10200000000000001
1748285918845500564,-0.08700000000000001
1748285918853187685,-0.051000000000000004
1748285918860874806,-0.053
1748285918868561927,-0.048
1748285918876249048,-0.029
1748285918883936169,-0.024
1748285918891623290,-0.019
1748285918899310411,-0.007
1748285918906997532,0.002
1748285918914684653,0.009000000000000001
1748285918922371774,0.014
1748285918930058895,0.021
1748285918937746016,0.031
1748285918945433137,0.043000000000000003
1748285918953120258,0.055
1748285918960807379,0.063
1748285918968494500,0.07200000000000001
1748285918976181621,0.08700000000000001
1748285918983868742,0.097
1748285918991555863,0.109
1748285918999242984,0.124
1748285919006930105,0.138
1748285919014617226,0.153
1748285919022304347,0.167
1748285919029991532,0.182,51,1194
1748285919037678653,0.192
1748285919045365774,0.201
1748285919053052895,0.20600000000000002
1748285919060740016,0.20400000000000001
1748285919068427137,0.201
1748285919076114258,0.194
1748285919083801379,0.177
1748285919091488500,0.14300000000000002
1748285919099175621,0.097
1748285919106862742,0.043000000000000003
1748285919114549863,-0.009000000000000001
1748285919122236984,-0.058
1748285919129924105,-0.099
1748285919137611226,-0.128
1748285919145298347,-0.148
1748285919152985468,-0.16
1748285919160672589,-0.165
1748285919168359710,-0.163
1748285919176046831,-0.16
1748285919183733952,-0.155
1748285919191421073,-0.15
1748285919199108194,-0.145
1748285919206795315,-0.14100000000000001
1748285919214482436,-0.136
1748285919222169557,-0.131
1748285919229856678,-0.128
1748285919237543799,-0.126
1748285919245230920,-0.126
1748285919252918041,-0.126
1748285919260605162,-0.126
1748285919268292283,-0.126
1748285919275979404,-0.126
1748285919283666525,-0.126
1748285919291353646,-0.126
1748285919299040767,-0.126
1748285919306727888,-0.124
1748285919314415009,-0.124
1748285919322102130,-0.121
1748285919329789251,-0.11900000000000001
1748285919337476372,-0.116
1748285919345163493,-0.114
1748285919352850614,-0.111
1748285919360537735,-0.109
1748285919368224856,-0.10400000000000001
1748285919375911977,-0.10200000000000001
1748285919383599098,-0.099
1748285919391286219,-0.097
1748285919398973340,-0.094
1748285919406660461,-0.092
1748285919414347582,-0.09
1748285919422034703,-0.08700000000000001
1748285919429721824,-0.085
1748285919437408945,-0.082
1748285919445096066,-0.08
1748285919452783187,-0.077
1748285919460470308,-0.075
1748285919468157429,-0.07200000000000001
1748285919475844550,-0.07200000000000001
1748285919483531671,-0.07
1748285919491218792,-0.068
1748285919498905913,-0.068
1748285919506593034,-0.065
1748285919514280155,-0.065
1748285919521967276,-0.063
1748285919529654397,-0.06
1748285919537341518,-0.06
1748285919545028639,-0.058
1748285919552715760,-0.058
1748285919560402881,-0.055
1748285919568090002,-0.055
1748285919575777123,-0.053
1748285919583464244,-0.053
1748285919591151433,-0.051000000000000004
1748285919598838206,-0.051000000000000004
1748285919606524979,-0.048
1748285919614211752,-0.048
1748285919621898525,-0.051000000000000004
1748285919629585298,-0.053
1748285919637272071,-0.055
1748285919644958844,-0.053
1748285919652645617,-0.046
1748285919660332390,-0.029
1748285919668019163,-0.012
1748285919675705936,-0.012
1748285919683392709,-0.009000000000000001
1748285919691079482,-0.009000000000000001
1748285919698766255,-0.029
1748285919706453028,-0.048
1748285919714139801,-0.048
1748285919721826574,-0.048
1748285919729513347,-0.051000000000000004
1748285919737200120,-0.046
1748285919744886893,-0.046
1748285919752573666,-0.053
1748285919760260439,-0.08
1748285919767947212,-0.092
1748285919775633985,0.145
1748285919783320758,0.8240000000000001
1748285919791007531,1.3840000000000001
1748285919798694304,1.0
1748285919806381077,-0.097
1748285919814067850,-0.7030000000000001
1748285919821754623,-0.447
1748285919829441396,-0.209
1748285919837128169,-0.243
1748285919844814942,-0.155
1748285919852501715,-0.068
1748285919860188488,-0.10200000000000001
1748285919867875261,-0.099
1748285919875562034,-0.058
1748285919883248807,-0.055
1748285919890935580,-0.055
1748285919898622353,-0.036000000000000004
1748285919906309126,-0.029
1748285919913995899,-0.026000000000000002
1748285919921682672,-0.014
1748285919929369445,-0.004
1748285919937056218,0.0
1748285919944742991,0.009000000000000001
1748285919952429764,0.019
1748285919960116537,0.029
1748285919967803310,0.038
1748285919975490083,0.051000000000000004
1748285919983176856,0.058
1748285919990863629,0.068
1748285919998550402,0.08
1748285920006237175,0.092
1748285920013923948,0.10400000000000001
1748285920021610721,0.11900000000000001
1748285920029297494,0.131
1748285920036984267,0.148
1748285920044671040,0.163
1748285920052357813,0.177
1748285920060044586,0.189
1748285920067731359,0.197
1748285920075418132,0.201
1748285920083104905,0.201
1748285920090791678,0.199
1748285920098478451,0.192
1748285920106165224,0.17200000000000001
1748285920113851997,0.14100000000000001
1748285920121538770,0.097
1748285920129225543,0.048
1748285920136912316,-0.002
1748285920144599089,-0.048
1748285920152285899,-0.08700000000000001,51,1100
1748285920159973647,-0.116
1748285920167661395,-0.136
1748285920175349143,-0.145
1748285920183036891,-0.148
1748285920190724639,-0.148
1748285920198412387,-0.145
1748285920206100135,-0.14100000000000001
1748285920213787883,-0.138
1748285920221475631,-0.133
1748285920229163379,-0.128
1748285920236851127,-0.126
1748285920244538875,-0.121
1748285920252226623,-0.11900000000000001
1748285920259914371,-0.116
1748285920267602119,-0.116
1748285920275289867,-0.114
1748285920282977615,-0.114
1748285920290665363,-0.114
1748285920298353111,-0.114
1748285920306040859,-0.114
1748285920313728607,-0.114
1748285920321416355,-0.114
1748285920329104103,-0.114
1748285920336791851,-0.111
1748285920344479599,-0.111
1748285920352167347,-0.109
1748285920359855095,-0.107
1748285920367542843,-0.10400000000000001
1748285920375230591,-0.10200000000000001
1748285920382918339,-0.099
1748285920390606087,-0.099
1748285920398293835,-0.097
1748285920405981583,-0.094
1748285920413669331,-0.09
1748285920421357079,-0.08700000000000001
1748285920429044827,-0.085
1748285920436732575,-0.082
1748285920444420323,-0.08
1748285920452108071,-0.077
1748285920459795819,-0.075
1748285920467483567,-0.07200000000000001
1748285920475171315,-0.07
1748285920482859063,-0.068
1748285920490546811,-0.068
1748285920498234559,-0.065
1748285920505922307,-0.065
1748285920513610055,-0.063
1748285920521297803,-0.06
1748285920528985551,-0.06
1748285920536673299,-0.058
1748285920544361047,-0.055
1748285920552048795,-0.055
1748285920559736543,-0.053
1748285920567424291,-0.053
1748285920575112039,-0.053
1748285920582799787,-0.051000000000000004
1748285920590487535,-0.051000000000000004
1748285920598175283,-0.048
1748285920605863031,-0.046
1748285920613550779,-0.046
1748285920621238527,-0.046
1748285920628926275,-0.046
1748285920636614023,-0.043000000000000003
1748285920644301771,-0.043000000000000003
1748285920651989519,-0.043000000000000003
1748285920659677267,-0.041
1748285920667365015,-0.043000000000000003
1748285920675052763,-0.043000000000000003
1748285920682740511,-0.041
1748285920690428259,-0.041
1748285920698116007,-0.041
1748285920705803755,-0.038
1748285920713491573,-0.036000000000000004
1748285920721177998,-0.036000000000000004
1748285920728864423,-0.038
1748285920736550848,-0.036000000000000004
1748285920744237273,-0.036000000000000004
1748285920751923698,-0.036000000000000004
1748285920759610123,-0.036000000000000004
1748285920767296548,-0.036000000000000004
1748285920774982973,-0.036000000000000004
1748285920782669398,-0.038
1748285920790355823,-0.043000000000000003
1748285920798042248,-0.046
1748285920805728673,-0.038
1748285920813415098,-0.029
1748285920821101523,-0.009000000000000001
1748285920828787948,0.0
1748285920836474373,-0.002
1748285920844160798,0.0
1748285920851847223,-0.007
1748285920859533648,-0.029
1748285920867220073,-0.043000000000000003
1748285920874906498,-0.038
1748285920882592923,-0.041
1748285920890279348,-0.043000000000000003
1748285920897965773,-0.038
1748285920905652198,-0.036000000000000004
1748285920913338623,-0.051000000000000004
1748285920921025048,-0.09
1748285920928711473,-0.06
1748285920936397898,0.338
1748285920944084323,1.073
1748285920951770748,1.377
1748285920959457173,0.6880000000000001
1748285920967143598,-0.34700000000000003
1748285920974830023,-0.637
1748285920982516448,-0.306
1748285920990202873,-0.189
1748285920997889298,-0.223
1748285921005575723,-0.121
1748285921013262148,-0.08
1748285921020948573,-0.114
1748285921028634998,-0.09
1748285921036321423,-0.06
1748285921044007848,-0.063
1748285921051694273,-0.055
1748285921059380698,-0.038
1748285921067067123,-0.034
1748285921074753548,-0.029
1748285921082439973,-0.014
1748285921090126398,-0.004
1748285921097812823,0.0
1748285921105499248,0.012
1748285921113185673,0.019
1748285921120872098,0.029
1748285921128558523,0.038
1748285921136244948,0.048
1748285921143931373,0.058
1748285921151617798,0.068
1748285921159304223,0.077
1748285921166990648,0.09
1748285921174677073,0.099
1748285921182363498,0.109
1748285921190049923,0.124
1748285921197736348,0.138
1748285921205422773,0.15
1748285921213109198,0.163
1748285921220795623,0.17200000000000001
1748285921228482048,0.18
1748285921236168473,0.184
1748285921243854898,0.184
1748285921251541323,0.182
1748285921259227748,0.17500000000000002
1748285921266914173,0.163
1748285921274600606,0.136,51,1070
1748285921282287588,0.099
1748285921289974570,0.053
1748285921297661552,0.007
1748285921305348534,-0.034
1748285921313035516,-0.07
1748285921320722498,-0.097
1748285921328409480,-0.116
1748285921336096462,-0.128
1748285921343783444,-0.136
1748285921351470426,-0.136
1748285921359157408,-0.133
1748285921366844390,-0.131
1748285921374531372,-0.126
1748285921382218354,-0.121
1748285921389905336,-0.11900000000000001
1748285921397592318,-0.116
1748285921405279300,-0.114
1748285921412966282,-0.111
1748285921420653264,-0.111
1748285921428340246,-0.111
1748285921436027228,-0.109
1748285921443714210,-0.109
1748285921451401192,-0.111
1748285921459088174,-0.111
1748285921466775156,-0.111
1748285921474462138,-0.109
1748285921482149120,-0.109
1748285921489836102,-0.111
1748285921497523084,-0.109
1748285921505210066,-0.107
1748285921512897048,-0.107
1748285921520584030,-0.10400000000000001
1748285921528271012,-0.10400000000000001
1748285921535957994,-0.10200000000000001
1748285921543644976,-0.099
1748285921551331958,-0.097
1748285921559018940,-0.094
1748285921566705922,-0.09
1748285921574392904,-0.08700000000000001
1748285921582079886,-0.08700000000000001
1748285921589766868,-0.08700000000000001
1748285921597453850,-0.085
1748285921605140832,-0.082
1748285921612827814,-0.08
1748285921620514796,-0.077
1748285921628201778,-0.075
1748285921635888760,-0.07200000000000001
1748285921643575742,-0.07
1748285921651262724,-0.068
1748285921658949706,-0.068
1748285921666636688,-0.065
1748285921674323670,-0.065
1748285921682010652,-0.065
1748285921689697634,-0.063
1748285921697384616,-0.06
1748285921705071598,-0.06
1748285921712758580,-0.06
1748285921720445562,-0.055
1748285921728132544,-0.053
1748285921735819526,-0.053
1748285921743506508,-0.051000000000000004
1748285921751193490,-0.053
1748285921758880472,-0.053
1748285921766567454,-0.051000000000000004
1748285921774254436,-0.051000000000000004
1748285921781941418,-0.051000000000000004
1748285921789628400,-0.046
1748285921797315382,-0.046
1748285921805002364,-0.043000000000000003
1748285921812689346,-0.043000000000000003
1748285921820376328,-0.046
1748285921828063310,-0.046
1748285921835750333,-0.043000000000000003,51
1748285921843437176,-0.043000000000000003
1748285921851124019,-0.043000000000000003
1748285921858810862,-0.038
1748285921866497705,-0.036000000000000004
1748285921874184548,-0.038
1748285921881871391,-0.038
1748285921889558234,-0.036000000000000004
1748285921897245077,-0.036000000000000004
1748285921904931920,-0.038
1748285921912618763,-0.046
1748285921920305606,-0.048
1748285921927992449,-0.041
1748285921935679292,-0.036000000000000004
1748285921943366135,-0.021
1748285921951052978,-0.004
1748285921958739821,-0.004
1748285921966426664,-0.004
1748285921974113507,-0.004
1748285921981800350,-0.024
1748285921989487193,-0.041
1748285921997174036,-0.043000000000000003
1748285922004860879,-0.043000000000000003
1748285922012547722,-0.048
1748285922020234565,-0.046
1748285922027921408,-0.041
1748285922035608251,-0.048
1748285922043295094,-0.077
1748285922050981937,-0.082
1748285922058668780,0.199
1748285922066355623,0.905
1748285922074042466,1.391
1748285922081729309,0.883
1748285922089416152,-0.231
1748285922097102995,-0.737
1748285922104789838,-0.433
1748285922112476681,-0.223
1748285922120163524,-0.255
1748285922127850367,-0.148
1748285922135537210,-0.065
1748285922143224053,-0.10200000000000001
1748285922150910896,-0.092
1748285922158597739,-0.051000000000000004
1748285922166284582,-0.053
1748285922173971425,-0.053
1748285922181658268,-0.034
1748285922189345111,-0.026000000000000002
1748285922197031954,-0.024
1748285922204718797,-0.012
1748285922212405640,-0.002
1748285922220092483,0.002
1748285922227779326,0.012
1748285922235466169,0.021
1748285922243153012,0.029
1748285922250839855,0.038
1748285922258526698,0.048
1748285922266213541,0.058
1748285922273900384,0.07
1748285922281587227,0.08
1748285922289274070,0.092
1748285922296960913,0.107
1748285922304647756,0.11900000000000001
1748285922312334599,0.133
1748285922320021442,0.15
1748285922327708285,0.167
1748285922335395128,0.18
1748285922343081971,0.192
1748285922350768814,0.201
1748285922358455657,0.20600000000000002
1748285922366142500,0.20600000000000002
1748285922373829343,0.20400000000000001
1748285922381516186,0.197
1748285922389203029,0.18
1748285922396889882,0.15
1748285922404577003,0.107
1748285922412264124,0.053
1748285922419951245,0.0
1748285922427638366,-0.051000000000000004
1748285922435325487,-0.092
1748285922443012608,-0.124
1748285922450699729,-0.145
1748285922458386850,-0.158
1748285922466073971,-0.163
1748285922473761092,-0.163
1748285922481448213,-0.16
1748285922489135334,-0.155
1748285922496822455,-0.15
1748285922504509576,-0.14300000000000002
1748285922512196697,-0.14100000000000001
1748285922519883818,-0.138
1748285922527570939,-0.133
1748285922535258060,-0.128
1748285922542945181,-0.126
1748285922550632302,-0.126
1748285922558319423,-0.124
1748285922566006544,-0.124
1748285922573693665,-0.124
1748285922581380786,-0.126
1748285922589067907,-0.126
1748285922596755028,-0.126
1748285922604442149,-0.126
1748285922612129270,-0.126
1748285922619816391,-0.124
1748285922627503512,-0.121
1748285922635190633,-0.11900000000000001
1748285922642877754,-0.116
1748285922650564875,-0.116
1748285922658251996,-0.111
1748285922665939117,-0.109
1748285922673626238,-0.107
1748285922681313359,-0.10400000000000001
1748285922689000480,-0.10200000000000001
1748285922696687601,-0.099
1748285922704374722,-0.097
1748285922712061843,-0.092
1748285922719748964,-0.09
1748285922727436085,-0.085
1748285922735123206,-0.082
1748285922742810327,-0.082
1748285922750497448,-0.077
1748285922758184569,-0.075
1748285922765871690,-0.075
1748285922773558811,-0.07200000000000001
1748285922781245932,-0.07
1748285922788933053,-0.07
1748285922796620174,-0.07
1748285922804307295,-0.068
1748285922811994416,-0.065
1748285922819681537,-0.063
1748285922827368658,-0.063
1748285922835055779,-0.06
1748285922842742900,-0.058
1748285922850430021,-0.058
1748285922858117142,-0.055
1748285922865804263,-0.055
1748285922873491384,-0.055
1748285922881178505,-0.053
1748285922888865626,-0.051000000000000004
1748285922896552747,-0.051000000000000004
1748285922904239868,-0.048
1748285922911926989,-0.048
1748285922919614110,-0.048
1748285922927301231,-0.046
1748285922934988352,-0.043000000000000003
1748285922942675473,-0.043000000000000003
1748285922950362594,-0.043000000000000003
1748285922958049779,-0.041,52,1024
1748285922965736900,-0.043000000000000003
1748285922973424021,-0.041
1748285922981111142,-0.038
1748285922988798263,-0.041
1748285922996485384,-0.046
1748285923004172505,-0.051000000000000004
1748285923011859626,-0.051000000000000004
1748285923019546747,-0.046
1748285923027233868,-0.036000000000000004
1748285923034920989,-0.014
1748285923042608110,-0.004
1748285923050295231,-0.009000000000000001
1748285923057982352,-0.004
1748285923065669473,-0.009000000000000001
1748285923073356594,-0.031
1748285923081043715,-0.046
1748285923088730836,-0.043000000000000003
1748285923096417957,-0.046
1748285923104105078,-0.046
1748285923111792199,-0.043000000000000003
1748285923119479320,-0.043000000000000003
1748285923127166441,-0.055
1748285923134853562,-0.094
1748285923142540683,-0.058
1748285923150227804,0.34700000000000003
1748285923157914925,1.092
1748285923165602046,1.403
1748285923173289167,0.708
1748285923180976288,-0.36
1748285923188663409,-0.656
1748285923196350530,-0.311
1748285923204037651,-0.194
1748285923211724772,-0.231
1748285923219411893,-0.121
1748285923227099014,-0.082
1748285923234786135,-0.11900000000000001
1748285923242473256,-0.094
1748285923250160377,-0.063
1748285923257847498,-0.07
1748285923265534619,-0.06
1748285923273221740,-0.041
1748285923280908861,-0.036000000000000004
1748285923288595982,-0.031
1748285923296283103,-0.019
1748285923303970224,-0.012
1748285923311657345,-0.004
1748285923319344466,0.007
1748285923327031587,0.017
1748285923334718708,0.026000000000000002
1748285923342405829,0.036000000000000004
1748285923350092950,0.046
1748285923357780071,0.055
1748285923365467192,0.068
1748285923373154313,0.077
1748285923380841434,0.09
1748285923388528555,0.10200000000000001
1748285923396215676,0.114
1748285923403902797,0.128
1748285923411589918,0.14300000000000002
1748285923419277039,0.155
1748285923426964160,0.17
1748285923434651281,0.18
1748285923442338402,0.187
1748285923450025523,0.189
1748285923457712644,0.192
1748285923465399765,0.189
1748285923473086886,0.18
1748285923480774007,0.163
1748285923488461128,0.131
1748285923496148249,0.09
1748285923503835370,0.043000000000000003
1748285923511522491,-0.004
1748285923519209680,-0.053
1748285923526896523,-0.09
1748285923534583366,-0.116
1748285923542270209,-0.136
1748285923549957052,-0.145
1748285923557643895,-0.148
1748285923565330738,-0.15
1748285923573017581,-0.148
1748285923580704424,-0.145
1748285923588391267,-0.14100000000000001
1748285923596078110,-0.136
1748285923603764953,-0.133
1748285923611451796,-0.128
1748285923619138639,-0.126
1748285923626825482,-0.124
1748285923634512325,-0.121
1748285923642199168,-0.11900000000000001
1748285923649886011,-0.11900000000000001
1748285923657572854,-0.121
1748285923665259697,-0.11900000000000001
1748285923672946540,-0.121
1748285923680633383,-0.121
1748285923688320226,-0.121
1748285923696007069,-0.121
1748285923703693912,-0.121
1748285923711380755,-0.11900000000000001
1748285923719067598,-0.116
1748285923726754441,-0.114
1748285923734441284,-0.114
1748285923742128127,-0.109
1748285923749814970,-0.107
1748285923757501813,-0.10400000000000001
1748285923765188656,-0.10200000000000001
1748285923772875499,-0.10200000000000001
1748285923780562342,-0.099
1748285923788249185,-0.097
1748285923795936028,-0.094
1748285923803622871,-0.092
1748285923811309714,-0.09
1748285923818996557,-0.08700000000000001
1748285923826683400,-0.082
1748285923834370243,-0.08
1748285923842057086,-0.08
1748285923849743929,-0.077
1748285923857430772,-0.077
1748285923865117615,-0.075
1748285923872804458,-0.07200000000000001
1748285923880491301,-0.07
1748285923888178144,-0.07
1748285923895864987,-0.068
1748285923903551830,-0.065
1748285923911238673,-0.065
1748285923918925516,-0.063
1748285923926612359,-0.063
1748285923934299202,-0.06
1748285923941986045,-0.06
1748285923949672888,-0.058
1748285923957359731,-0.058
1748285923965046574,-0.055
1748285923972733417,-0.055
1748285923980420260,-0.053
1748285923988107103,-0.053
1748285923995793946,-0.053
1748285924003480789,-0.051000000000000004
1748285924011167632,-0.048
1748285924018854475,-0.048
1748285924026541318,-0.048
1748285924034228161,-0.046
1748285924041915004,-0.046
1748285924049601847,-0.046
1748285924057288690,-0.043000000000000003
1748285924064975533,-0.043000000000000003
1748285924072662376,-0.046
1748285924080349233,-0.043000000000000003,52,1158
1748285924088036215,-0.041
1748285924095723197,-0.041
1748285924103410179,-0.041
1748285924111097161,-0.038
1748285924118784143,-0.038
1748285924126471125,-0.041
1748285924134158107,-0.038
1748285924141845089,-0.036000000000000004
1748285924149532071,-0.036000000000000004
1748285924157219053,-0.036000000000000004
1748285924164906035,-0.038
1748285924172593017,-0.036000000000000004
1748285924180279999,-0.036000000000000004
1748285924187966981,-0.041
1748285924195653963,-0.048
1748285924203340945,-0.048
1748285924211027927,-0.043000000000000003
1748285924218714909,-0.031
1748285924226401891,-0.012
1748285924234088873,-0.004
1748285924241775855,-0.007
1748285924249462837,-0.004
1748285924257149819,-0.012
1748285924264836801,-0.034
1748285924272523783,-0.046
1748285924280210765,-0.043000000000000003
1748285924287897747,-0.043000000000000003
1748285924295584729,-0.046
1748285924303271711,-0.041
1748285924310958693,-0.043000000000000003
1748285924318645675,-0.06
1748285924326332657,-0.097
1748285924334019639,-0.021
1748285924341706621,0.457
1748285924349393603,1.17
1748285924357080585,1.306
1748285924364767567,0.47900000000000004
1748285924372454549,-0.47900000000000004
1748285924380141531,-0.598
1748285924387828513,-0.262
1748285924395515495,-0.20600000000000002
1748285924403202477,-0.211
1748285924410889459,-0.10400000000000001
1748285924418576441,-0.08700000000000001
1748285924426263423,-0.116
1748285924433950405,-0.085
1748285924441637387,-0.063
1748285924449324369,-0.068
1748285924457011351,-0.055
1748285924464698333,-0.041
1748285924472385315,-0.036000000000000004
1748285924480072297,-0.029
1748285924487759279,-0.019
1748285924495446261,-0.009000000000000001
1748285924503133243,-0.002
1748285924510820225,0.007
1748285924518507207,0.014
1748285924526194189,0.024
1748285924533881171,0.036000000000000004
1748285924541568153,0.043000000000000003
1748285924549255135,0.053
1748285924556942117,0.063
1748285924564629099,0.075
1748285924572316081,0.085
1748285924580003063,0.094
1748285924587690045,0.107
1748285924595377027,0.11900000000000001
1748285924603064009,0.131
1748285924610750991,0.14300000000000002
1748285924618437973,0.153
1748285924626124955,0.16
1748285924633811937,0.167
1748285924641498956,0.17200000000000001
1748285924649186077,0.17200000000000001
1748285924656873198,0.17
1748285924664560319,0.165
1748285924672247440,0.15
1748285924679934561,0.126
1748285924687621682,0.092
1748285924695308803,0.051000000000000004
1748285924702995924,0.004
1748285924710683045,-0.036000000000000004
1748285924718370166,-0.07200000000000001
1748285924726057287,-0.10200000000000001
1748285924733744408,-0.124
1748285924741431529,-0.136
1748285924749118650,-0.14100000000000001
1748285924756805771,-0.14100000000000001
1748285924764492892,-0.14100000000000001
1748285924772180013,-0.138
1748285924779867134,-0.136
1748285924787554255,-0.131
1748285924795241376,-0.128
1748285924802928497,-0.126
1748285924810615618,-0.124
1748285924818302739,-0.121
1748285924825989860,-0.11900000000000001
1748285924833676981,-0.11900000000000001
1748285924841364102,-0.11900000000000001
1748285924849051223,-0.11900000000000001
1748285924856738344,-0.121
1748285924864425465,-0.11900000000000001
1748285924872112586,-0.11900000000000001
1748285924879799707,-0.121
1748285924887486828,-0.121
1748285924895173949,-0.11900000000000001
1748285924902861070,-0.11900000000000001
1748285924910548191,-0.11900000000000001
1748285924918235312,-0.116
1748285924925922433,-0.114
1748285924933609554,-0.111
1748285924941296675,-0.111
1748285924948983796,-0.109
1748285924956670917,-0.107
1748285924964358038,-0.107
1748285924972045159,-0.10200000000000001
1748285924979732280,-0.099
1748285924987419401,-0.097
1748285924995106522,-0.097
1748285925002793643,-0.094
1748285925010480764,-0.092
1748285925018167885,-0.09
1748285925025855006,-0.09
1748285925033542127,-0.08700000000000001
1748285925041229248,-0.085
1748285925048916369,-0.082
1748285925056603490,-0.08
1748285925064290611,-0.077
1748285925071977732,-0.075
1748285925079664853,-0.075
1748285925087351974,-0.07200000000000001
1748285925095039095,-0.07
1748285925102726216,-0.07
1748285925110413337,-0.068
1748285925118100458,-0.068
1748285925125787579,-0.065
1748285925133474700,-0.063
1748285925141161821,-0.06
1748285925148848942,-0.06
1748285925156536063,-0.06
1748285925164223184,-0.06
1748285925171910305,-0.06
1748285925179597426,-0.058
1748285925187284547,-0.055
1748285925194971668,-0.055
1748285925202658853,-0.055,53,1124
1748285925210345905,-0.055
1748285925218032957,-0.053
1748285925225720009,-0.053
1748285925233407061,-0.051000000000000004
1748285925241094113,-0.051000000000000004
1748285925248781165,-0.053
1748285925256468217,-0.051000000000000004
1748285925264155269,-0.048
1748285925271842321,-0.051000000000000004
1748285925279529373,-0.048
1748285925287216425,-0.046
1748285925294903477,-0.046
1748285925302590529,-0.046
1748285925310277581,-0.046
1748285925317964633,-0.046
1748285925325651685,-0.046
1748285925333338737,-0.043000000000000003
1748285925341025789,-0.041
1748285925348712841,-0.041
1748285925356399893,-0.041
1748285925364086945,-0.041
1748285925371773997,-0.038
1748285925379461049,-0.041
1748285925387148101,-0.038
1748285925394835153,-0.041
1748285925402522205,-0.046
1748285925410209257,-0.051000000000000004
1748285925417896309,-0.046
1748285925425583361,-0.041
1748285925433270413,-0.029
1748285925440957465,-0.009000000000000001
1748285925448644517,-0.004
1748285925456331569,-0.007
1748285925464018621,-0.007
1748285925471705673,-0.019
1748285925479392725,-0.043000000000000003
1748285925487079777,-0.048
1748285925494766829,-0.046
1748285925502453881,-0.048
1748285925510140933,-0.048
1748285925517827985,-0.043000000000000003
1748285925525515037,-0.051000000000000004
1748285925533202089,-0.075
1748285925540889141,-0.094
1748285925548576193,0.121
1748285925556263245,0.764
1748285925563950297,1.311
1748285925571637349,0.98
1748285925579324401,-0.055
1748285925587011453,-0.681
1748285925594698505,-0.462
1748285925602385557,-0.214
1748285925610072609,-0.24
1748285925617759661,-0.165
1748285925625446713,-0.075
1748285925633133765,-0.10400000000000001
1748285925640820817,-0.10200000000000001
1748285925648507869,-0.06
1748285925656194921,-0.06
1748285925663881973,-0.06
1748285925671569025,-0.043000000000000003
1748285925679256077,-0.036000000000000004
1748285925686943129,-0.034
1748285925694630181,-0.021
1748285925702317233,-0.009000000000000001
1748285925710004285,-0.004
1748285925717691337,0.002
1748285925725378389,0.012
1748285925733065441,0.021
1748285925740752493,0.029
1748285925748439545,0.036000000000000004
1748285925756126597,0.046
1748285925763813667,0.058
1748285925771500440,0.068
1748285925779187213,0.077
1748285925786873986,0.08700000000000001
1748285925794560759,0.094
1748285925802247532,0.107
1748285925809934305,0.121
1748285925817621078,0.133
1748285925825307851,0.14100000000000001
1748285925832994624,0.15
1748285925840681397,0.155
1748285925848368170,0.163
1748285925856054943,0.165
1748285925863741716,0.163
1748285925871428489,0.158
1748285925879115262,0.15
1748285925886802035,0.133
1748285925894488808,0.10400000000000001
1748285925902175581,0.065
1748285925909862354,0.021
1748285925917549127,-0.021
1748285925925235900,-0.063
1748285925932922673,-0.097
1748285925940609446,-0.124
1748285925948296219,-0.14100000000000001
1748285925955982992,-0.15
1748285925963669765,-0.15
1748285925971356538,-0.15
1748285925979043311,-0.148
1748285925986730084,-0.14300000000000002
1748285925994416857,-0.138
1748285926002103630,-0.136
1748285926009790403,-0.133
1748285926017477176,-0.128
1748285926025163949,-0.128
1748285926032850722,-0.128
1748285926040537495,-0.126
1748285926048224268,-0.126
1748285926055911041,-0.128
1748285926063597814,-0.128
1748285926071284587,-0.128
1748285926078971360,-0.128
1748285926086658133,-0.128
1748285926094344906,-0.128
1748285926102031679,-0.128
1748285926109718452,-0.128
1748285926117405225,-0.126
1748285926125091998,-0.124
1748285926132778771,-0.121
1748285926140465544,-0.121
1748285926148152317,-0.11900000000000001
1748285926155839090,-0.114
1748285926163525863,-0.111
1748285926171212636,-0.111
1748285926178899409,-0.109
1748285926186586182,-0.107
1748285926194272955,-0.10400000000000001
1748285926201959728,-0.10200000000000001
1748285926209646501,-0.099
1748285926217333274,-0.097
1748285926225020047,-0.097
1748285926232706820,-0.094
1748285926240393593,-0.09
1748285926248080366,-0.08700000000000001
1748285926255767139,-0.085
1748285926263453912,-0.082
1748285926271140685,-0.08
1748285926278827458,-0.08
1748285926286514231,-0.077
1748285926294201004,-0.075
1748285926301887777,-0.075
1748285926309574550,-0.07200000000000001
1748285926317261323,-0.07
1748285926324948129,-0.07,53,1090
1748285926332635250,-0.068
1748285926340322371,-0.065
1748285926348009492,-0.065
1748285926355696613,-0.063
1748285926363383734,-0.063
1748285926371070855,-0.06
1748285926378757976,-0.06
1748285926386445097,-0.06
1748285926394132218,-0.055
1748285926401819339,-0.055
1748285926409506460,-0.053
1748285926417193581,-0.053
1748285926424880702,-0.051000000000000004
1748285926432567823,-0.048
1748285926440254944,-0.048
1748285926447942065,-0.048
1748285926455629186,-0.046
1748285926463316307,-0.043000000000000003
1748285926471003428,-0.043000000000000003
1748285926478690549,-0.043000000000000003
1748285926486377670,-0.041
1748285926494064791,-0.041
1748285926501751912,-0.041
1748285926509439033,-0.043000000000000003
1748285926517126154,-0.048
1748285926524813275,-0.051000000000000004
1748285926532500396,-0.046
1748285926540187517,-0.036000000000000004
1748285926547874638,-0.017
1748285926555561759,-0.007
1748285926563248880,-0.009000000000000001
1748285926570936001,-0.007
1748285926578623122,-0.014
1748285926586310243,-0.036000000000000004
1748285926593997364,-0.046
1748285926601684485,-0.046
1748285926609371606,-0.046
1748285926617058727,-0.048
1748285926624745848,-0.043000000000000003
1748285926632432969,-0.043000000000000003
1748285926640120090,-0.06
1748285926647807211,-0.094
1748285926655494332,0.0
1748285926663181453,0.501
1748285926670868574,1.204
1748285926678555695,1.26
1748285926686242816,0.355
1748285926693929937,-0.5690000000000001
1748285926701617058,-0.603
1748285926709304179,-0.267
1748285926716991300,-0.231
1748285926724678421,-0.209
1748285926732365542,-0.08700000000000001
1748285926740052663,-0.08
1748285926747739784,-0.107
1748285926755426905,-0.07200000000000001
1748285926763114026,-0.053
1748285926770801147,-0.06
1748285926778488268,-0.046
1748285926786175389,-0.031
1748285926793862510,-0.031
1748285926801549631,-0.024
1748285926809236752,-0.012
1748285926816923873,-0.004
1748285926824610994,0.004
1748285926832298115,0.014
1748285926839985236,0.021
1748285926847672357,0.029
1748285926855359478,0.038
1748285926863046599,0.051000000000000004
1748285926870733720,0.058
1748285926878420841,0.068
1748285926886108030,0.08,53,1190
1748285926893795151,0.09
1748285926901482272,0.099
1748285926909169393,0.109
1748285926916856514,0.121
1748285926924543635,0.133
1748285926932230756,0.145
1748285926939917877,0.155
1748285926947604998,0.165
1748285926955292119,0.17
1748285926962979240,0.17
1748285926970666361,0.17
1748285926978353482,0.165
1748285926986040603,0.155
1748285926993727724,0.138
1748285927001414845,0.109
1748285927009101966,0.07
1748285927016789087,0.024
1748285927024476208,-0.021
1748285927032163329,-0.063
1748285927039850450,-0.094
1748285927047537571,-0.11900000000000001
1748285927055224692,-0.138
1748285927062911813,-0.148
1748285927070598934,-0.15
1748285927078286055,-0.148
1748285927085973176,-0.148
1748285927093660297,-0.14300000000000002
1748285927101347418,-0.14100000000000001
1748285927109034539,-0.136
1748285927116721660,-0.131
1748285927124408781,-0.128
1748285927132095902,-0.126
1748285927139783023,-0.126
1748285927147470144,-0.124
1748285927155157265,-0.124
1748285927162844386,-0.124
1748285927170531507,-0.124
1748285927178218628,-0.124
1748285927185905749,-0.126
1748285927193592870,-0.126
1748285927201279991,-0.124
1748285927208967112,-0.124
1748285927216654233,-0.121
1748285927224341354,-0.121
1748285927232028475,-0.11900000000000001
1748285927239715596,-0.116
1748285927247402717,-0.116
1748285927255089838,-0.114
1748285927262776959,-0.111
1748285927270464080,-0.109
1748285927278151201,-0.10400000000000001
1748285927285838322,-0.10200000000000001
1748285927293525443,-0.099
1748285927301212564,-0.097
1748285927308899685,-0.094
1748285927316586806,-0.092
1748285927324273927,-0.09
1748285927331961048,-0.08700000000000001
1748285927339648169,-0.085
1748285927347335290,-0.082
1748285927355022411,-0.08
1748285927362709532,-0.08
1748285927370396653,-0.077
1748285927378083774,-0.075
1748285927385770895,-0.07200000000000001
1748285927393458016,-0.07200000000000001
1748285927401145137,-0.07
1748285927408832258,-0.07
1748285927416519379,-0.068
1748285927424206500,-0.065
1748285927431893621,-0.065
1748285927439580742,-0.063
1748285927447267927,-0.063
1748285927454954839,-0.063
1748285927462641751,-0.063
1748285927470328663,-0.06
1748285927478015575,-0.06
1748285927485702487,-0.058
1748285927493389399,-0.055
1748285927501076311,-0.055
1748285927508763223,-0.055
1748285927516450135,-0.055
1748285927524137047,-0.055
1748285927531823959,-0.053
1748285927539510871,-0.053
1748285927547197783,-0.051000000000000004
1748285927554884695,-0.048
1748285927562571607,-0.048
1748285927570258519,-0.048
1748285927577945431,-0.046
1748285927585632343,-0.046
1748285927593319255,-0.046
1748285927601006167,-0.043000000000000003
1748285927608693079,-0.043000000000000003
1748285927616379991,-0.046
1748285927624066903,-0.043000000000000003
1748285927631753815,-0.041
1748285927639440727,-0.043000000000000003
1748285927647127639,-0.041
1748285927654814551,-0.038
1748285927662501463,-0.038
1748285927670188375,-0.041
1748285927677875287,-0.041
1748285927685562199,-0.038
1748285927693249111,-0.036000000000000004
1748285927700936023,-0.038
1748285927708622935,-0.036000000000000004
1748285927716309847,-0.036000000000000004
1748285927723996759,-0.036000000000000004
1748285927731683671,-0.038
1748285927739370583,-0.046
1748285927747057495,-0.048
1748285927754744407,-0.043000000000000003
1748285927762431319,-0.036000000000000004
1748285927770118231,-0.021
1748285927777805143,-0.004
1748285927785492055,-0.004
1748285927793178967,-0.004
1748285927800865879,-0.002
1748285927808552791,-0.021
1748285927816239703,-0.041
1748285927823926615,-0.043000000000000003
1748285927831613527,-0.043000000000000003
1748285927839300439,-0.046
1748285927846987351,-0.043000000000000003
1748285927854674263,-0.043000000000000003
1748285927862361175,-0.051000000000000004
1748285927870048087,-0.082
1748285927877734999,-0.08
1748285927885421911,0.20600000000000002
1748285927893108823,0.885
1748285927900795735,1.333
1748285927908482647,0.854
1748285927916169559,-0.18
1748285927923856471,-0.654
1748285927931543383,-0.374
1748285927939230295,-0.189
1748285927946917207,-0.228
1748285927954604119,-0.14100000000000001
1748285927962291031,-0.075
1748285927969977943,-0.109
1748285927977664855,-0.099
1748285927985351767,-0.063
1748285927993038679,-0.065
1748285928000725591,-0.06
1748285928008412567,-0.043000000000000003,53,1211
1748285928016099479,-0.038
1748285928023786391,-0.034
1748285928031473303,-0.021
1748285928039160215,-0.012
1748285928046847127,-0.004
1748285928054534039,0.004
1748285928062220951,0.012
1748285928069907863,0.021
1748285928077594775,0.029
1748285928085281687,0.038
1748285928092968599,0.048
1748285928100655511,0.058
1748285928108342423,0.065
1748285928116029335,0.075
1748285928123716247,0.085
1748285928131403159,0.094
1748285928139090071,0.10400000000000001
1748285928146776983,0.114
1748285928154463895,0.124
1748285928162150807,0.133
1748285928169837719,0.14100000000000001
1748285928177524631,0.148
1748285928185211543,0.15
1748285928192898455,0.15
1748285928200585367,0.15
1748285928208272279,0.145
1748285928215959191,0.138
1748285928223646103,0.121
1748285928231333015,0.094
1748285928239019927,0.058
1748285928246706839,0.019
1748285928254393751,-0.019
1748285928262080663,-0.058
1748285928269767575,-0.08700000000000001
1748285928277454487,-0.111
1748285928285141399,-0.128
1748285928292828311,-0.136
1748285928300515223,-0.14100000000000001
1748285928308202135,-0.138
1748285928315889047,-0.136
1748285928323575959,-0.131
1748285928331262871,-0.128
1748285928338949783,-0.126
1748285928346636695,-0.124
1748285928354323607,-0.121
1748285928362010519,-0.11900000000000001
1748285928369697431,-0.11900000000000001
1748285928377384343,-0.11900000000000001
1748285928385071255,-0.11900000000000001
1748285928392758167,-0.11900000000000001
1748285928400445079,-0.11900000000000001
1748285928408131991,-0.121
1748285928415818903,-0.121
1748285928423505815,-0.121
1748285928431192727,-0.121
1748285928438879639,-0.121
1748285928446566551,-0.11900000000000001
1748285928454253463,-0.11900000000000001
1748285928461940375,-0.116
1748285928469627287,-0.114
1748285928477314199,-0.111
1748285928485001111,-0.109
1748285928492688023,-0.109
1748285928500374935,-0.107
1748285928508061847,-0.10200000000000001
1748285928515748759,-0.10200000000000001
1748285928523435671,-0.097
1748285928531122583,-0.094
1748285928538809495,-0.094
1748285928546496407,-0.092
1748285928554183319,-0.08700000000000001
1748285928561870231,-0.08700000000000001
1748285928569557203,-0.085
1748285928577244324,-0.082
1748285928584931445,-0.082
1748285928592618566,-0.08
1748285928600305687,-0.077
1748285928607992808,-0.077
1748285928615679929,-0.077
1748285928623367050,-0.075
1748285928631054171,-0.07200000000000001
1748285928638741292,-0.07200000000000001
1748285928646428413,-0.07
1748285928654115534,-0.068
1748285928661802655,-0.068
1748285928669489776,-0.065
1748285928677176897,-0.063
1748285928684864018,-0.063
1748285928692551139,-0.063
1748285928700238260,-0.06
1748285928707925381,-0.058
1748285928715612502,-0.058
1748285928723299623,-0.058
1748285928730986744,-0.058
1748285928738673865,-0.055
1748285928746360986,-0.055
1748285928754048107,-0.055
1748285928761735228,-0.053
1748285928769422349,-0.051000000000000004
1748285928777109470,-0.051000000000000004
1748285928784796591,-0.048
1748285928792483712,-0.048
1748285928800170833,-0.048
1748285928807857954,-0.046
1748285928815545075,-0.046
1748285928823232196,-0.048
1748285928830919317,-0.048
1748285928838606438,-0.043000000000000003
1748285928846293559,-0.043000000000000003
1748285928853980680,-0.046
1748285928861667801,-0.043000000000000003
1748285928869354922,-0.041
1748285928877042043,-0.043000000000000003
1748285928884729164,-0.043000000000000003
1748285928892416285,-0.041
1748285928900103406,-0.041
1748285928907790527,-0.041
1748285928915477648,-0.041
1748285928923164769,-0.041
1748285928930851890,-0.043000000000000003
1748285928938539011,-0.048
1748285928946226132,-0.051000000000000004
1748285928953913253,-0.046
1748285928961600374,-0.041
1748285928969287495,-0.024
1748285928976974616,-0.007
1748285928984661737,-0.007
1748285928992348858,-0.007
1748285929000035979,-0.007
1748285929007723100,-0.026000000000000002
1748285929015410221,-0.046
1748285929023097342,-0.048
1748285929030784463,-0.048
1748285929038471584,-0.048
1748285929046158705,-0.048
1748285929053845826,-0.046
1748285929061532947,-0.053
1748285929069220068,-0.085
1748285929076907189,-0.077
1748285929084594310,0.23800000000000002
1748285929092281431,0.931
1748285929099968552,1.328
1748285929107655673,0.781
1748285929115342794,-0.248
1748285929123029915,-0.654
1748285929130717100,-0.36,53
1748285929138404221,-0.199
1748285929146091342,-0.228
1748285929153778463,-0.133
1748285929161465584,-0.077
1748285929169152705,-0.111
1748285929176839826,-0.094
1748285929184526947,-0.063
1748285929192214068,-0.068
1748285929199901189,-0.063
1748285929207588310,-0.043000000000000003
1748285929215275431,-0.036000000000000004
1748285929222962552,-0.034
1748285929230649673,-0.021
1748285929238336794,-0.012
1748285929246023915,-0.007
1748285929253711036,0.002
1748285929261398157,0.009000000000000001
1748285929269085278,0.019
1748285929276772399,0.026000000000000002
1748285929284459520,0.036000000000000004
1748285929292146641,0.046
1748285929299833762,0.055
1748285929307520883,0.065
1748285929315208004,0.075
1748285929322895125,0.085
1748285929330582246,0.094
1748285929338269367,0.10400000000000001
1748285929345956488,0.114
1748285929353643609,0.126
1748285929361330730,0.136
1748285929369017851,0.14300000000000002
1748285929376704972,0.148
1748285929384392093,0.15
1748285929392079214,0.15
1748285929399766335,0.148
1748285929407453456,0.14300000000000002
1748285929415140577,0.133
1748285929422827698,0.114
1748285929430514819,0.085
1748285929438201940,0.046
1748285929445889061,0.004
1748285929453576182,-0.036000000000000004
1748285929461263303,-0.07200000000000001
1748285929468950424,-0.099
1748285929476637545,-0.121
1748285929484324666,-0.138
1748285929492011787,-0.145
1748285929499698908,-0.145
1748285929507386029,-0.145
1748285929515073150,-0.14300000000000002
1748285929522760271,-0.14100000000000001
1748285929530447392,-0.138
1748285929538134513,-0.133
1748285929545821634,-0.128
1748285929553508755,-0.126
1748285929561195876,-0.126
1748285929568882997,-0.124
1748285929576570118,-0.126
1748285929584257239,-0.124
1748285929591944360,-0.124
1748285929599631481,-0.124
1748285929607318602,-0.124
1748285929615005723,-0.124
1748285929622692844,-0.124
1748285929630379965,-0.124
1748285929638067086,-0.124
1748285929645754207,-0.121
1748285929653441328,-0.121
1748285929661128449,-0.11900000000000001
1748285929668815570,-0.116
1748285929676502691,-0.114
1748285929684189812,-0.109
1748285929691877001,-0.109
1748285929699563774,-0.107
1748285929707250547,-0.10400000000000001
1748285929714937320,-0.10400000000000001
1748285929722624093,-0.10200000000000001
1748285929730310866,-0.097
1748285929737997639,-0.097
1748285929745684412,-0.094
1748285929753371185,-0.092
1748285929761057958,-0.09
1748285929768744731,-0.08700000000000001
1748285929776431504,-0.085
1748285929784118277,-0.082
1748285929791805050,-0.08
1748285929799491823,-0.08
1748285929807178596,-0.077
1748285929814865369,-0.075
1748285929822552142,-0.075
1748285929830238915,-0.07200000000000001
1748285929837925688,-0.07
1748285929845612461,-0.07
1748285929853299234,-0.068
1748285929860986007,-0.065
1748285929868672780,-0.065
1748285929876359553,-0.063
1748285929884046326,-0.063
1748285929891733099,-0.063
1748285929899419872,-0.06
1748285929907106645,-0.06
1748285929914793418,-0.058
1748285929922480191,-0.058
1748285929930166964,-0.055
1748285929937853737,-0.053
1748285929945540510,-0.053
1748285929953227283,-0.051000000000000004
1748285929960914056,-0.051000000000000004
1748285929968600829,-0.051000000000000004
1748285929976287602,-0.048
1748285929983974375,-0.048
1748285929991661148,-0.051000000000000004
1748285929999347921,-0.048
1748285930007034694,-0.043000000000000003
1748285930014721467,-0.043000000000000003
1748285930022408240,-0.043000000000000003
1748285930030095013,-0.041
1748285930037781786,-0.041
1748285930045468559,-0.041
1748285930053155332,-0.043000000000000003
1748285930060842105,-0.041
1748285930068528878,-0.038
1748285930076215651,-0.038
1748285930083902424,-0.041
1748285930091589197,-0.041
1748285930099275970,-0.043000000000000003
1748285930106962743,-0.048
1748285930114649516,-0.048
1748285930122336289,-0.046
1748285930130023062,-0.038
1748285930137709835,-0.017
1748285930145396608,-0.002
1748285930153083381,-0.004
1748285930160770154,-0.007
1748285930168456927,-0.014
1748285930176143700,-0.034
1748285930183830473,-0.046
1748285930191517246,-0.043000000000000003
1748285930199204019,-0.048
1748285930206890792,-0.051000000000000004
1748285930214577565,-0.046
1748285930222264338,-0.046
1748285930229951111,-0.06
1748285930237637884,-0.094
1748285930245324657,-0.026000000000000002
1748285930253011467,0.437,52,1109
1748285930260698519,1.1460000000000001
1748285930268385571,1.26
1748285930276072623,0.396
1748285930283759675,-0.547
1748285930291446727,-0.627
1748285930299133779,-0.289
1748285930306820831,-0.231
1748285930314507883,-0.214
1748285930322194935,-0.09
1748285930329881987,-0.075
1748285930337569039,-0.10400000000000001
1748285930345256091,-0.068
1748285930352943143,-0.046
1748285930360630195,-0.051000000000000004
1748285930368317247,-0.038
1748285930376004299,-0.024
1748285930383691351,-0.021
1748285930391378403,-0.014
1748285930399065455,-0.004
1748285930406752507,0.002
1748285930414439559,0.009000000000000001
1748285930422126611,0.019
1748285930429813663,0.024
1748285930437500715,0.031
1748285930445187767,0.043000000000000003
1748285930452874819,0.053
1748285930460561871,0.06
1748285930468248923,0.07
1748285930475935975,0.082
1748285930483623027,0.092
1748285930491310079,0.10400000000000001
1748285930498997131,0.116
1748285930506684183,0.126
1748285930514371235,0.138
1748285930522058287,0.15
1748285930529745339,0.158
1748285930537432391,0.165
1748285930545119443,0.17
1748285930552806495,0.17200000000000001
1748285930560493547,0.17200000000000001
1748285930568180599,0.17200000000000001
1748285930575867651,0.165
1748285930583554703,0.148
1748285930591241755,0.121
1748285930598928807,0.082
1748285930606615859,0.036000000000000004
1748285930614302911,-0.012
1748285930621989963,-0.055
1748285930629677015,-0.092
1748285930637364067,-0.11900000000000001
1748285930645051119,-0.136
1748285930652738171,-0.145
1748285930660425223,-0.153
1748285930668112275,-0.153
1748285930675799327,-0.15
1748285930683486379,-0.148
1748285930691173431,-0.14300000000000002
1748285930698860483,-0.136
1748285930706547535,-0.133
1748285930714234587,-0.131
1748285930721921639,-0.126
1748285930729608691,-0.126
1748285930737295743,-0.126
1748285930744982795,-0.124
1748285930752669847,-0.126
1748285930760356899,-0.128
1748285930768043951,-0.128
1748285930775731003,-0.128
1748285930783418055,-0.128
1748285930791105107,-0.128
1748285930798792159,-0.128
1748285930806479211,-0.128
1748285930814166277,-0.126,52,1226
1748285930821853189,-0.124
1748285930829540101,-0.121
1748285930837227013,-0.11900000000000001
1748285930844913925,-0.11900000000000001
1748285930852600837,-0.116
1748285930860287749,-0.114
1748285930867974661,-0.114
1748285930875661573,-0.109
1748285930883348485,-0.107
1748285930891035397,-0.10400000000000001
1748285930898722309,-0.10200000000000001
1748285930906409221,-0.097
1748285930914096133,-0.094
1748285930921783045,-0.092
1748285930929469957,-0.09
1748285930937156869,-0.08700000000000001
1748285930944843781,-0.085
1748285930952530693,-0.082
1748285930960217605,-0.08
1748285930967904517,-0.077
1748285930975591429,-0.077
1748285930983278341,-0.075
1748285930990965253,-0.07200000000000001
1748285930998652165,-0.07200000000000001
1748285931006339077,-0.07200000000000001
1748285931014025989,-0.07
1748285931021712901,-0.068
1748285931029399813,-0.068
1748285931037086725,-0.065
1748285931044773637,-0.063
1748285931052460549,-0.063
1748285931060147461,-0.063
1748285931067834373,-0.06
1748285931075521285,-0.058
1748285931083208197,-0.058
1748285931090895109,-0.055
1748285931098582021,-0.053
1748285931106268933,-0.055
1748285931113955845,-0.053
1748285931121642757,-0.051000000000000004
1748285931129329669,-0.051000000000000004
1748285931137016581,-0.048
1748285931144703493,-0.048
1748285931152390405,-0.048
1748285931160077317,-0.046
1748285931167764229,-0.043000000000000003
1748285931175451141,-0.046
1748285931183138053,-0.043000000000000003
1748285931190824965,-0.043000000000000003
1748285931198511877,-0.046
1748285931206198789,-0.051000000000000004
1748285931213885701,-0.051000000000000004
1748285931221572613,-0.048
1748285931229259525,-0.043000000000000003
1748285931236946437,-0.026000000000000002
1748285931244633349,-0.009000000000000001
1748285931252320261,-0.007
1748285931260007173,-0.007
1748285931267694085,-0.007
1748285931275380997,-0.029
1748285931283067909,-0.048
1748285931290754821,-0.048
1748285931298441733,-0.046
1748285931306128645,-0.051000000000000004
1748285931313815557,-0.048
1748285931321502469,-0.046
1748285931329189381,-0.053
1748285931336876293,-0.085
1748285931344563205,-0.077
1748285931352250117,0.231
1748285931359937029,0.934
1748285931367623941,1.369
1748285931375310917,0.8170000000000001
1748285931382998108,-0.26
1748285931390685299,-0.6980000000000001
1748285931398372490,-0.389
1748285931406059681,-0.214
1748285931413746872,-0.243
1748285931421434063,-0.136
1748285931429121254,-0.068
1748285931436808445,-0.107
1748285931444495636,-0.092
1748285931452182827,-0.055
1748285931459870018,-0.058
1748285931467557209,-0.053
1748285931475244400,-0.036000000000000004
1748285931482931591,-0.031
1748285931490618782,-0.026000000000000002
1748285931498305973,-0.014
1748285931505993164,-0.007
1748285931513680355,0.0
1748285931521367546,0.009000000000000001
1748285931529054737,0.019
1748285931536741928,0.026000000000000002
1748285931544429119,0.036000000000000004
1748285931552116310,0.046
1748285931559803501,0.055
1748285931567490692,0.065
1748285931575177883,0.075
1748285931582865074,0.08700000000000001
1748285931590552265,0.097
1748285931598239456,0.107
1748285931605926647,0.11900000000000001
1748285931613613838,0.131
1748285931621301029,0.14100000000000001
1748285931628988220,0.153
1748285931636675411,0.163
1748285931644362602,0.17
1748285931652049793,0.17200000000000001
1748285931659736984,0.17200000000000001
1748285931667424175,0.167
1748285931675111366,0.16
1748285931682798557,0.148
1748285931690485748,0.124
1748285931698172939,0.08700000000000001
1748285931705860130,0.043000000000000003
1748285931713547321,-0.002
1748285931721234512,-0.046
1748285931728921703,-0.085
1748285931736608894,-0.111
1748285931744296085,-0.131
1748285931751983276,-0.14300000000000002
1748285931759670467,-0.148
1748285931767357658,-0.148
1748285931775044849,-0.145
1748285931782732040,-0.14300000000000002
1748285931790419231,-0.14100000000000001
1748285931798106422,-0.136
1748285931805793613,-0.133
1748285931813480804,-0.128
1748285931821167995,-0.126
1748285931828855186,-0.126
1748285931836542377,-0.124
1748285931844229568,-0.121
1748285931851916759,-0.121
1748285931859603950,-0.121
1748285931867291141,-0.121
1748285931874978332,-0.121
1748285931882665523,-0.121
1748285931890352714,-0.121
1748285931898039905,-0.121
1748285931905727096,-0.11900000000000001
1748285931913414287,-0.116
1748285931921101478,-0.116
1748285931928788669,-0.114
1748285931936475901,-0.111,52,1198
1748285931944162744,-0.109
1748285931951849587,-0.107
1748285931959536430,-0.10400000000000001
1748285931967223273,-0.10400000000000001
1748285931974910116,-0.10200000000000001
1748285931982596959,-0.097
1748285931990283802,-0.097
1748285931997970645,-0.094
1748285932005657488,-0.09
1748285932013344331,-0.08700000000000001
1748285932021031174,-0.08700000000000001
1748285932028718017,-0.085
1748285932036404860,-0.08
1748285932044091703,-0.077
1748285932051778546,-0.077
1748285932059465389,-0.075
1748285932067152232,-0.07200000000000001
1748285932074839075,-0.07
1748285932082525918,-0.07
1748285932090212761,-0.07
1748285932097899604,-0.068
1748285932105586447,-0.068
1748285932113273290,-0.065
1748285932120960133,-0.063
1748285932128646976,-0.06
1748285932136333819,-0.06
1748285932144020662,-0.06
1748285932151707505,-0.058
1748285932159394348,-0.058
1748285932167081191,-0.055
1748285932174768034,-0.055
1748285932182454877,-0.053
1748285932190141720,-0.053
1748285932197828563,-0.053
1748285932205515406,-0.051000000000000004
1748285932213202249,-0.051000000000000004
1748285932220889092,-0.048
1748285932228575935,-0.048
1748285932236262778,-0.048
1748285932243949621,-0.048
1748285932251636464,-0.048
1748285932259323307,-0.053
1748285932267010150,-0.055
1748285932274696993,-0.058
1748285932282383836,-0.055
1748285932290070679,-0.048
1748285932297757522,-0.031
1748285932305444365,-0.017
1748285932313131208,-0.014
1748285932320818051,-0.014
1748285932328504894,-0.012
1748285932336191737,-0.031
1748285932343878580,-0.051000000000000004
1748285932351565423,-0.053
1748285932359252266,-0.051000000000000004
1748285932366939109,-0.053
1748285932374625952,-0.051000000000000004
1748285932382312795,-0.051000000000000004
1748285932389999638,-0.058
1748285932397686481,-0.09
1748285932405373324,-0.092
1748285932413060167,0.201
1748285932420747010,0.902
1748285932428433853,1.36
1748285932436120696,0.854
1748285932443807539,-0.201
1748285932451494382,-0.661
1748285932459181225,-0.379
1748285932466868068,-0.20400000000000001
1748285932474554911,-0.23600000000000002
1748285932482241754,-0.138
1748285932489928597,-0.075
1748285932497615450,-0.111
1748285932505302571,-0.099
1748285932512989692,-0.063
1748285932520676813,-0.065
1748285932528363934,-0.06
1748285932536051055,-0.043000000000000003
1748285932543738176,-0.038
1748285932551425297,-0.034
1748285932559112418,-0.024
1748285932566799539,-0.014
1748285932574486660,-0.004
1748285932582173781,0.002
1748285932589860902,0.014
1748285932597548023,0.021
1748285932605235144,0.031
1748285932612922265,0.041
1748285932620609386,0.051000000000000004
1748285932628296507,0.06
1748285932635983628,0.07
1748285932643670749,0.08
1748285932651357870,0.092
1748285932659044991,0.10400000000000001
1748285932666732112,0.114
1748285932674419233,0.126
1748285932682106354,0.14100000000000001
1748285932689793475,0.153
1748285932697480596,0.163
1748285932705167717,0.167
1748285932712854838,0.17
1748285932720541959,0.167
1748285932728229080,0.165
1748285932735916201,0.16
1748285932743603322,0.145
1748285932751290443,0.11900000000000001
1748285932758977564,0.08
