time,ecg,hr,rr,marker
1746649162889977475,-0.066,86,761
1746649162897665014,-0.059000000000000004
1746649162905352553,-0.056
1746649162913040092,-0.056
1746649162920727631,-0.066
1746649162928415170,-0.078
1746649162936102709,-0.073
1746649162943790248,-0.051000000000000004
1746649162951477787,-0.034
1746649162959165326,-0.032
1746649162966852865,-0.029
1746649162974540404,-0.022
1746649162982227943,-0.017
1746649162989915482,-0.022
1746649162997603021,-0.036000000000000004
1746649163005290560,-0.049
1746649163012978099,-0.049
1746649163020665638,-0.046
1746649163028353177,-0.046
1746649163036040716,-0.051000000000000004
1746649163043728255,-0.051000000000000004
1746649163051415794,-0.044
1746649163059103333,-0.054
1746649163066790872,-0.056
1746649163074478411,0.11800000000000001
1746649163082165950,0.557
1746649163089853489,0.8160000000000001
1746649163097541028,0.421
1746649163105228567,-0.216
1746649163112916106,-0.40900000000000003
1746649163120603645,-0.256
1746649163128291184,-0.187
1746649163135978723,-0.152
1746649163143666262,-0.056
1746649163151353801,-0.019
1746649163159041340,-0.034
1746649163166728879,-0.032
1746649163174416418,-0.027
1746649163182103957,-0.019
1746649163189791496,-0.002
1746649163197479035,-0.002
1746649163205166574,-0.007
1746649163212854113,0.009000000000000001
1746649163220541652,0.032
1746649163228229191,0.032
1746649163235916730,0.027
1746649163243604269,0.039
1746649163251291808,0.061
1746649163258979347,0.073
1746649163266666886,0.066
1746649163274354425,0.046
1746649163282041964,0.051000000000000004
1746649163289729503,0.078
1746649163297417042,0.083
1746649163305104581,0.081
1746649163312792120,0.096
1746649163320479659,0.108
1746649163328167198,0.11800000000000001
1746649163335854737,0.125
1746649163343542276,0.12
1746649163351229815,0.12
1746649163358917354,0.128
1746649163366604893,0.123
1746649163374292432,0.093
1746649163381979971,0.056
1746649163389667510,0.019
1746649163397355049,-0.017
1746649163405042588,-0.059000000000000004
1746649163412730127,-0.08600000000000001
1746649163420417666,-0.098
1746649163428105205,-0.11
1746649163435792744,-0.11
1746649163443480283,-0.101
1746649163451167890,-0.096,85,767
1746649163458855429,-0.093
1746649163466542968,-0.096
1746649163474230507,-0.10300000000000001
1746649163481918046,-0.098
1746649163489605585,-0.093
1746649163497293124,-0.093
1746649163504980663,-0.091
1746649163512668202,-0.091
1746649163520355741,-0.101
1746649163528043280,-0.106
1746649163535730819,-0.096
1746649163543418358,-0.078
1746649163551105897,-0.078
1746649163558793436,-0.08600000000000001
1746649163566480975,-0.096
1746649163574168514,-0.098
1746649163581856053,-0.096
1746649163589543592,-0.096
1746649163597231131,-0.093
1746649163604918670,-0.08600000000000001
1746649163612606209,-0.08600000000000001
1746649163620293748,-0.088
1746649163627981287,-0.088
1746649163635668826,-0.091
1746649163643356365,-0.083
1746649163651043904,-0.073
1746649163658731443,-0.078
1746649163666418982,-0.064
1746649163674106521,-0.039
1746649163681794060,-0.066
1746649163689481599,-0.098
1746649163697169138,-0.069
1746649163704856677,-0.059000000000000004
1746649163712544216,-0.096
1746649163720231755,-0.08600000000000001
1746649163727919294,-0.056
1746649163735606833,-0.064
1746649163743294372,-0.059000000000000004
1746649163750981911,-0.034
1746649163758669450,-0.009000000000000001
1746649163766356989,0.009000000000000001
1746649163774044528,-0.002
1746649163781732067,-0.044
1746649163789419606,-0.07100000000000001
1746649163797107145,-0.07100000000000001
1746649163804794684,-0.059000000000000004
1746649163812482223,-0.049
1746649163820169762,-0.064
1746649163827857301,-0.07100000000000001
1746649163835544840,-0.059000000000000004
1746649163843232379,-0.029
1746649163850919918,0.16
1746649163858607457,0.589
1746649163866294996,0.784
1746649163873982535,0.332
1746649163881670074,-0.273
1746649163889357613,-0.40900000000000003
1746649163897045152,-0.263
1746649163904732691,-0.199
1746649163912420230,-0.13
1746649163920107769,-0.022
1746649163927795308,-0.024
1746649163935482847,-0.076
1746649163943170386,-0.061
1746649163950857925,-0.032
1746649163958545464,-0.032
1746649163966233003,-0.024
1746649163973920542,-0.004
1746649163981608081,0.004
1746649163989295620,0.009000000000000001
1746649163996983159,0.017
1746649164004670698,0.022
1746649164012358305,0.024
1746649164020045844,0.034
1746649164027733383,0.046
1746649164035420922,0.051000000000000004
1746649164043108461,0.054
1746649164050796000,0.066
1746649164058483539,0.078
1746649164066171078,0.083
1746649164073858617,0.091
1746649164081546156,0.10300000000000001
1746649164089233695,0.11
1746649164096921234,0.115
1746649164104608773,0.115
1746649164112296312,0.113
1746649164119983851,0.115
1746649164127671390,0.125
1746649164135358929,0.125
1746649164143046468,0.115
1746649164150734007,0.101
1746649164158421546,0.078
1746649164166109085,0.036000000000000004
1746649164173796624,-0.017
1746649164181484163,-0.061
1746649164189171702,-0.078
1746649164196859241,-0.078
1746649164204546780,-0.098
1746649164212234319,-0.12
1746649164219921858,-0.108
1746649164227609397,-0.093
1746649164235296936,-0.081
1746649164242984475,-0.061
1746649164250672014,-0.061
1746649164258359553,-0.069
1746649164266047092,-0.054
1746649164273734631,-0.046
1746649164281422170,-0.076
1746649164289109709,-0.096
1746649164296797248,-0.076
1746649164304484787,-0.07100000000000001
1746649164312172326,-0.081
1746649164319859865,-0.069
1746649164327547404,-0.059000000000000004
1746649164335234943,-0.066
1746649164342922482,-0.069
1746649164350610021,-0.073
1746649164358297560,-0.08600000000000001
1746649164365985099,-0.08600000000000001
1746649164373672638,-0.081
1746649164381360177,-0.093
1746649164389047716,-0.101
1746649164396735255,-0.091
1746649164404422794,-0.078
1746649164412110333,-0.081
1746649164419797872,-0.081
1746649164427485411,-0.056
1746649164435172950,-0.049
1746649164442860489,-0.093
1746649164450548028,-0.113
1746649164458235567,-0.083
1746649164465923106,-0.066
1746649164473610645,-0.08600000000000001
1746649164481298184,-0.096
1746649164488985723,-0.083
1746649164496673262,-0.069
1746649164504360801,-0.059000000000000004
1746649164512048340,-0.056
1746649164519735879,-0.046
1746649164527423418,-0.017
1746649164535110957,-0.012
1746649164542798496,-0.054
1746649164550486035,-0.081
1746649164558173574,-0.073
1746649164565861113,-0.066
1746649164573548720,-0.066,83,770
1746649164581236678,-0.059000000000000004,,786
1746649164588924636,-0.054
1746649164596612594,-0.061
1746649164604300552,-0.08600000000000001
1746649164611988510,-0.07100000000000001
1746649164619676468,0.133
1746649164627364426,0.562
1746649164635052384,0.776
1746649164642740342,0.355
1746649164650428300,-0.256
1746649164658116258,-0.406
1746649164665804216,-0.271
1746649164673492174,-0.219
1746649164681180132,-0.162
1746649164688868090,-0.061
1746649164696556048,-0.049
1746649164704244006,-0.066
1746649164711931964,-0.032
1746649164719619922,-0.019
1746649164727307880,-0.029
1746649164734995838,-0.002
1746649164742683796,0.022
1746649164750371754,0.012
1746649164758059712,0.009000000000000001
1746649164765747670,0.019
1746649164773435628,0.022
1746649164781123586,0.027
1746649164788811544,0.022
1746649164796499502,0.014
1746649164804187460,0.024
1746649164811875418,0.022
1746649164819563376,0.041
1746649164827251334,0.10300000000000001
1746649164834939292,0.115
1746649164842627250,0.093
1746649164850315208,0.10300000000000001
1746649164858003166,0.11
1746649164865691124,0.11800000000000001
1746649164873379082,0.152
1746649164881067040,0.147
1746649164888754998,0.076
1746649164896442956,0.061
1746649164904130914,0.152
1746649164911818872,0.17500000000000002
1746649164919506830,0.08600000000000001
1746649164927194788,0.034
1746649164934882746,0.032
1746649164942570704,0.0
1746649164950258662,-0.054
1746649164957946620,-0.096
1746649164965634578,-0.125
1746649164973322536,-0.123
1746649164981010494,-0.101
1746649164988698452,-0.106
1746649164996386410,-0.125
1746649165004074368,-0.11
1746649165011762326,-0.073
1746649165019450284,-0.059000000000000004
1746649165027138242,-0.059000000000000004
1746649165034826200,-0.08600000000000001
1746649165042514158,-0.108
1746649165050202116,-0.061
1746649165057890074,-0.017
1746649165065578032,-0.041
1746649165073265990,-0.076
1746649165080953948,-0.066
1746649165088641906,-0.039
1746649165096329864,-0.046
1746649165104017822,-0.061
1746649165111705780,-0.044
1746649165119393738,-0.041
1746649165127081696,-0.081
1746649165134769657,-0.08600000000000001
1746649165142457196,-0.059000000000000004
1746649165150144735,-0.044
1746649165157832274,-0.059000000000000004
1746649165165519813,-0.083
1746649165173207352,-0.059000000000000004
1746649165180894891,-0.024
1746649165188582430,-0.041
1746649165196269969,-0.07100000000000001
1746649165203957508,-0.069
1746649165211645047,-0.051000000000000004
1746649165219332586,-0.034
1746649165227020125,-0.014
1746649165234707664,0.007
1746649165242395203,0.009000000000000001
1746649165250082742,0.004
1746649165257770281,-0.012
1746649165265457820,-0.034
1746649165273145359,0.0
1746649165280832898,0.027
1746649165288520437,-0.004
1746649165296207976,0.0
1746649165303895515,0.059000000000000004
1746649165311583054,0.064
1746649165319270593,0.024
1746649165326958132,0.0
1746649165334645671,-0.022
1746649165342333210,-0.044
1746649165350020749,-0.036000000000000004
1746649165357708288,-0.019
1746649165365395827,-0.036000000000000004
1746649165373083366,-0.059000000000000004
1746649165380770905,-0.064
1746649165388458444,-0.009000000000000001
1746649165396145983,0.28600000000000003
1746649165403833522,0.712
1746649165411521061,0.707
1746649165419208600,0.138
1746649165426896139,-0.367
1746649165434583678,-0.392
1746649165442271217,-0.23600000000000002
1746649165449958756,-0.199
1746649165457646295,-0.155
1746649165465333834,-0.07100000000000001
1746649165473021373,-0.061
1746649165480708912,-0.066
1746649165488396451,-0.051000000000000004
1746649165496083990,-0.049
1746649165503771529,-0.039
1746649165511459068,-0.024
1746649165519146607,-0.029
1746649165526834146,-0.024
1746649165534521685,0.0
1746649165542209224,0.004
1746649165549896763,0.0
1746649165557584302,-0.002
1746649165565271841,0.009000000000000001
1746649165572959380,0.024
1746649165580646919,0.029
1746649165588334458,0.044
1746649165596021997,0.056
1746649165603709536,0.056
1746649165611397075,0.069
1746649165619084614,0.083
1746649165626772153,0.08600000000000001
1746649165634459692,0.093
1746649165642147231,0.115
1746649165649834770,0.115
1746649165657522309,0.106
1746649165665209848,0.108
1746649165672897387,0.101
1746649165680584926,0.091
1746649165688272465,0.083
1746649165695960072,0.061,83,775
1746649165703647751,0.014
1746649165711335430,-0.049
1746649165719023109,-0.108
1746649165726710788,-0.123
1746649165734398467,-0.128
1746649165742086146,-0.152
1746649165749773825,-0.16
1746649165757461504,-0.14300000000000002
1746649165765149183,-0.155
1746649165772836862,-0.17
1746649165780524541,-0.147
1746649165788212220,-0.135
1746649165795899899,-0.14
1746649165803587578,-0.14
1746649165811275257,-0.128
1746649165818962936,-0.113
1746649165826650615,-0.123
1746649165834338294,-0.13
1746649165842025973,-0.113
1746649165849713652,-0.125
1746649165857401331,-0.155
1746649165865089010,-0.15
1746649165872776689,-0.14
1746649165880464368,-0.155
1746649165888152047,-0.155
1746649165895839726,-0.138
1746649165903527405,-0.14300000000000002
1746649165911215084,-0.152
1746649165918902763,-0.152
1746649165926590442,-0.14300000000000002
1746649165934278121,-0.135
1746649165941965800,-0.152
1746649165949653479,-0.16
1746649165957341158,-0.147
1746649165965028837,-0.147
1746649165972716516,-0.15
1746649165980404195,-0.147
1746649165988091874,-0.152
1746649165995779553,-0.14300000000000002
1746649166003467232,-0.133
1746649166011154911,-0.138
1746649166018842590,-0.145
1746649166026530269,-0.14
1746649166034217948,-0.13
1746649166041905627,-0.113
1746649166049593306,-0.098
1746649166057280985,-0.098
1746649166064968664,-0.093
1746649166072656343,-0.081
1746649166080344022,-0.088
1746649166088031701,-0.10300000000000001
1746649166095719380,-0.106
1746649166103407059,-0.113
1746649166111094738,-0.123
1746649166118782417,-0.108
1746649166126470096,-0.091
1746649166134157775,-0.108
1746649166141845454,-0.138
1746649166149533133,-0.135
1746649166157220812,0.0
1746649166164908491,0.389
1746649166172596170,0.752
1746649166180283849,0.51
1746649166187971528,-0.17500000000000002
1746649166195659207,-0.485
1746649166203346886,-0.33
1746649166211034565,-0.249
1746649166218722244,-0.253
1746649166226409923,-0.15
1746649166234097602,-0.088
1746649166241785281,-0.11
1746649166249472960,-0.106
1746649166257160661,-0.091
1746649166264848479,-0.091
1746649166272536297,-0.073
1746649166280224115,-0.051000000000000004
1746649166287911933,-0.056
1746649166295599751,-0.064
1746649166303287569,-0.051000000000000004
1746649166310975387,-0.046
1746649166318663205,-0.034
1746649166326351023,-0.024
1746649166334038841,-0.027
1746649166341726659,-0.009000000000000001
1746649166349414477,0.002
1746649166357102295,0.004
1746649166364790113,0.014
1746649166372477931,0.022
1746649166380165749,0.027
1746649166387853567,0.054
1746649166395541385,0.076
1746649166403229203,0.069
1746649166410917021,0.073
1746649166418604839,0.088
1746649166426292657,0.088
1746649166433980475,0.08600000000000001
1746649166441668293,0.096
1746649166449356111,0.08600000000000001
1746649166457043929,0.054
1746649166464731747,0.027
1746649166472419565,-0.004
1746649166480107383,-0.056
1746649166487795201,-0.096
1746649166495483019,-0.108
1746649166503170837,-0.128
1746649166510858655,-0.152
1746649166518546473,-0.152
1746649166526234291,-0.14300000000000002
1746649166533922109,-0.14300000000000002
1746649166541609927,-0.135
1746649166549297745,-0.11800000000000001
1746649166556985563,-0.113
1746649166564673381,-0.11
1746649166572361199,-0.106
1746649166580049017,-0.101
1746649166587736835,-0.101
1746649166595424653,-0.096
1746649166603112471,-0.088
1746649166610800289,-0.081
1746649166618488107,-0.081
1746649166626175925,-0.08600000000000001
1746649166633863743,-0.098
1746649166641551561,-0.098
1746649166649239379,-0.088
1746649166656927197,-0.083
1746649166664615015,-0.08600000000000001
1746649166672302833,-0.08600000000000001
1746649166679990651,-0.088
1746649166687678469,-0.08600000000000001
1746649166695366287,-0.081
1746649166703054105,-0.081
1746649166710741923,-0.083
1746649166718429741,-0.078
1746649166726117559,-0.073
1746649166733805377,-0.073
1746649166741493195,-0.069
1746649166749181013,-0.061
1746649166756868831,-0.069
1746649166764556649,-0.073
1746649166772244467,-0.069
1746649166779932285,-0.061
1746649166787620103,-0.059000000000000004
1746649166795307921,-0.059000000000000004
1746649166802995739,-0.059000000000000004
1746649166810683557,-0.061
1746649166818371420,-0.061,82,770
1746649166826059238,-0.061
1746649166833747056,-0.069
1746649166841434874,-0.073
1746649166849122692,-0.051000000000000004
1746649166856810510,-0.027
1746649166864498328,-0.027
1746649166872186146,-0.027
1746649166879873964,-0.022
1746649166887561782,-0.032
1746649166895249600,-0.036000000000000004
1746649166902937418,-0.036000000000000004
1746649166910625236,-0.054
1746649166918313054,-0.056
1746649166926000872,-0.041
1746649166933688690,-0.039
1746649166941376508,-0.054
1746649166949064326,-0.064
1746649166956752144,-0.073
1746649166964439962,0.036000000000000004
1746649166972127780,0.438
1746649166979815598,0.8160000000000001
1746649166987503416,0.5670000000000001
1746649166995191234,-0.106
1746649167002879052,-0.40900000000000003
1746649167010566870,-0.266
1746649167018254688,-0.192
1746649167025942506,-0.20400000000000001
1746649167033630324,-0.113
1746649167041318142,-0.051000000000000004
1746649167049005960,-0.076
1746649167056693778,-0.07100000000000001
1746649167064381596,-0.041
1746649167072069414,-0.041
1746649167079757232,-0.044
1746649167087445050,-0.029
1746649167095132868,-0.032
1746649167102820686,-0.039
1746649167110508504,-0.022
1746649167118196322,-0.009000000000000001
1746649167125884140,-0.009000000000000001
1746649167133571958,-0.007
1746649167141259776,-0.002
1746649167148947594,0.004
1746649167156635412,0.027
1746649167164323230,0.039
1746649167172011048,0.041
1746649167179698866,0.054
1746649167187386684,0.069
1746649167195074502,0.081
1746649167202762320,0.093
1746649167210450138,0.096
1746649167218137956,0.101
1746649167225825774,0.123
1746649167233513592,0.13
1746649167241201410,0.12
1746649167248889228,0.12
1746649167256577046,0.11
1746649167264264864,0.091
1746649167271952682,0.064
1746649167279640500,0.027
1746649167287328318,-0.014
1746649167295016136,-0.059000000000000004
1746649167302703954,-0.101
1746649167310391772,-0.113
1746649167318079590,-0.11800000000000001
1746649167325767408,-0.128
1746649167333455226,-0.11800000000000001
1746649167341143044,-0.11800000000000001
1746649167348830862,-0.14300000000000002
1746649167356518680,-0.133
1746649167364206498,-0.10300000000000001
1746649167371894316,-0.101
1746649167379582183,-0.10300000000000001
1746649167387269862,-0.101
1746649167394957541,-0.106
1746649167402645220,-0.10300000000000001
1746649167410332899,-0.081
1746649167418020578,-0.078
1746649167425708257,-0.096
1746649167433395936,-0.098
1746649167441083615,-0.093
1746649167448771294,-0.091
1746649167456458973,-0.091
1746649167464146652,-0.091
1746649167471834331,-0.098
1746649167479522010,-0.093
1746649167487209689,-0.091
1746649167494897368,-0.093
1746649167502585047,-0.096
1746649167510272726,-0.096
1746649167517960405,-0.088
1746649167525648084,-0.081
1746649167533335763,-0.076
1746649167541023442,-0.073
1746649167548711121,-0.081
1746649167556398800,-0.083
1746649167564086479,-0.073
1746649167571774158,-0.07100000000000001
1746649167579461837,-0.076
1746649167587149516,-0.076
1746649167594837195,-0.076
1746649167602524874,-0.076
1746649167610212553,-0.073
1746649167617900232,-0.069
1746649167625587911,-0.069
1746649167633275590,-0.069
1746649167640963269,-0.07100000000000001
1746649167648650948,-0.076
1746649167656338627,-0.073
1746649167664026306,-0.066
1746649167671713985,-0.066
1746649167679401664,-0.069
1746649167687089343,-0.059000000000000004
1746649167694777022,-0.039
1746649167702464701,-0.032
1746649167710152380,-0.034
1746649167717840059,-0.029
1746649167725527738,-0.034
1746649167733215417,-0.054
1746649167740903096,-0.059000000000000004
1746649167748590775,-0.049
1746649167756278454,-0.041
1746649167763966133,-0.044
1746649167771653812,-0.049
1746649167779341491,-0.054
1746649167787029170,-0.069
1746649167794716849,-0.083
1746649167802404528,0.004
1746649167810092207,0.35000000000000003
1746649167817779886,0.749
1746649167825467565,0.65
1746649167833155244,0.046
1746649167840842923,-0.355
1746649167848530602,-0.281
1746649167856218281,-0.17
1746649167863905960,-0.182
1746649167871593639,-0.123
1746649167879281318,-0.064
1746649167886968997,-0.081
1746649167894656676,-0.076
1746649167902344355,-0.046
1746649167910032034,-0.049
1746649167917719713,-0.049
1746649167925407392,-0.041
1746649167933095071,-0.039
1746649167940782768,-0.039,82,773
1746649167948470726,-0.022
1746649167956158684,-0.009000000000000001
1746649167963846642,-0.014
1746649167971534600,-0.017
1746649167979222558,-0.004
1746649167986910516,0.007
1746649167994598474,0.014
1746649168002286432,0.014
1746649168009974390,0.012
1746649168017662348,0.022
1746649168025350306,0.044
1746649168033038264,0.056
1746649168040726222,0.059000000000000004
1746649168048414180,0.069
1746649168056102138,0.076
1746649168063790096,0.078
1746649168071478054,0.091
1746649168079166012,0.101
1746649168086853970,0.10300000000000001
1746649168094541928,0.093
1746649168102229886,0.073
1746649168109917844,0.044
1746649168117605802,0.009000000000000001
1746649168125293760,-0.022
1746649168132981718,-0.056
1746649168140669676,-0.083
1746649168148357634,-0.106
1746649168156045592,-0.125
1746649168163733550,-0.133
1746649168171421508,-0.13
1746649168179109466,-0.13
1746649168186797424,-0.133
1746649168194485382,-0.125
1746649168202173340,-0.113
1746649168209861298,-0.106
1746649168217549256,-0.11
1746649168225237214,-0.106
1746649168232925172,-0.10300000000000001
1746649168240613130,-0.108
1746649168248301088,-0.106
1746649168255989046,-0.098
1746649168263677004,-0.093
1746649168271364962,-0.093
1746649168279052920,-0.10300000000000001
1746649168286740878,-0.115
1746649168294428836,-0.106
1746649168302116794,-0.101
1746649168309804752,-0.11
1746649168317492710,-0.106
1746649168325180668,-0.098
1746649168332868626,-0.101
1746649168340556584,-0.096
1746649168348244542,-0.093
1746649168355932500,-0.10300000000000001
1746649168363620458,-0.106
1746649168371308416,-0.091
1746649168378996374,-0.083
1746649168386684332,-0.091
1746649168394372290,-0.091
1746649168402060248,-0.081
1746649168409748206,-0.081
1746649168417436164,-0.08600000000000001
1746649168425124122,-0.08600000000000001
1746649168432812080,-0.076
1746649168440500038,-0.069
1746649168448187996,-0.073
1746649168455875954,-0.078
1746649168463563912,-0.073
1746649168471251870,-0.07100000000000001
1746649168478939828,-0.07100000000000001
1746649168486627786,-0.064
1746649168494315744,-0.066
1746649168502003705,-0.081,81,766
1746649168509691314,-0.078,,808
1746649168517378923,-0.07100000000000001
1746649168525066532,-0.073
1746649168532754141,-0.073
1746649168540441750,-0.064
1746649168548129359,-0.049
1746649168555816968,-0.036000000000000004
1746649168563504577,-0.027
1746649168571192186,-0.029
1746649168578879795,-0.056
1746649168586567404,-0.073
1746649168594255013,-0.061
1746649168601942622,-0.056
1746649168609630231,-0.064
1746649168617317840,-0.064
1746649168625005449,-0.061
1746649168632693058,-0.073
1746649168640380667,-0.096
1746649168648068276,-0.064
1746649168655755885,0.197
1746649168663443494,0.631
1746649168671131103,0.724
1746649168678818712,0.229
1746649168686506321,-0.293
1746649168694193930,-0.337
1746649168701881539,-0.192
1746649168709569148,-0.187
1746649168717256757,-0.17
1746649168724944366,-0.091
1746649168732631975,-0.073
1746649168740319584,-0.083
1746649168748007193,-0.066
1746649168755694802,-0.056
1746649168763382411,-0.056
1746649168771070020,-0.046
1746649168778757629,-0.039
1746649168786445238,-0.034
1746649168794132847,-0.036000000000000004
1746649168801820456,-0.041
1746649168809508065,-0.036000000000000004
1746649168817195674,-0.019
1746649168824883283,-0.009000000000000001
1746649168832570892,-0.007
1746649168840258501,-0.004
1746649168847946110,0.007
1746649168855633719,0.019
1746649168863321328,0.024
1746649168871008937,0.029
1746649168878696546,0.039
1746649168886384155,0.056
1746649168894071764,0.073
1746649168901759373,0.078
1746649168909446982,0.081
1746649168917134591,0.093
1746649168924822200,0.098
1746649168932509809,0.091
1746649168940197418,0.091
1746649168947885027,0.08600000000000001
1746649168955572636,0.059000000000000004
1746649168963260245,0.024
1746649168970947854,-0.009000000000000001
1746649168978635463,-0.039
1746649168986323072,-0.076
1746649168994010681,-0.106
1746649169001698290,-0.115
1746649169009385899,-0.11800000000000001
1746649169017073508,-0.128
1746649169024761117,-0.128
1746649169032448726,-0.12
1746649169040136335,-0.12
1746649169047823944,-0.11800000000000001
1746649169055511553,-0.113
1746649169063199207,-0.113
1746649169070887095,-0.11
1746649169078574983,-0.098
1746649169086262871,-0.096
1746649169093950759,-0.098
1746649169101638647,-0.096
1746649169109326535,-0.098
1746649169117014423,-0.10300000000000001
1746649169124702311,-0.10300000000000001
1746649169132390199,-0.098
1746649169140078087,-0.096
1746649169147765975,-0.101
1746649169155453863,-0.10300000000000001
1746649169163141751,-0.10300000000000001
1746649169170829639,-0.101
1746649169178517527,-0.093
1746649169186205415,-0.091
1746649169193893303,-0.10300000000000001
1746649169201581191,-0.11
1746649169209269079,-0.098
1746649169216956967,-0.088
1746649169224644855,-0.093
1746649169232332743,-0.096
1746649169240020631,-0.093
1746649169247708519,-0.083
1746649169255396407,-0.083
1746649169263084295,-0.093
1746649169270772183,-0.093
1746649169278460071,-0.08600000000000001
1746649169286147959,-0.083
1746649169293835847,-0.083
1746649169301523735,-0.078
1746649169309211623,-0.073
1746649169316899511,-0.073
1746649169324587399,-0.076
1746649169332275287,-0.078
1746649169339963175,-0.08600000000000001
1746649169347651063,-0.093
1746649169355338951,-0.083
1746649169363026839,-0.07100000000000001
1746649169370714727,-0.061
1746649169378402615,-0.056
1746649169386090503,-0.044
1746649169393778391,-0.032
1746649169401466279,-0.041
1746649169409154167,-0.061
1746649169416842055,-0.069
1746649169424529943,-0.07100000000000001
1746649169432217831,-0.07100000000000001
1746649169439905719,-0.064
1746649169447593607,-0.064
1746649169455281495,-0.073
1746649169462969383,-0.08600000000000001
1746649169470657271,-0.101
1746649169478345159,-0.029
1746649169486033047,0.293
1746649169493720935,0.7020000000000001
1746649169501408823,0.643
1746649169509096711,0.051000000000000004
1746649169516784599,-0.369
1746649169524472487,-0.305
1746649169532160375,-0.184
1746649169539848263,-0.197
1746649169547536151,-0.15
1746649169555224039,-0.073
1746649169562911927,-0.076
1746649169570599815,-0.088
1746649169578287703,-0.066
1746649169585975591,-0.054
1746649169593663479,-0.051000000000000004
1746649169601351367,-0.046
1746649169609039255,-0.044
1746649169616727143,-0.044
1746649169624415053,-0.032,80,840
1746649169632103220,-0.022
1746649169639791387,-0.017
1746649169647479554,-0.017
1746649169655167721,-0.019
1746649169662855888,-0.012
1746649169670544055,0.0
1746649169678232222,0.009000000000000001
1746649169685920389,0.019
1746649169693608556,0.027
1746649169701296723,0.036000000000000004
1746649169708984890,0.049
1746649169716673057,0.061
1746649169724361224,0.073
1746649169732049391,0.081
1746649169739737558,0.081
1746649169747425725,0.081
1746649169755113892,0.088
1746649169762802059,0.093
1746649169770490226,0.083
1746649169778178393,0.064
1746649169785866560,0.044
1746649169793554727,0.014
1746649169801242894,-0.024
1746649169808931061,-0.059000000000000004
1746649169816619228,-0.091
1746649169824307395,-0.123
1746649169831995562,-0.14
1746649169839683729,-0.135
1746649169847371896,-0.133
1746649169855060063,-0.138
1746649169862748230,-0.133
1746649169870436397,-0.123
1746649169878124564,-0.11800000000000001
1746649169885812731,-0.11
1746649169893500898,-0.11
1746649169901189065,-0.113
1746649169908877232,-0.106
1746649169916565399,-0.10300000000000001
1746649169924253566,-0.106
1746649169931941733,-0.098
1746649169939629900,-0.096
1746649169947318067,-0.098
1746649169955006234,-0.096
1746649169962694401,-0.093
1746649169970382568,-0.101
1746649169978070735,-0.10300000000000001
1746649169985758902,-0.096
1746649169993447069,-0.091
1746649170001135236,-0.091
1746649170008823403,-0.098
1746649170016511570,-0.096
1746649170024199737,-0.091
1746649170031887904,-0.093
1746649170039576071,-0.093
1746649170047264238,-0.083
1746649170054952405,-0.083
1746649170062640572,-0.098
1746649170070328739,-0.096
1746649170078016906,-0.073
1746649170085705073,-0.073
1746649170093393240,-0.08600000000000001
1746649170101081407,-0.078
1746649170108769574,-0.073
1746649170116457741,-0.083
1746649170124145908,-0.096
1746649170131834075,-0.088
1746649170139522242,-0.076
1746649170147210409,-0.069
1746649170154898576,-0.061
1746649170162586743,-0.049
1746649170170274910,-0.041
1746649170177963077,-0.036000000000000004
1746649170185651245,-0.046
1746649170193338575,-0.061
1746649170201025905,-0.066
1746649170208713235,-0.069
1746649170216400565,-0.069
1746649170224087895,-0.064
1746649170231775225,-0.061
1746649170239462555,-0.061
1746649170247149885,-0.066
1746649170254837215,-0.098
1746649170262524545,-0.046
1746649170270211875,0.271
1746649170277899205,0.6900000000000001
1746649170285586535,0.653
1746649170293273865,0.051000000000000004
1746649170300961195,-0.41600000000000004
1746649170308648525,-0.355
1746649170316335855,-0.20400000000000001
1746649170324023185,-0.214
1746649170331710515,-0.157
1746649170339397845,-0.069
1746649170347085175,-0.07100000000000001
1746649170354772505,-0.078
1746649170362459835,-0.056
1746649170370147165,-0.051000000000000004
1746649170377834495,-0.046
1746649170385521825,-0.039
1746649170393209155,-0.044
1746649170400896485,-0.039
1746649170408583815,-0.019
1746649170416271145,-0.009000000000000001
1746649170423958475,-0.012
1746649170431645805,-0.012
1746649170439333135,-0.012
1746649170447020465,-0.002
1746649170454707795,0.009000000000000001
1746649170462395125,0.014
1746649170470082455,0.017
1746649170477769785,0.029
1746649170485457115,0.044
1746649170493144445,0.051000000000000004
1746649170500831775,0.061
1746649170508519105,0.073
1746649170516206435,0.08600000000000001
1746649170523893765,0.10300000000000001
1746649170531581095,0.10300000000000001
1746649170539268425,0.091
1746649170546955755,0.098
1746649170554643085,0.091
1746649170562330415,0.064
1746649170570017745,0.036000000000000004
1746649170577705075,0.002
1746649170585392405,-0.039
1746649170593079735,-0.073
1746649170600767065,-0.106
1746649170608454395,-0.125
1746649170616141725,-0.135
1746649170623829055,-0.14300000000000002
1746649170631516385,-0.155
1746649170639203715,-0.157
1746649170646891045,-0.14
1746649170654578375,-0.11800000000000001
1746649170662265705,-0.115
1746649170669953035,-0.123
1746649170677640365,-0.125
1746649170685327695,-0.12
1746649170693015025,-0.108
1746649170700702355,-0.10300000000000001
1746649170708389685,-0.113
1746649170716077015,-0.108
1746649170723764345,-0.096
1746649170731451675,-0.106
1746649170739139005,-0.113
1746649170746826401,-0.093,80,848
1746649170754513940,-0.091
1746649170762201479,-0.101
1746649170769889018,-0.098
1746649170777576557,-0.096
1746649170785264096,-0.101
1746649170792951635,-0.101
1746649170800639174,-0.091
1746649170808326713,-0.093
1746649170816014252,-0.108
1746649170823701791,-0.108
1746649170831389330,-0.091
1746649170839076869,-0.096
1746649170846764408,-0.098
1746649170854451947,-0.083
1746649170862139486,-0.083
1746649170869827025,-0.098
1746649170877514564,-0.106
1746649170885202103,-0.106
1746649170892889642,-0.083
1746649170900577181,-0.051000000000000004
1746649170908264720,-0.041
1746649170915952259,-0.056
1746649170923639798,-0.061
1746649170931327337,-0.056
1746649170939014876,-0.066
1746649170946702415,-0.081
1746649170954389954,-0.076
1746649170962077493,-0.066
1746649170969765032,-0.07100000000000001
1746649170977452571,-0.07100000000000001
1746649170985140110,-0.064
1746649170992827649,-0.078
1746649171000515188,-0.08600000000000001
1746649171008202727,0.064
1746649171015890266,0.47500000000000003
1746649171023577805,0.781
1746649171031265344,0.401
1746649171038952883,-0.342
1746649171046640422,-0.5670000000000001
1746649171054327961,-0.318
1746649171062015500,-0.231
1746649171069703039,-0.249
1746649171077390578,-0.133
1746649171085078117,-0.034
1746649171092765656,-0.022
1746649171100453195,-0.019
1746649171108140734,-0.029
1746649171115828273,-0.034
1746649171123515812,0.002
1746649171131203351,0.022
1746649171138890890,0.004
1746649171146578429,0.007
1746649171154265968,0.024
1746649171161953507,0.034
1746649171169641046,0.036000000000000004
1746649171177328585,0.044
1746649171185016124,0.054
1746649171192703663,0.066
1746649171200391202,0.069
1746649171208078741,0.088
1746649171215766280,0.123
1746649171223453819,0.123
1746649171231141358,0.11800000000000001
1746649171238828897,0.15
1746649171246516436,0.182
1746649171254203975,0.199
1746649171261891514,0.214
1746649171269579053,0.202
1746649171277266592,0.162
1746649171284954131,0.157
1746649171292641670,0.192
1746649171300329209,0.184
1746649171308016816,0.11800000000000001
1746649171315704774,0.046
1746649171323392732,-0.002
1746649171331080690,-0.039
1746649171338768648,-0.051000000000000004
1746649171346456606,-0.07100000000000001
1746649171354144564,-0.12
1746649171361832522,-0.145
1746649171369520480,-0.115
1746649171377208438,-0.101
1746649171384896396,-0.135
1746649171392584354,-0.135
1746649171400272312,-0.091
1746649171407960270,-0.091
1746649171415648228,-0.10300000000000001
1746649171423336186,-0.059000000000000004
1746649171431024144,-0.034
1746649171438712102,-0.064
1746649171446400060,-0.064
1746649171454088018,-0.044
1746649171461775976,-0.07100000000000001
1746649171469463934,-0.073
1746649171477151892,-0.032
1746649171484839850,-0.049
1746649171492527808,-0.091
1746649171500215766,-0.066
1746649171507903724,-0.032
1746649171515591682,-0.041
1746649171523279640,-0.069
1746649171530967598,-0.078
1746649171538655556,-0.061
1746649171546343514,-0.046
1746649171554031472,-0.049
1746649171561719430,-0.066
1746649171569407388,-0.07100000000000001
1746649171577095346,-0.049
1746649171584783304,-0.07100000000000001
1746649171592471262,-0.088
1746649171600159220,-0.024
1746649171607847178,0.009000000000000001
1746649171615535136,-0.039
1746649171623223094,-0.039
1746649171630911052,-0.007
1746649171638599010,-0.029
1746649171646286968,-0.051000000000000004
1746649171653974926,-0.049
1746649171661662884,-0.036000000000000004
1746649171669350842,-0.029
1746649171677038800,-0.039
1746649171684726758,-0.051000000000000004
1746649171692414716,-0.014
1746649171700102674,0.177
1746649171707790632,0.581
1746649171715478590,0.779
1746649171723166548,0.273
1746649171730854506,-0.438
1746649171738542464,-0.542
1746649171746230422,-0.28300000000000003
1746649171753918380,-0.23600000000000002
1746649171761606338,-0.231
1746649171769294296,-0.08600000000000001
1746649171776982254,0.004
1746649171784670212,-0.002
1746649171792358170,0.002
1746649171800046128,0.014
1746649171807734086,0.022
1746649171815422044,0.034
1746649171823110002,0.036000000000000004
1746649171830797960,0.029
1746649171838485918,0.034
1746649171846173876,0.054
1746649171853861834,0.064
1746649171861549792,0.066
1746649171869237753,0.064,79,828
1746649171876925362,0.066
1746649171884612971,0.078
1746649171892300580,0.088
1746649171899988189,0.093
1746649171907675798,0.11
1746649171915363407,0.13
1746649171923051016,0.135
1746649171930738625,0.15
1746649171938426234,0.167
1746649171946113843,0.17
1746649171953801452,0.17500000000000002
1746649171961489061,0.177
1746649171969176670,0.167
1746649171976864279,0.162
1746649171984551888,0.165
1746649171992239497,0.138
1746649171999927106,0.078
1746649172007614715,0.017
1746649172015302324,-0.024
1746649172022989933,-0.049
1746649172030677542,-0.081
1746649172038365151,-0.115
1746649172046052760,-0.133
1746649172053740369,-0.128
1746649172061427978,-0.125
1746649172069115587,-0.128
1746649172076803196,-0.12
1746649172084490805,-0.10300000000000001
1746649172092178414,-0.093
1746649172099866023,-0.098
1746649172107553632,-0.096
1746649172115241241,-0.083
1746649172122928850,-0.083
1746649172130616459,-0.076
1746649172138304068,-0.064
1746649172145991677,-0.07100000000000001
1746649172153679286,-0.083
1746649172161366895,-0.081
1746649172169054504,-0.083
1746649172176742113,-0.08600000000000001
1746649172184429722,-0.078
1746649172192117331,-0.078
1746649172199804940,-0.08600000000000001
1746649172207492549,-0.078
1746649172215180158,-0.064
1746649172222867767,-0.078
1746649172230555376,-0.098
1746649172238242985,-0.088
1746649172245930594,-0.073
1746649172253618203,-0.078
1746649172261305812,-0.083
1746649172268993421,-0.07100000000000001
1746649172276681030,-0.073
1746649172284368639,-0.096
1746649172292056248,-0.098
1746649172299743857,-0.073
1746649172307431466,-0.056
1746649172315119075,-0.051000000000000004
1746649172322806684,-0.044
1746649172330494293,-0.044
1746649172338181902,-0.051000000000000004
1746649172345869511,-0.051000000000000004
1746649172353557120,-0.051000000000000004
1746649172361244729,-0.061
1746649172368932338,-0.069
1746649172376619947,-0.064
1746649172384307556,-0.056
1746649172391995165,-0.059000000000000004
1746649172399682774,-0.091
1746649172407370383,-0.10300000000000001
1746649172415057992,0.098
1746649172422745601,0.577
1746649172430433255,0.848,78,784
1746649172438121143,0.40900000000000003,,742
1746649172445809031,-0.305
1746649172453496919,-0.456
1746649172461184807,-0.202
1746649172468872695,-0.155
1746649172476560583,-0.189
1746649172484248471,-0.088
1746649172491936359,-0.046
1746649172499624247,-0.08600000000000001
1746649172507312135,-0.076
1746649172515000023,-0.044
1746649172522687911,-0.041
1746649172530375799,-0.041
1746649172538063687,-0.036000000000000004
1746649172545751575,-0.034
1746649172553439463,-0.027
1746649172561127351,-0.022
1746649172568815239,-0.027
1746649172576503127,-0.024
1746649172584191015,-0.017
1746649172591878903,-0.017
1746649172599566791,-0.012
1746649172607254679,0.002
1746649172614942567,0.009000000000000001
1746649172622630455,0.012
1746649172630318343,0.022
1746649172638006231,0.034
1746649172645694119,0.039
1746649172653382007,0.046
1746649172661069895,0.066
1746649172668757783,0.07100000000000001
1746649172676445671,0.069
1746649172684133559,0.078
1746649172691821447,0.08600000000000001
1746649172699509335,0.076
1746649172707197223,0.07100000000000001
1746649172714885111,0.051000000000000004
1746649172722572999,0.002
1746649172730260887,-0.036000000000000004
1746649172737948775,-0.054
1746649172745636663,-0.083
1746649172753324551,-0.11
1746649172761012439,-0.115
1746649172768700327,-0.11800000000000001
1746649172776388215,-0.123
1746649172784076103,-0.11800000000000001
1746649172791763991,-0.11
1746649172799451879,-0.108
1746649172807139767,-0.108
1746649172814827655,-0.101
1746649172822515543,-0.091
1746649172830203431,-0.083
1746649172837891319,-0.08600000000000001
1746649172845579207,-0.091
1746649172853267095,-0.091
1746649172860954983,-0.083
1746649172868642871,-0.078
1746649172876330759,-0.073
1746649172884018647,-0.076
1746649172891706535,-0.078
1746649172899394423,-0.083
1746649172907082311,-0.083
1746649172914770199,-0.076
1746649172922458087,-0.076
1746649172930145975,-0.081
1746649172937833863,-0.081
1746649172945521751,-0.083
1746649172953209639,-0.083
1746649172960897527,-0.076
1746649172968585415,-0.076
1746649172976273303,-0.081
1746649172983961191,-0.083
1746649172991649101,-0.08600000000000001
1746649172999336849,-0.076
1746649173007024597,-0.059000000000000004
1746649173014712345,-0.046
1746649173022400093,-0.044
1746649173030087841,-0.027
1746649173037775589,-0.029
1746649173045463337,-0.051000000000000004
1746649173053151085,-0.059000000000000004
1746649173060838833,-0.054
1746649173068526581,-0.054
1746649173076214329,-0.044
1746649173083902077,-0.039
1746649173091589825,-0.051000000000000004
1746649173099277573,-0.059000000000000004
1746649173106965321,-0.081
1746649173114653069,-0.098
1746649173122340817,0.108
1746649173130028565,0.599
1746649173137716313,0.872
1746649173145404061,0.461
1746649173153091809,-0.216
1746649173160779557,-0.384
1746649173168467305,-0.177
1746649173176155053,-0.138
1746649173183842801,-0.162
1746649173191530549,-0.078
1746649173199218297,-0.046
1746649173206906045,-0.07100000000000001
1746649173214593793,-0.046
1746649173222281541,-0.022
1746649173229969289,-0.032
1746649173237657037,-0.032
1746649173245344785,-0.017
1746649173253032533,-0.014
1746649173260720281,-0.007
1746649173268408029,0.002
1746649173276095777,-0.002
1746649173283783525,0.002
1746649173291471273,0.014
1746649173299159021,0.014
1746649173306846769,0.014
1746649173314534517,0.029
1746649173322222265,0.046
1746649173329910013,0.044
1746649173337597761,0.036000000000000004
1746649173345285509,0.054
1746649173352973257,0.081
1746649173360661005,0.091
1746649173368348753,0.091
1746649173376036501,0.106
1746649173383724249,0.12
1746649173391411997,0.12
1746649173399099745,0.11800000000000001
1746649173406787493,0.11
1746649173414475241,0.096
1746649173422162989,0.066
1746649173429850737,0.029
1746649173437538485,-0.002
1746649173445226233,-0.034
1746649173452913981,-0.069
1746649173460601729,-0.088
1746649173468289477,-0.093
1746649173475977225,-0.093
1746649173483664973,-0.088
1746649173491352721,-0.093
1746649173499040469,-0.10300000000000001
1746649173506728217,-0.091
1746649173514415965,-0.078
1746649173522103713,-0.083
1746649173529791461,-0.08600000000000001
1746649173537479209,-0.078
1746649173545166957,-0.073
1746649173552854777,-0.066,78,690
1746649173560542525,-0.059000000000000004
1746649173568230273,-0.064
1746649173575918021,-0.066
1746649173583605769,-0.064
1746649173591293517,-0.064
1746649173598981265,-0.061
1746649173606669013,-0.064
1746649173614356761,-0.07100000000000001
1746649173622044509,-0.073
1746649173629732257,-0.069
1746649173637420005,-0.064
1746649173645107753,-0.064
1746649173652795501,-0.066
1746649173660483249,-0.064
1746649173668170997,-0.059000000000000004
1746649173675858745,-0.056
1746649173683546493,-0.054
1746649173691234241,-0.059000000000000004
1746649173698921989,-0.066
1746649173706609737,-0.059000000000000004
1746649173714297485,-0.049
1746649173721985233,-0.044
1746649173729672981,-0.046
1746649173737360729,-0.051000000000000004
1746649173745048477,-0.056
1746649173752736225,-0.054
1746649173760423973,-0.044
1746649173768111721,-0.041
1746649173775799469,-0.044
1746649173783487217,-0.049
1746649173791174965,-0.059000000000000004
1746649173798862713,-0.061
1746649173806550461,-0.059000000000000004
1746649173814238209,-0.051000000000000004
1746649173821925957,-0.032
1746649173829613705,-0.017
1746649173837301453,-0.007
1746649173844989201,-0.012
1746649173852676949,-0.041
1746649173860364697,-0.054
1746649173868052445,-0.032
1746649173875740193,-0.029
1746649173883427941,-0.044
1746649173891115689,-0.044
1746649173898803437,-0.034
1746649173906491185,-0.049
1746649173914178933,-0.073
1746649173921866681,-0.093
1746649173929554429,-0.019
1746649173937242177,0.332
1746649173944929925,0.781
1746649173952617673,0.722
1746649173960305421,0.08600000000000001
1746649173967993169,-0.36
1746649173975680917,-0.268
1746649173983368665,-0.155
1746649173991056413,-0.189
1746649173998744161,-0.128
1746649174006431909,-0.049
1746649174014119657,-0.066
1746649174021807405,-0.073
1746649174029495153,-0.049
1746649174037182901,-0.041
1746649174044870649,-0.032
1746649174052558397,-0.022
1746649174060246145,-0.032
1746649174067933893,-0.034
1746649174075621641,-0.014
1746649174083309389,-0.014
1746649174090997137,-0.022
1746649174098684885,-0.014
1746649174106372633,-0.007
1746649174114060449,-0.004
1746649174121747988,0.007
1746649174129435527,0.019
1746649174137123066,0.029
1746649174144810605,0.036000000000000004
1746649174152498144,0.032
1746649174160185683,0.034
1746649174167873222,0.051000000000000004
1746649174175560761,0.066
1746649174183248300,0.076
1746649174190935839,0.083
1746649174198623378,0.083
1746649174206310917,0.083
1746649174213998456,0.096
1746649174221685995,0.096
1746649174229373534,0.07100000000000001
1746649174237061073,0.041
1746649174244748612,0.009000000000000001
1746649174252436151,-0.032
1746649174260123690,-0.066
1746649174267811229,-0.083
1746649174275498768,-0.098
1746649174283186307,-0.115
1746649174290873846,-0.12
1746649174298561385,-0.11800000000000001
1746649174306248924,-0.123
1746649174313936463,-0.123
1746649174321624002,-0.11
1746649174329311541,-0.106
1746649174336999080,-0.108
1746649174344686619,-0.106
1746649174352374158,-0.098
1746649174360061697,-0.093
1746649174367749236,-0.098
1746649174375436775,-0.106
1746649174383124314,-0.106
1746649174390811853,-0.10300000000000001
1746649174398499392,-0.098
1746649174406186931,-0.088
1746649174413874470,-0.088
1746649174421562009,-0.098
1746649174429249548,-0.106
1746649174436937087,-0.106
1746649174444624626,-0.101
1746649174452312165,-0.096
1746649174459999704,-0.098
1746649174467687243,-0.10300000000000001
1746649174475374782,-0.101
1746649174483062321,-0.101
1746649174490749860,-0.10300000000000001
1746649174498437399,-0.091
1746649174506124938,-0.08600000000000001
1746649174513812477,-0.096
1746649174521500016,-0.096
1746649174529187555,-0.088
1746649174536875094,-0.091
1746649174544562633,-0.096
1746649174552250172,-0.081
1746649174559937711,-0.073
1746649174567625250,-0.08600000000000001
1746649174575312789,-0.091
1746649174583000328,-0.08600000000000001
1746649174590687867,-0.076
1746649174598375406,-0.073
1746649174606062945,-0.078
1746649174613750484,-0.08600000000000001
1746649174621438023,-0.083
1746649174629125562,-0.076
1746649174636813101,-0.07100000000000001
1746649174644500640,-0.073
1746649174652188179,-0.073
1746649174659875718,-0.078
1746649174667563257,-0.091
1746649174675250864,-0.083,78,716
1746649174682938822,-0.076
1746649174690626780,-0.078
1746649174698314738,-0.073
1746649174706002696,-0.061
1746649174713690654,-0.046
1746649174721378612,-0.029
1746649174729066570,-0.039
1746649174736754528,-0.066
1746649174744442486,-0.069
1746649174752130444,-0.064
1746649174759818402,-0.073
1746649174767506360,-0.07100000000000001
1746649174775194318,-0.064
1746649174782882276,-0.061
1746649174790570234,-0.07100000000000001
1746649174798258192,-0.11
1746649174805946150,-0.069
1746649174813634108,0.241
1746649174821322066,0.6920000000000001
1746649174829010024,0.6970000000000001
1746649174836697982,0.078
1746649174844385940,-0.431
1746649174852073898,-0.36
1746649174859761856,-0.187
1746649174867449814,-0.20700000000000002
1746649174875137772,-0.165
1746649174882825730,-0.07100000000000001
1746649174890513688,-0.076
1746649174898201646,-0.08600000000000001
1746649174905889604,-0.061
1746649174913577562,-0.056
1746649174921265520,-0.056
1746649174928953478,-0.039
1746649174936641436,-0.032
1746649174944329394,-0.039
1746649174952017352,-0.044
1746649174959705310,-0.032
1746649174967393268,-0.014
1746649174975081226,-0.014
1746649174982769184,-0.022
1746649174990457142,-0.019
1746649174998145100,-0.004
1746649175005833058,0.012
1746649175013521016,0.014
1746649175021208974,0.014
1746649175028896932,0.024
1746649175036584890,0.034
1746649175044272848,0.049
1746649175051960806,0.061
1746649175059648764,0.066
1746649175067336722,0.07100000000000001
1746649175075024680,0.076
1746649175082712638,0.076
1746649175090400596,0.073
1746649175098088554,0.073
1746649175105776512,0.07100000000000001
1746649175113464470,0.044
1746649175121152428,0.0
1746649175128840386,-0.032
1746649175136528344,-0.064
1746649175144216302,-0.096
1746649175151904260,-0.11
1746649175159592218,-0.12
1746649175167280176,-0.135
1746649175174968134,-0.14
1746649175182656092,-0.135
1746649175190344050,-0.133
1746649175198032008,-0.128
1746649175205719966,-0.12
1746649175213407924,-0.11800000000000001
1746649175221095882,-0.115
1746649175228783840,-0.11
1746649175236471801,-0.11
1746649175244159410,-0.10300000000000001
1746649175251847019,-0.101
1746649175259534628,-0.10300000000000001
1746649175267222237,-0.101
1746649175274909846,-0.096
1746649175282597455,-0.11
1746649175290285064,-0.115
1746649175297972673,-0.098
1746649175305660282,-0.098
1746649175313347891,-0.115
1746649175321035500,-0.11800000000000001
1746649175328723109,-0.113
1746649175336410718,-0.113
1746649175344098327,-0.106
1746649175351785936,-0.098
1746649175359473545,-0.108
1746649175367161154,-0.123
1746649175374848763,-0.12
1746649175382536372,-0.11
1746649175390223981,-0.115
1746649175397911590,-0.108
1746649175405599199,-0.098
1746649175413286808,-0.10300000000000001
1746649175420974417,-0.106
1746649175428662026,-0.098
1746649175436349635,-0.096
1746649175444037244,-0.096
1746649175451724853,-0.08600000000000001
1746649175459412462,-0.081
1746649175467100071,-0.088
1746649175474787680,-0.083
1746649175482475289,-0.078
1746649175490162898,-0.083
1746649175497850507,-0.088
1746649175505538116,-0.08600000000000001
1746649175513225725,-0.081
1746649175520913334,-0.076
1746649175528600943,-0.078
1746649175536288552,-0.088
1746649175543976161,-0.093
1746649175551663770,-0.08600000000000001
1746649175559351379,-0.078
1746649175567038988,-0.076
1746649175574726597,-0.07100000000000001
1746649175582414206,-0.059000000000000004
1746649175590101815,-0.036000000000000004
1746649175597789424,-0.029
1746649175605477033,-0.051000000000000004
1746649175613164642,-0.07100000000000001
1746649175620852251,-0.073
1746649175628539860,-0.076
1746649175636227469,-0.073
1746649175643915078,-0.069
1746649175651602687,-0.064
1746649175659290296,-0.069
1746649175666977905,-0.101
1746649175674665514,-0.113
1746649175682353123,0.088
1746649175690040732,0.557
1746649175697728341,0.8130000000000001
1746649175705415950,0.404
1746649175713103559,-0.244
1746649175720791168,-0.394
1746649175728478777,-0.202
1746649175736166386,-0.177
1746649175743853995,-0.194
1746649175751541604,-0.101
1746649175759229213,-0.073
1746649175766916822,-0.10300000000000001
1746649175774604431,-0.088
1746649175782292040,-0.056
1746649175789979649,-0.054
1746649175797667303,-0.061,79,707
1746649175805355191,-0.059000000000000004
1746649175813043079,-0.051000000000000004
1746649175820730967,-0.044
1746649175828418855,-0.034
1746649175836106743,-0.032
1746649175843794631,-0.036000000000000004
1746649175851482519,-0.041
1746649175859170407,-0.034
1746649175866858295,-0.012
1746649175874546183,0.0
1746649175882234071,0.002
1746649175889921959,0.002
1746649175897609847,0.014
1746649175905297735,0.032
1746649175912985623,0.036000000000000004
1746649175920673511,0.034
1746649175928361399,0.041
1746649175936049287,0.064
1746649175943737175,0.07100000000000001
1746649175951425063,0.061
1746649175959112951,0.056
1746649175966800839,0.069
1746649175974488727,0.07100000000000001
1746649175982176615,0.046
1746649175989864503,0.014
1746649175997552391,-0.014
1746649176005240279,-0.051000000000000004
1746649176012928167,-0.08600000000000001
1746649176020616055,-0.108
1746649176028303943,-0.123
1746649176035991831,-0.135
1746649176043679719,-0.14300000000000002
1746649176051367607,-0.138
1746649176059055495,-0.125
1746649176066743383,-0.128
1746649176074431271,-0.133
1746649176082119159,-0.123
1746649176089807047,-0.108
1746649176097494935,-0.10300000000000001
1746649176105182823,-0.101
1746649176112870711,-0.10300000000000001
1746649176120558599,-0.106
1746649176128246487,-0.115
1746649176135934375,-0.11800000000000001
1746649176143622263,-0.11
1746649176151310151,-0.10300000000000001
1746649176158998039,-0.101
1746649176166685927,-0.098
1746649176174373815,-0.096
1746649176182061703,-0.093
1746649176189749591,-0.101
1746649176197437479,-0.106
1746649176205125367,-0.108
1746649176212813255,-0.106
1746649176220501143,-0.101
1746649176228189031,-0.101
1746649176235876919,-0.098
1746649176243564807,-0.096
1746649176251252695,-0.093
1746649176258940583,-0.093
1746649176266628471,-0.091
1746649176274316359,-0.088
1746649176282004247,-0.096
1746649176289692135,-0.096
1746649176297380023,-0.088
1746649176305067911,-0.081
1746649176312755799,-0.076
1746649176320443687,-0.083
1746649176328131575,-0.081
1746649176335819463,-0.073
1746649176343507351,-0.078
1746649176351195239,-0.081
1746649176358883149,-0.07100000000000001
1746649176366570897,-0.061
1746649176374258645,-0.064
1746649176381946393,-0.066
1746649176389634141,-0.061
1746649176397321889,-0.066
1746649176405009637,-0.07100000000000001
1746649176412697385,-0.069
1746649176420385133,-0.066
1746649176428072881,-0.061
1746649176435760629,-0.061
1746649176443448377,-0.069
1746649176451136125,-0.073
1746649176458823873,-0.07100000000000001
1746649176466511621,-0.069
1746649176474199369,-0.069
1746649176481887117,-0.066
1746649176489574865,-0.059000000000000004
1746649176497262613,-0.049
1746649176504950361,-0.034
1746649176512638109,-0.027
1746649176520325857,-0.036000000000000004
1746649176528013605,-0.051000000000000004
1746649176535701353,-0.061
1746649176543389101,-0.064
1746649176551076849,-0.056
1746649176558764597,-0.059000000000000004
1746649176566452345,-0.061
1746649176574140093,-0.051000000000000004
1746649176581827841,-0.061
1746649176589515589,-0.10300000000000001
1746649176597203337,-0.034
1746649176604891085,0.327
1746649176612578833,0.771
1746649176620266581,0.7020000000000001
1746649176627954329,0.054
1746649176635642077,-0.394
1746649176643329825,-0.29
1746649176651017573,-0.157
1746649176658705321,-0.192
1746649176666393069,-0.145
1746649176674080817,-0.069
1746649176681768565,-0.078
1746649176689456313,-0.08600000000000001
1746649176697144061,-0.066
1746649176704831809,-0.061
1746649176712519557,-0.056
1746649176720207305,-0.044
1746649176727895053,-0.039
1746649176735582801,-0.039
1746649176743270549,-0.039
1746649176750958297,-0.032
1746649176758646045,-0.022
1746649176766333793,-0.019
1746649176774021541,-0.017
1746649176781709289,-0.012
1746649176789397037,-0.007
1746649176797084785,-0.007
1746649176804772533,0.0
1746649176812460281,0.007
1746649176820148029,0.017
1746649176827835777,0.036000000000000004
1746649176835523525,0.046
1746649176843211273,0.046
1746649176850899021,0.054
1746649176858586769,0.066
1746649176866274517,0.07100000000000001
1746649176873962265,0.073
1746649176881650013,0.076
1746649176889337761,0.076
1746649176897025509,0.059000000000000004
1746649176904713257,0.034
1746649176912401005,0.009000000000000001
1746649176920088825,-0.027,80,811
1746649176927776573,-0.069,,877
1746649176935464321,-0.091
1746649176943152069,-0.108
1746649176950839817,-0.13
1746649176958527565,-0.135
1746649176966215313,-0.123
1746649176973903061,-0.11800000000000001
1746649176981590809,-0.11800000000000001
1746649176989278557,-0.108
1746649176996966305,-0.11
1746649177004654053,-0.11800000000000001
1746649177012341801,-0.108
1746649177020029549,-0.093
1746649177027717297,-0.096
1746649177035405045,-0.101
1746649177043092793,-0.101
1746649177050780541,-0.096
1746649177058468289,-0.093
1746649177066156037,-0.098
1746649177073843785,-0.10300000000000001
1746649177081531533,-0.096
1746649177089219281,-0.088
1746649177096907029,-0.091
1746649177104594777,-0.096
1746649177112282525,-0.096
1746649177119970273,-0.098
1746649177127658021,-0.10300000000000001
1746649177135345769,-0.10300000000000001
1746649177143033517,-0.096
1746649177150721265,-0.091
1746649177158409013,-0.098
1746649177166096761,-0.10300000000000001
1746649177173784509,-0.098
1746649177181472257,-0.10300000000000001
1746649177189160005,-0.106
1746649177196847753,-0.091
1746649177204535501,-0.08600000000000001
1746649177212223249,-0.096
1746649177219910997,-0.08600000000000001
1746649177227598745,-0.073
1746649177235286493,-0.081
1746649177242974241,-0.093
1746649177250661989,-0.091
1746649177258349737,-0.081
1746649177266037485,-0.073
1746649177273725233,-0.07100000000000001
1746649177281412981,-0.076
1746649177289100729,-0.083
1746649177296788477,-0.081
1746649177304476225,-0.07100000000000001
1746649177312163973,-0.064
1746649177319851721,-0.061
1746649177327539469,-0.069
1746649177335227217,-0.078
1746649177342914965,-0.073
1746649177350602713,-0.061
1746649177358290461,-0.061
1746649177365978209,-0.066
1746649177373665957,-0.064
1746649177381353705,-0.064
1746649177389041453,-0.076
1746649177396729201,-0.083
1746649177404416949,-0.076
1746649177412104697,-0.069
1746649177419792445,-0.069
1746649177427480193,-0.061
1746649177435167941,-0.046
1746649177442855689,-0.034
1746649177450543437,-0.029
1746649177458231185,-0.039
1746649177465918933,-0.054
1746649177473606681,-0.051000000000000004
1746649177481294497,-0.046,79,872
1746649177488982454,-0.056
1746649177496670411,-0.059000000000000004
1746649177504358368,-0.051000000000000004
1746649177512046325,-0.054
1746649177519734282,-0.081
1746649177527422239,-0.10300000000000001
1746649177535110196,-0.014
1746649177542798153,0.332
1746649177550486110,0.752
1746649177558174067,0.673
1746649177565862024,0.039
1746649177573549981,-0.387
1746649177581237938,-0.281
1746649177588925895,-0.162
1746649177596613852,-0.192
1746649177604301809,-0.13
1746649177611989766,-0.054
1746649177619677723,-0.07100000000000001
1746649177627365680,-0.083
1746649177635053637,-0.061
1746649177642741594,-0.056
1746649177650429551,-0.054
1746649177658117508,-0.039
1746649177665805465,-0.029
1746649177673493422,-0.027
1746649177681181379,-0.022
1746649177688869336,-0.022
1746649177696557293,-0.027
1746649177704245250,-0.022
1746649177711933207,-0.009000000000000001
1746649177719621164,-0.007
1746649177727309121,0.0
1746649177734997078,0.012
1746649177742685035,0.019
1746649177750372992,0.019
1746649177758060949,0.027
1746649177765748906,0.046
1746649177773436863,0.054
1746649177781124820,0.056
1746649177788812777,0.069
1746649177796500734,0.076
1746649177804188691,0.078
1746649177811876648,0.081
1746649177819564605,0.083
1746649177827252562,0.083
1746649177834940519,0.07100000000000001
1746649177842628476,0.051000000000000004
1746649177850316433,0.024
1746649177858004390,-0.012
1746649177865692347,-0.049
1746649177873380304,-0.076
1746649177881068261,-0.101
1746649177888756218,-0.115
1746649177896444175,-0.125
1746649177904132132,-0.123
1746649177911820089,-0.11
1746649177919508046,-0.101
1746649177927196003,-0.101
1746649177934883960,-0.108
1746649177942571917,-0.106
1746649177950259874,-0.093
1746649177957947831,-0.083
1746649177965635788,-0.08600000000000001
1746649177973323745,-0.088
1746649177981011702,-0.093
1746649177988699659,-0.098
1746649177996387616,-0.091
1746649178004075573,-0.081
1746649178011763530,-0.081
1746649178019451487,-0.083
1746649178027139444,-0.08600000000000001
1746649178034827401,-0.08600000000000001
1746649178042515430,-0.088
1746649178050203388,-0.093
1746649178057891346,-0.093
1746649178065579304,-0.088
1746649178073267262,-0.08600000000000001
1746649178080955220,-0.08600000000000001
1746649178088643178,-0.08600000000000001
1746649178096331136,-0.08600000000000001
1746649178104019094,-0.081
1746649178111707052,-0.083
1746649178119395010,-0.083
1746649178127082968,-0.081
1746649178134770926,-0.081
1746649178142458884,-0.078
1746649178150146842,-0.073
1746649178157834800,-0.076
1746649178165522758,-0.076
1746649178173210716,-0.069
1746649178180898674,-0.064
1746649178188586632,-0.064
1746649178196274590,-0.061
1746649178203962548,-0.064
1746649178211650506,-0.066
1746649178219338464,-0.061
1746649178227026422,-0.054
1746649178234714380,-0.059000000000000004
1746649178242402338,-0.059000000000000004
1746649178250090296,-0.056
1746649178257778254,-0.056
1746649178265466212,-0.059000000000000004
1746649178273154170,-0.061
1746649178280842128,-0.059000000000000004
1746649178288530086,-0.054
1746649178296218044,-0.059000000000000004
1746649178303906002,-0.069
1746649178311593960,-0.064
1746649178319281918,-0.059000000000000004
1746649178326969876,-0.056
1746649178334657834,-0.049
1746649178342345792,-0.046
1746649178350033750,-0.036000000000000004
1746649178357721708,-0.019
1746649178365409666,-0.029
1746649178373097624,-0.051000000000000004
1746649178380785582,-0.054
1746649178388473540,-0.056
1746649178396161498,-0.059000000000000004
1746649178403849456,-0.054
1746649178411537414,-0.046
1746649178419225372,-0.046
1746649178426913330,-0.064
1746649178434601288,-0.101
1746649178442289246,-0.034
1746649178449977204,0.308
1746649178457665162,0.742
1746649178465353120,0.687
1746649178473041078,0.056
1746649178480729036,-0.399
1746649178488416994,-0.303
1746649178496104952,-0.162
1746649178503792910,-0.187
1746649178511480868,-0.128
1746649178519168826,-0.049
1746649178526856784,-0.064
1746649178534544742,-0.069
1746649178542232700,-0.041
1746649178549920658,-0.046
1746649178557608616,-0.054
1746649178565296574,-0.032
1746649178572984532,-0.022
1746649178580672490,-0.024
1746649178588360448,-0.017
1746649178596048406,-0.009000000000000001
1746649178603736367,-0.009000000000000001,78,919
1746649178611423976,-0.007
1746649178619111585,-0.007
1746649178626799194,-0.007
1746649178634486803,0.0
1746649178642174412,0.014
1746649178649862021,0.019
1746649178657549630,0.022
1746649178665237239,0.036000000000000004
1746649178672924848,0.049
1746649178680612457,0.054
1746649178688300066,0.073
1746649178695987675,0.083
1746649178703675284,0.073
1746649178711362893,0.076
1746649178719050502,0.08600000000000001
1746649178726738111,0.08600000000000001
1746649178734425720,0.076
1746649178742113329,0.078
1746649178749800938,0.061
1746649178757488547,0.009000000000000001
1746649178765176156,-0.024
1746649178772863765,-0.041
1746649178780551374,-0.076
1746649178788238983,-0.10300000000000001
1746649178795926592,-0.11
1746649178803614201,-0.12
1746649178811301810,-0.106
1746649178818989419,-0.091
1746649178826677028,-0.123
1746649178834364637,-0.135
1746649178842052246,-0.093
1746649178849739855,-0.091
1746649178857427464,-0.11800000000000001
1746649178865115073,-0.096
1746649178872802682,-0.083
1746649178880490291,-0.101
1746649178888177900,-0.088
1746649178895865509,-0.078
1746649178903553118,-0.096
1746649178911240727,-0.093
1746649178918928336,-0.08600000000000001
1746649178926615945,-0.093
1746649178934303554,-0.096
1746649178941991163,-0.091
1746649178949678772,-0.091
1746649178957366381,-0.088
1746649178965053990,-0.081
1746649178972741599,-0.083
1746649178980429208,-0.091
1746649178988116817,-0.088
1746649178995804426,-0.081
1746649179003492035,-0.076
1746649179011179644,-0.07100000000000001
1746649179018867253,-0.073
1746649179026554862,-0.078
1746649179034242471,-0.078
1746649179041930080,-0.073
1746649179049617689,-0.07100000000000001
1746649179057305298,-0.07100000000000001
1746649179064992907,-0.064
1746649179072680516,-0.061
1746649179080368125,-0.061
1746649179088055734,-0.064
1746649179095743343,-0.059000000000000004
1746649179103430952,-0.049
1746649179111118561,-0.044
1746649179118806170,-0.046
1746649179126493779,-0.049
1746649179134181388,-0.041
1746649179141868997,-0.036000000000000004
1746649179149556606,-0.041
1746649179157244215,-0.041
1746649179164931869,-0.032
1746649179172619757,-0.027
1746649179180307645,-0.027
1746649179187995533,-0.022
1746649179195683421,-0.014
1746649179203371309,-0.019
1746649179211059197,-0.024
1746649179218747085,-0.024
1746649179226434973,-0.022
1746649179234122861,-0.032
1746649179241810749,-0.034
1746649179249498637,-0.019
1746649179257186525,-0.004
1746649179264874413,-0.002
1746649179272562301,0.002
1746649179280250189,0.019
1746649179287938077,0.032
1746649179295625965,0.017
1746649179303313853,-0.002
1746649179311001741,0.0
1746649179318689629,0.007
1746649179326377517,0.007
1746649179334065405,0.012
1746649179341753293,0.019
1746649179349441181,0.012
1746649179357129069,-0.019
1746649179364816957,-0.019
1746649179372504845,0.17200000000000001
1746649179380192733,0.611
1746649179387880621,0.855
1746649179395568509,0.466
1746649179403256397,-0.165
1746649179410944285,-0.325
1746649179418632173,-0.14300000000000002
1746649179426320061,-0.098
1746649179434007949,-0.096
1746649179441695837,-0.007
1746649179449383725,0.014
1746649179457071613,-0.007
1746649179464759501,0.014
1746649179472447389,0.039
1746649179480135277,0.039
1746649179487823165,0.046
1746649179495511053,0.054
1746649179503198941,0.049
1746649179510886829,0.049
1746649179518574717,0.059000000000000004
1746649179526262605,0.069
1746649179533950493,0.07100000000000001
1746649179541638381,0.073
1746649179549326269,0.081
1746649179557014157,0.08600000000000001
1746649179564702045,0.093
1746649179572389933,0.101
1746649179580077821,0.106
1746649179587765709,0.113
1746649179595453597,0.123
1746649179603141485,0.13
1746649179610829373,0.14
1746649179618517261,0.155
1746649179626205149,0.167
1746649179633893037,0.17
1746649179641580925,0.162
1746649179649268813,0.162
1746649179656956701,0.17200000000000001
1746649179664644589,0.17
1746649179672332477,0.147
1746649179680020365,0.11800000000000001
1746649179687708253,0.091
1746649179695396141,0.059000000000000004
1746649179703084029,0.019
1746649179710771917,-0.007
1746649179718459805,-0.019
1746649179726147715,-0.027,77,938
1746649179733835463,-0.036000000000000004
1746649179741523211,-0.029
1746649179749210959,-0.017
1746649179756898707,-0.019
1746649179764586455,-0.022
1746649179772274203,-0.017
1746649179779961951,-0.009000000000000001
1746649179787649699,-0.007
1746649179795337447,-0.007
1746649179803025195,-0.009000000000000001
1746649179810712943,-0.012
1746649179818400691,-0.009000000000000001
1746649179826088439,-0.007
1746649179833776187,-0.009000000000000001
1746649179841463935,-0.012
1746649179849151683,-0.012
1746649179856839431,-0.017
1746649179864527179,-0.022
1746649179872214927,-0.019
1746649179879902675,-0.019
1746649179887590423,-0.019
1746649179895278171,-0.019
1746649179902965919,-0.017
1746649179910653667,-0.017
1746649179918341415,-0.022
1746649179926029163,-0.029
1746649179933716911,-0.024
1746649179941404659,-0.022
1746649179949092407,-0.027
1746649179956780155,-0.022
1746649179964467903,-0.009000000000000001
1746649179972155651,-0.014
1746649179979843399,-0.032
1746649179987531147,-0.027
1746649179995218895,-0.014
1746649180002906643,-0.014
1746649180010594391,-0.012
1746649180018282139,-0.012
1746649180025969887,-0.017
1746649180033657635,-0.017
1746649180041345383,-0.012
1746649180049033131,-0.007
1746649180056720879,-0.007
1746649180064408627,-0.014
1746649180072096375,-0.022
1746649180079784123,-0.017
1746649180087471871,-0.017
1746649180095159619,-0.024
1746649180102847367,-0.024
1746649180110535115,-0.014
1746649180118222863,-0.002
1746649180125910611,0.009000000000000001
1746649180133598359,0.017
1746649180141286107,0.014
1746649180148973855,0.0
1746649180156661603,-0.009000000000000001
1746649180164349351,-0.012
1746649180172037099,-0.012
1746649180179724847,-0.012
1746649180187412595,-0.017
1746649180195100343,-0.022
1746649180202788091,-0.027
1746649180210475839,-0.049
1746649180218163587,-0.051000000000000004
1746649180225851335,0.138
1746649180233539083,0.579
1746649180241226831,0.808
1746649180248914579,0.379
1746649180256602327,-0.258
1746649180264290075,-0.387
1746649180271977823,-0.199
1746649180279665571,-0.16
1746649180287353391,-0.145
1746649180295041139,-0.051000000000000004
1746649180302728887,-0.036000000000000004
1746649180310416635,-0.054
1746649180318104383,-0.024
1746649180325792131,-0.014
1746649180333479879,-0.027
1746649180341167627,-0.017
1746649180348855375,-0.002
1746649180356543123,0.0
1746649180364230871,0.002
1746649180371918619,0.004
1746649180379606367,0.007
1746649180387294115,0.012
1746649180394981863,0.012
1746649180402669611,0.017
1746649180410357359,0.024
1746649180418045107,0.034
1746649180425732855,0.044
1746649180433420603,0.049
1746649180441108351,0.059000000000000004
1746649180448796099,0.066
1746649180456483847,0.076
1746649180464171595,0.093
1746649180471859343,0.10300000000000001
1746649180479547091,0.101
1746649180487234839,0.10300000000000001
1746649180494922587,0.108
1746649180502610335,0.106
1746649180510298083,0.101
1746649180517985831,0.08600000000000001
1746649180525673579,0.056
1746649180533361327,0.024
1746649180541049075,-0.004
1746649180548736823,-0.039
1746649180556424571,-0.076
1746649180564112319,-0.096
1746649180571800067,-0.11
1746649180579487815,-0.128
1746649180587175563,-0.125
1746649180594863311,-0.115
1746649180602551059,-0.115
1746649180610238807,-0.115
1746649180617926555,-0.108
1746649180625614303,-0.101
1746649180633302051,-0.096
1746649180640989799,-0.091
1746649180648677547,-0.088
1746649180656365295,-0.096
1746649180664053043,-0.101
1746649180671740791,-0.091
1746649180679428539,-0.08600000000000001
1746649180687116287,-0.091
1746649180694804035,-0.093
1746649180702491783,-0.096
1746649180710179531,-0.101
1746649180717867279,-0.108
1746649180725555027,-0.108
1746649180733242775,-0.10300000000000001
1746649180740930523,-0.098
1746649180748618271,-0.098
1746649180756306019,-0.098
1746649180763993767,-0.096
1746649180771681515,-0.093
1746649180779369263,-0.093
1746649180787057011,-0.10300000000000001
1746649180794744759,-0.11
1746649180802432507,-0.098
1746649180810120255,-0.08600000000000001
1746649180817808003,-0.096
1746649180825495751,-0.098
1746649180833183499,-0.091
1746649180840871247,-0.08600000000000001
1746649180848559063,-0.081,75,907
1746649180856246951,-0.08600000000000001
1746649180863934839,-0.088
1746649180871622727,-0.083
1746649180879310615,-0.083
1746649180886998503,-0.08600000000000001
1746649180894686391,-0.093
1746649180902374279,-0.098
1746649180910062167,-0.091
1746649180917750055,-0.08600000000000001
1746649180925437943,-0.078
1746649180933125831,-0.066
1746649180940813719,-0.056
1746649180948501607,-0.054
1746649180956189495,-0.059000000000000004
1746649180963877383,-0.076
1746649180971565271,-0.088
1746649180979253159,-0.091
1746649180986941047,-0.081
1746649180994628935,-0.073
1746649181002316823,-0.073
1746649181010004711,-0.078
1746649181017692599,-0.08600000000000001
1746649181025380487,-0.096
1746649181033068375,0.009000000000000001
1746649181040756263,0.382
1746649181048444151,0.729
1746649181056132039,0.443
1746649181063819927,-0.28600000000000003
1746649181071507815,-0.559
1746649181079195703,-0.335
1746649181086883591,-0.241
1746649181094571479,-0.261
1746649181102259367,-0.14300000000000002
1746649181109947255,-0.061
1746649181117635143,-0.08600000000000001
1746649181125323031,-0.081
1746649181133010919,-0.051000000000000004
1746649181140698807,-0.049
1746649181148386695,-0.049
1746649181156074583,-0.036000000000000004
1746649181163762471,-0.039
1746649181171450359,-0.044
1746649181179138247,-0.034
1746649181186826135,-0.024
1746649181194514023,-0.022
1746649181202201911,-0.014
1746649181209889799,-0.007
1746649181217577687,-0.002
1746649181225265575,0.004
1746649181232953463,0.022
1746649181240641351,0.036000000000000004
1746649181248329239,0.041
1746649181256017127,0.046
1746649181263705015,0.064
1746649181271392903,0.081
1746649181279080791,0.093
1746649181286768679,0.098
1746649181294456567,0.098
1746649181302144455,0.098
1746649181309832343,0.101
1746649181317520231,0.096
1746649181325208119,0.076
1746649181332896007,0.046
1746649181340583895,0.014
1746649181348271783,-0.024
1746649181355959671,-0.076
1746649181363647559,-0.115
1746649181371335447,-0.133
1746649181379023335,-0.147
1746649181386711223,-0.162
1746649181394399111,-0.17200000000000001
1746649181402086999,-0.177
1746649181409774913,-0.167,74,926
1746649181417462522,-0.152
1746649181425150131,-0.15
1746649181432837740,-0.145
1746649181440525349,-0.13
1746649181448212958,-0.12
1746649181455900567,-0.125
1746649181463588176,-0.13
1746649181471275785,-0.128
1746649181478963394,-0.123
1746649181486651003,-0.125
1746649181494338612,-0.128
1746649181502026221,-0.11800000000000001
1746649181509713830,-0.11800000000000001
1746649181517401439,-0.125
1746649181525089048,-0.125
1746649181532776657,-0.123
1746649181540464266,-0.128
1746649181548151875,-0.13
1746649181555839484,-0.133
1746649181563527093,-0.133
1746649181571214702,-0.128
1746649181578902311,-0.133
1746649181586589920,-0.138
1746649181594277529,-0.13
1746649181601965138,-0.125
1746649181609652747,-0.12
1746649181617340356,-0.115
1746649181625027965,-0.11800000000000001
1746649181632715574,-0.12
1746649181640403183,-0.113
1746649181648090792,-0.11
1746649181655778401,-0.113
1746649181663466010,-0.115
1746649181671153619,-0.115
1746649181678841228,-0.11800000000000001
1746649181686528837,-0.11800000000000001
1746649181694216446,-0.11
1746649181701904055,-0.10300000000000001
1746649181709591664,-0.093
1746649181717279273,-0.08600000000000001
1746649181724966882,-0.073
1746649181732654491,-0.07100000000000001
1746649181740342100,-0.091
1746649181748029709,-0.101
1746649181755717318,-0.096
1746649181763404927,-0.091
1746649181771092536,-0.08600000000000001
1746649181778780145,-0.08600000000000001
1746649181786467754,-0.093
1746649181794155363,-0.096
1746649181801842972,-0.115
1746649181809530581,-0.135
1746649181817218190,0.029
1746649181824905799,0.48
1746649181832593408,0.779
1746649181840281017,0.387
1746649181847968626,-0.3
1746649181855656235,-0.468
1746649181863343844,-0.256
1746649181871031453,-0.216
1746649181878719062,-0.229
1746649181886406671,-0.11800000000000001
1746649181894094280,-0.073
1746649181901781889,-0.11
1746649181909469498,-0.098
1746649181917157107,-0.066
1746649181924844716,-0.069
1746649181932532325,-0.07100000000000001
1746649181940219934,-0.061
1746649181947907543,-0.056
1746649181955595152,-0.056
1746649181963282761,-0.046
1746649181970970411,-0.036000000000000004
1746649181978658020,-0.036000000000000004
1746649181986345629,-0.036000000000000004
1746649181994033238,-0.027
1746649182001720847,-0.019
1746649182009408456,-0.022
1746649182017096065,-0.017
1746649182024783674,0.0
1746649182032471283,0.009000000000000001
1746649182040158892,0.017
1746649182047846501,0.029
1746649182055534110,0.044
1746649182063221719,0.056
1746649182070909328,0.064
1746649182078596937,0.066
1746649182086284546,0.07100000000000001
1746649182093972155,0.078
1746649182101659764,0.076
1746649182109347373,0.056
1746649182117034982,0.027
1746649182124722591,0.0
1746649182132410200,-0.034
1746649182140097809,-0.076
1746649182147785418,-0.10300000000000001
1746649182155473027,-0.11800000000000001
1746649182163160636,-0.138
1746649182170848245,-0.145
1746649182178535854,-0.14
1746649182186223463,-0.138
1746649182193911072,-0.135
1746649182201598681,-0.133
1746649182209286290,-0.125
1746649182216973899,-0.115
1746649182224661508,-0.115
1746649182232349117,-0.11800000000000001
1746649182240036726,-0.113
1746649182247724335,-0.106
1746649182255411944,-0.10300000000000001
1746649182263099553,-0.10300000000000001
1746649182270787162,-0.10300000000000001
1746649182278474771,-0.101
1746649182286162380,-0.098
1746649182293849989,-0.098
1746649182301537598,-0.10300000000000001
1746649182309225207,-0.10300000000000001
1746649182316912816,-0.106
1746649182324600425,-0.10300000000000001
1746649182332288034,-0.093
1746649182339975643,-0.093
1746649182347663252,-0.106
1746649182355350861,-0.106
1746649182363038470,-0.093
1746649182370726079,-0.093
1746649182378413688,-0.098
1746649182386101297,-0.093
1746649182393788906,-0.08600000000000001
1746649182401476515,-0.091
1746649182409164124,-0.093
1746649182416851733,-0.08600000000000001
1746649182424539342,-0.083
1746649182432226951,-0.088
1746649182439914560,-0.08600000000000001
1746649182447602169,-0.091
1746649182455289778,-0.098
1746649182462977387,-0.091
1746649182470664996,-0.081
1746649182478352605,-0.078
1746649182486040214,-0.07100000000000001
1746649182493727823,-0.054
1746649182501415432,-0.041
1746649182509103041,-0.044
1746649182516790650,-0.061
1746649182524478259,-0.07100000000000001
1746649182532165917,-0.069,73,853
1746649182539853526,-0.069,,810
1746649182547541135,-0.076
1746649182555228744,-0.073
1746649182562916353,-0.064
1746649182570603962,-0.059000000000000004
1746649182578291571,-0.078
1746649182585979180,-0.106
1746649182593666789,0.004
1746649182601354398,0.401
1746649182609042007,0.774
1746649182616729616,0.535
1746649182624417225,-0.155
1746649182632104834,-0.461
1746649182639792443,-0.273
1746649182647480052,-0.18
1746649182655167661,-0.212
1746649182662855270,-0.128
1746649182670542879,-0.059000000000000004
1746649182678230488,-0.078
1746649182685918097,-0.078
1746649182693605706,-0.054
1746649182701293315,-0.041
1746649182708980924,-0.039
1746649182716668533,-0.036000000000000004
1746649182724356142,-0.034
1746649182732043751,-0.029
1746649182739731360,-0.027
1746649182747418969,-0.022
1746649182755106578,-0.012
1746649182762794187,0.0
1746649182770481796,0.004
1746649182778169405,0.007
1746649182785857014,0.017
1746649182793544623,0.029
1746649182801232232,0.032
1746649182808919841,0.041
1746649182816607450,0.059000000000000004
1746649182824295059,0.076
1746649182831982668,0.093
1746649182839670277,0.11
1746649182847357886,0.113
1746649182855045495,0.10300000000000001
1746649182862733104,0.101
1746649182870420713,0.108
1746649182878108322,0.108
1746649182885795931,0.096
1746649182893483540,0.069
1746649182901171149,0.029
1746649182908858758,-0.014
1746649182916546367,-0.049
1746649182924233976,-0.078
1746649182931921585,-0.106
1746649182939609194,-0.125
1746649182947296803,-0.128
1746649182954984412,-0.133
1746649182962672021,-0.145
1746649182970359630,-0.14
1746649182978047239,-0.13
1746649182985734848,-0.128
1746649182993422457,-0.12
1746649183001110066,-0.11
1746649183008797675,-0.101
1746649183016485284,-0.096
1746649183024172893,-0.101
1746649183031860502,-0.098
1746649183039548111,-0.088
1746649183047235720,-0.093
1746649183054923329,-0.101
1746649183062610938,-0.096
1746649183070298547,-0.091
1746649183077986156,-0.091
1746649183085673765,-0.093
1746649183093361419,-0.108
1746649183101049237,-0.115
1746649183108737055,-0.093
1746649183116424873,-0.08600000000000001
1746649183124112691,-0.098
1746649183131800509,-0.093
1746649183139488327,-0.083
1746649183147176145,-0.101
1746649183154863963,-0.113
1746649183162551781,-0.10300000000000001
1746649183170239599,-0.096
1746649183177927417,-0.08600000000000001
1746649183185615235,-0.081
1746649183193303053,-0.088
1746649183200990871,-0.091
1746649183208678689,-0.081
1746649183216366507,-0.073
1746649183224054325,-0.076
1746649183231742143,-0.073
1746649183239429961,-0.076
1746649183247117779,-0.073
1746649183254805597,-0.064
1746649183262493415,-0.054
1746649183270181233,-0.036000000000000004
1746649183277869051,-0.027
1746649183285556869,-0.034
1746649183293244687,-0.041
1746649183300932505,-0.034
1746649183308620323,-0.036000000000000004
1746649183316308141,-0.056
1746649183323995959,-0.059000000000000004
1746649183331683777,-0.051000000000000004
1746649183339371595,-0.049
1746649183347059413,-0.044
1746649183354747231,-0.054
1746649183362435049,-0.051000000000000004
1746649183370122867,0.155
1746649183377810685,0.616
1746649183385498503,0.793
1746649183393186321,0.244
1746649183400874139,-0.421
1746649183408561957,-0.463
1746649183416249775,-0.224
1746649183423937593,-0.202
1746649183431625411,-0.18
1746649183439313229,-0.046
1746649183447001047,-0.009000000000000001
1746649183454688865,-0.039
1746649183462376683,-0.012
1746649183470064501,0.017
1746649183477752319,0.014
1746649183485440137,0.022
1746649183493127955,0.034
1746649183500815773,0.036000000000000004
1746649183508503591,0.041
1746649183516191409,0.044
1746649183523879227,0.041
1746649183531567045,0.061
1746649183539254863,0.081
1746649183546942681,0.078
1746649183554630499,0.081
1746649183562318317,0.098
1746649183570006135,0.115
1746649183577693953,0.128
1746649183585381771,0.138
1746649183593069589,0.15
1746649183600757407,0.17
1746649183608445225,0.187
1746649183616133043,0.20400000000000001
1746649183623820861,0.219
1746649183631508679,0.219
1746649183639196497,0.212
1746649183646884315,0.199
1746649183654572178,0.189,73,783
1746649183662259717,0.17200000000000001
1746649183669947256,0.128
1746649183677634795,0.073
1746649183685322334,0.027
1746649183693009873,-0.004
1746649183700697412,-0.027
1746649183708384951,-0.049
1746649183716072490,-0.07100000000000001
1746649183723760029,-0.083
1746649183731447568,-0.081
1746649183739135107,-0.073
1746649183746822646,-0.073
1746649183754510185,-0.073
1746649183762197724,-0.059000000000000004
1746649183769885263,-0.039
1746649183777572802,-0.032
1746649183785260341,-0.029
1746649183792947880,-0.024
1746649183800635419,-0.022
1746649183808322958,-0.022
1746649183816010497,-0.009000000000000001
1746649183823698036,-0.002
1746649183831385575,-0.002
1746649183839073114,-0.002
1746649183846760653,-0.012
1746649183854448192,-0.019
1746649183862135731,-0.019
1746649183869823270,-0.012
1746649183877510809,-0.012
1746649183885198348,-0.024
1746649183892885887,-0.032
1746649183900573426,-0.009000000000000001
1746649183908260965,-0.004
1746649183915948504,-0.019
1746649183923636043,-0.017
1746649183931323582,-0.014
1746649183939011121,-0.024
1746649183946698660,-0.022
1746649183954386199,-0.007
1746649183962073738,-0.009000000000000001
1746649183969761277,-0.024
1746649183977448816,-0.024
1746649183985136355,-0.017
1746649183992823894,-0.012
1746649184000511433,-0.014
1746649184008198972,-0.012
1746649184015886511,0.004
1746649184023574050,0.014
1746649184031261589,0.022
1746649184038949128,0.027
1746649184046636667,0.009000000000000001
1746649184054324206,-0.009000000000000001
1746649184062011745,-0.004
1746649184069699284,0.0
1746649184077386823,-0.004
1746649184085074362,-0.004
1746649184092761901,-0.004
1746649184100449440,-0.009000000000000001
1746649184108136979,-0.012
1746649184115824518,-0.014
1746649184123512057,0.106
1746649184131199596,0.507
1746649184138887135,0.848
1746649184146574674,0.495
1746649184154262213,-0.271
1746649184161949752,-0.517
1746649184169637291,-0.263
1746649184177324830,-0.17500000000000002
1746649184185012369,-0.202
1746649184192699908,-0.073
1746649184200387447,0.017
1746649184208074986,-0.004
1746649184215762593,-0.002
1746649184223450481,0.022
1746649184231138369,0.024
1746649184238826257,0.029
1746649184246514145,0.034
1746649184254202033,0.036000000000000004
1746649184261889921,0.039
1746649184269577809,0.041
1746649184277265697,0.046
1746649184284953585,0.054
1746649184292641473,0.059000000000000004
1746649184300329361,0.064
1746649184308017249,0.069
1746649184315705137,0.07100000000000001
1746649184323393025,0.073
1746649184331080913,0.088
1746649184338768801,0.106
1746649184346456689,0.11800000000000001
1746649184354144577,0.125
1746649184361832465,0.138
1746649184369520353,0.15
1746649184377208241,0.162
1746649184384896129,0.165
1746649184392584017,0.16
1746649184400271905,0.155
1746649184407959793,0.152
1746649184415647681,0.13
1746649184423335569,0.08600000000000001
1746649184431023457,0.041
1746649184438711345,0.004
1746649184446399233,-0.039
1746649184454087121,-0.076
1746649184461775009,-0.101
1746649184469462897,-0.123
1746649184477150785,-0.13
1746649184484838673,-0.125
1746649184492526561,-0.125
1746649184500214449,-0.123
1746649184507902337,-0.11800000000000001
1746649184515590225,-0.12
1746649184523278113,-0.115
1746649184530966001,-0.108
1746649184538653889,-0.101
1746649184546341777,-0.093
1746649184554029665,-0.083
1746649184561717553,-0.081
1746649184569405441,-0.081
1746649184577093329,-0.076
1746649184584781217,-0.076
1746649184592469105,-0.078
1746649184600156993,-0.081
1746649184607844881,-0.088
1746649184615532769,-0.093
1746649184623220657,-0.088
1746649184630908545,-0.08600000000000001
1746649184638596433,-0.093
1746649184646284321,-0.098
1746649184653972209,-0.093
1746649184661660097,-0.091
1746649184669347985,-0.091
1746649184677035873,-0.091
1746649184684723761,-0.091
1746649184692411649,-0.091
1746649184700099537,-0.08600000000000001
1746649184707787425,-0.081
1746649184715475313,-0.088
1746649184723163201,-0.093
1746649184730851089,-0.083
1746649184738538977,-0.081
1746649184746226865,-0.088
1746649184753914753,-0.08600000000000001
1746649184761602641,-0.081
1746649184769290529,-0.083
1746649184776978443,-0.091,73,778
1746649184784666052,-0.093
1746649184792353661,-0.081
1746649184800041270,-0.066
1746649184807728879,-0.069
1746649184815416488,-0.064
1746649184823104097,-0.051000000000000004
1746649184830791706,-0.056
1746649184838479315,-0.073
1746649184846166924,-0.073
1746649184853854533,-0.073
1746649184861542142,-0.078
1746649184869229751,-0.076
1746649184876917360,-0.073
1746649184884604969,-0.073
1746649184892292578,-0.091
1746649184899980187,-0.133
1746649184907667796,-0.10300000000000001
1746649184915355405,0.212
1746649184923043014,0.724
1746649184930730623,0.84
1746649184938418232,0.266
1746649184946105841,-0.332
1746649184953793450,-0.332
1746649184961481059,-0.152
1746649184969168668,-0.194
1746649184976856277,-0.192
1746649184984543886,-0.098
1746649184992231495,-0.098
1746649184999919104,-0.123
1746649185007606713,-0.096
1746649185015294322,-0.083
1746649185022981931,-0.091
1746649185030669540,-0.076
1746649185038357149,-0.061
1746649185046044758,-0.064
1746649185053732367,-0.069
1746649185061419976,-0.069
1746649185069107585,-0.064
1746649185076795194,-0.054
1746649185084482803,-0.049
1746649185092170412,-0.046
1746649185099858021,-0.044
1746649185107545630,-0.044
1746649185115233239,-0.039
1746649185122920848,-0.027
1746649185130608457,-0.024
1746649185138296066,-0.019
1746649185145983675,0.0
1746649185153671284,0.012
1746649185161358893,0.014
1746649185169046502,0.029
1746649185176734111,0.051000000000000004
1746649185184421720,0.059000000000000004
1746649185192109329,0.054
1746649185199796938,0.049
1746649185207484547,0.036000000000000004
1746649185215172156,0.012
1746649185222859765,-0.019
1746649185230547374,-0.054
1746649185238234983,-0.08600000000000001
1746649185245922592,-0.108
1746649185253610201,-0.125
1746649185261297810,-0.133
1746649185268985419,-0.133
1746649185276673028,-0.13
1746649185284360637,-0.13
1746649185292048246,-0.128
1746649185299735855,-0.11800000000000001
1746649185307423464,-0.113
1746649185315111073,-0.115
1746649185322798682,-0.11800000000000001
1746649185330486291,-0.11800000000000001
1746649185338173945,-0.113
1746649185345861484,-0.11
1746649185353549023,-0.113
1746649185361236562,-0.113
1746649185368924101,-0.108
1746649185376611640,-0.106
1746649185384299179,-0.106
1746649185391986718,-0.106
1746649185399674257,-0.10300000000000001
1746649185407361796,-0.10300000000000001
1746649185415049335,-0.098
1746649185422736874,-0.101
1746649185430424413,-0.098
1746649185438111952,-0.093
1746649185445799491,-0.096
1746649185453487030,-0.101
1746649185461174569,-0.093
1746649185468862108,-0.088
1746649185476549647,-0.093
1746649185484237186,-0.098
1746649185491924725,-0.093
1746649185499612264,-0.081
1746649185507299803,-0.073
1746649185514987342,-0.069
1746649185522674881,-0.066
1746649185530362420,-0.07100000000000001
1746649185538049959,-0.073
1746649185545737498,-0.064
1746649185553425037,-0.059000000000000004
1746649185561112576,-0.061
1746649185568800115,-0.064
1746649185576487654,-0.066
1746649185584175193,-0.07100000000000001
1746649185591862732,-0.07100000000000001
1746649185599550271,-0.064
1746649185607237810,-0.054
1746649185614925349,-0.051000000000000004
1746649185622612888,-0.046
1746649185630300427,-0.027
1746649185637987966,-0.014
1746649185645675505,-0.027
1746649185653363044,-0.041
1746649185661050583,-0.044
1746649185668738122,-0.044
1746649185676425661,-0.046
1746649185684113200,-0.039
1746649185691800739,-0.036000000000000004
1746649185699488278,-0.039
1746649185707175817,-0.046
1746649185714863356,-0.076
1746649185722550895,-0.069
1746649185730238434,0.194
1746649185737925973,0.6900000000000001
1746649185745613512,0.863
1746649185753301051,0.35000000000000003
1746649185760988590,-0.263
1746649185768676129,-0.323
1746649185776363668,-0.14
1746649185784051207,-0.155
1746649185791738746,-0.152
1746649185799426285,-0.054
1746649185807113824,-0.046
1746649185814801363,-0.073
1746649185822488902,-0.046
1746649185830176441,-0.027
1746649185837863980,-0.036000000000000004
1746649185845551519,-0.032
1746649185853239058,-0.024
1746649185860926597,-0.022
1746649185868614136,-0.019
1746649185876301675,-0.009000000000000001
1746649185883989214,-0.004
1746649185891676753,-0.007
1746649185899364360,-0.007,73,773
1746649185907052317,0.002
1746649185914740274,0.002
1746649185922428231,0.002
1746649185930116188,0.019
1746649185937804145,0.036000000000000004
1746649185945492102,0.044
1746649185953180059,0.051000000000000004
1746649185960868016,0.054
1746649185968555973,0.069
1746649185976243930,0.088
1746649185983931887,0.096
1746649185991619844,0.098
1746649185999307801,0.113
1746649186006995758,0.113
1746649186014683715,0.096
1746649186022371672,0.078
1746649186030059629,0.059000000000000004
1746649186037747586,0.027
1746649186045435543,-0.014
1746649186053123500,-0.044
1746649186060811457,-0.066
1746649186068499414,-0.091
1746649186076187371,-0.106
1746649186083875328,-0.108
1746649186091563285,-0.11
1746649186099251242,-0.11
1746649186106939199,-0.106
1746649186114627156,-0.101
1746649186122315113,-0.096
1746649186130003070,-0.091
1746649186137691027,-0.091
1746649186145378984,-0.096
1746649186153066941,-0.098
1746649186160754898,-0.096
1746649186168442855,-0.088
1746649186176130812,-0.091
1746649186183818769,-0.093
1746649186191506726,-0.091
1746649186199194683,-0.08600000000000001
1746649186206882640,-0.083
1746649186214570597,-0.08600000000000001
1746649186222258554,-0.093
1746649186229946511,-0.096
1746649186237634468,-0.091
1746649186245322425,-0.088
1746649186253010382,-0.091
1746649186260698339,-0.091
1746649186268386296,-0.093
1746649186276074253,-0.088
1746649186283762210,-0.076
1746649186291450167,-0.081
1746649186299138124,-0.091
1746649186306826081,-0.08600000000000001
1746649186314514038,-0.078
1746649186322201995,-0.078
1746649186329889952,-0.078
1746649186337577909,-0.078
1746649186345265866,-0.08600000000000001
1746649186352953823,-0.088
1746649186360641780,-0.078
1746649186368329737,-0.07100000000000001
1746649186376017694,-0.073
1746649186383705651,-0.07100000000000001
1746649186391393608,-0.066
1746649186399081565,-0.069
1746649186406769522,-0.07100000000000001
1746649186414457479,-0.07100000000000001
1746649186422145436,-0.07100000000000001
1746649186429833393,-0.076
1746649186437521350,-0.07100000000000001
1746649186445209307,-0.064
1746649186452897264,-0.069
1746649186460585293,-0.076,74,756
1746649186468272832,-0.081,,789
1746649186475960371,-0.081
1746649186483647910,-0.076
1746649186491335449,-0.061
1746649186499022988,-0.049
1746649186506710527,-0.046
1746649186514398066,-0.039
1746649186522085605,-0.046
1746649186529773144,-0.066
1746649186537460683,-0.069
1746649186545148222,-0.069
1746649186552835761,-0.073
1746649186560523300,-0.066
1746649186568210839,-0.061
1746649186575898378,-0.061
1746649186583585917,-0.061
1746649186591273456,-0.088
1746649186598960995,-0.123
1746649186606648534,0.019
1746649186614336073,0.461
1746649186622023612,0.8130000000000001
1746649186629711151,0.542
1746649186637398690,-0.125
1746649186645086229,-0.406
1746649186652773768,-0.23600000000000002
1746649186660461307,-0.16
1746649186668148846,-0.199
1746649186675836385,-0.128
1746649186683523924,-0.076
1746649186691211463,-0.101
1746649186698899002,-0.098
1746649186706586541,-0.073
1746649186714274080,-0.073
1746649186721961619,-0.073
1746649186729649158,-0.059000000000000004
1746649186737336697,-0.051000000000000004
1746649186745024236,-0.056
1746649186752711775,-0.061
1746649186760399314,-0.056
1746649186768086853,-0.046
1746649186775774392,-0.044
1746649186783461931,-0.046
1746649186791149470,-0.044
1746649186798837009,-0.032
1746649186806524548,-0.019
1746649186814212087,-0.009000000000000001
1746649186821899626,-0.004
1746649186829587165,-0.007
1746649186837274704,0.002
1746649186844962243,0.022
1746649186852649782,0.036000000000000004
1746649186860337321,0.032
1746649186868024860,0.034
1746649186875712399,0.049
1746649186883399938,0.059000000000000004
1746649186891087477,0.059000000000000004
1746649186898775016,0.046
1746649186906462555,0.022
1746649186914150094,-0.009000000000000001
1746649186921837633,-0.041
1746649186929525172,-0.073
1746649186937212711,-0.10300000000000001
1746649186944900250,-0.125
1746649186952587789,-0.14300000000000002
1746649186960275328,-0.157
1746649186967962867,-0.157
1746649186975650406,-0.147
1746649186983337945,-0.145
1746649186991025484,-0.147
1746649186998713023,-0.145
1746649187006400562,-0.138
1746649187014088101,-0.138
1746649187021775708,-0.14
1746649187029463526,-0.135
1746649187037151344,-0.13
1746649187044839162,-0.133
1746649187052526980,-0.133
1746649187060214798,-0.13
1746649187067902616,-0.133
1746649187075590434,-0.133
1746649187083278252,-0.13
1746649187090966070,-0.13
1746649187098653888,-0.133
1746649187106341706,-0.138
1746649187114029524,-0.138
1746649187121717342,-0.133
1746649187129405160,-0.13
1746649187137092978,-0.14
1746649187144780796,-0.14
1746649187152468614,-0.128
1746649187160156432,-0.125
1746649187167844250,-0.128
1746649187175532068,-0.128
1746649187183219886,-0.125
1746649187190907704,-0.128
1746649187198595522,-0.11800000000000001
1746649187206283340,-0.11
1746649187213971158,-0.123
1746649187221658976,-0.125
1746649187229346794,-0.11
1746649187237034612,-0.113
1746649187244722430,-0.12
1746649187252410248,-0.11800000000000001
1746649187260098066,-0.11
1746649187267785884,-0.108
1746649187275473702,-0.10300000000000001
1746649187283161520,-0.098
1746649187290849338,-0.106
1746649187298537156,-0.11
1746649187306224974,-0.101
1746649187313912792,-0.096
1746649187321600610,-0.098
1746649187329288428,-0.106
1746649187336976246,-0.106
1746649187344664064,-0.101
1746649187352351882,-0.088
1746649187360039700,-0.091
1746649187367727518,-0.11
1746649187375415336,-0.12
1746649187383103154,-0.113
1746649187390790972,-0.108
1746649187398478790,-0.10300000000000001
1746649187406166608,-0.091
1746649187413854426,-0.08600000000000001
1746649187421542244,-0.076
1746649187429230062,-0.059000000000000004
1746649187436917880,-0.069
1746649187444605698,-0.088
1746649187452293516,-0.093
1746649187459981334,-0.093
1746649187467669152,-0.096
1746649187475356970,-0.091
1746649187483044788,-0.088
1746649187490732606,-0.096
1746649187498420424,-0.11
1746649187506108242,-0.13
1746649187513796060,-0.002
1746649187521483878,0.41400000000000003
1746649187529171696,0.761
1746649187536859514,0.47300000000000003
1746649187544547332,-0.202
1746649187552235150,-0.461
1746649187559922968,-0.276
1746649187567610786,-0.20700000000000002
1746649187575298604,-0.234
1746649187582986471,-0.147,75,815
1746649187590674080,-0.093
1746649187598361689,-0.12
1746649187606049298,-0.11
1746649187613736907,-0.081
1746649187621424516,-0.081
1746649187629112125,-0.08600000000000001
1746649187636799734,-0.076
1746649187644487343,-0.07100000000000001
1746649187652174952,-0.066
1746649187659862561,-0.059000000000000004
1746649187667550170,-0.054
1746649187675237779,-0.051000000000000004
1746649187682925388,-0.046
1746649187690612997,-0.039
1746649187698300606,-0.027
1746649187705988215,-0.019
1746649187713675824,-0.014
1746649187721363433,-0.004
1746649187729051042,0.007
1746649187736738651,0.009000000000000001
1746649187744426260,0.019
1746649187752113869,0.036000000000000004
1746649187759801478,0.051000000000000004
1746649187767489087,0.059000000000000004
1746649187775176696,0.061
1746649187782864305,0.07100000000000001
1746649187790551914,0.073
1746649187798239523,0.064
1746649187805927132,0.056
1746649187813614741,0.039
1746649187821302350,0.002
1746649187828989959,-0.029
1746649187836677568,-0.054
1746649187844365177,-0.101
1746649187852052786,-0.14
1746649187859740395,-0.145
1746649187867428004,-0.155
1746649187875115613,-0.157
1746649187882803222,-0.147
1746649187890490831,-0.152
1746649187898178440,-0.16
1746649187905866049,-0.155
1746649187913553658,-0.145
1746649187921241267,-0.135
1746649187928928876,-0.128
1746649187936616485,-0.125
1746649187944304094,-0.125
1746649187951991703,-0.108
1746649187959679312,-0.096
1746649187967366921,-0.115
1746649187975054530,-0.123
1746649187982742139,-0.108
1746649187990429748,-0.11
1746649187998117357,-0.123
1746649188005804966,-0.123
1746649188013492575,-0.125
1746649188021180184,-0.13
1746649188028867793,-0.125
1746649188036555402,-0.11
1746649188044243011,-0.106
1746649188051930620,-0.123
1746649188059618229,-0.128
1746649188067305838,-0.115
1746649188074993447,-0.11
1746649188082681056,-0.113
1746649188090368665,-0.106
1746649188098056274,-0.108
1746649188105743883,-0.11800000000000001
1746649188113431492,-0.113
1746649188121119101,-0.101
1746649188128806710,-0.101
1746649188136494319,-0.10300000000000001
1746649188144181973,-0.096
1746649188151869582,-0.098
1746649188159557191,-0.101
1746649188167244800,-0.088
1746649188174932409,-0.083
1746649188182620018,-0.091
1746649188190307627,-0.096
1746649188197995236,-0.093
1746649188205682845,-0.08600000000000001
1746649188213370454,-0.08600000000000001
1746649188221058063,-0.096
1746649188228745672,-0.093
1746649188236433281,-0.081
1746649188244120890,-0.069
1746649188251808499,-0.051000000000000004
1746649188259496108,-0.039
1746649188267183717,-0.051000000000000004
1746649188274871326,-0.07100000000000001
1746649188282558935,-0.07100000000000001
1746649188290246544,-0.078
1746649188297934153,-0.091
1746649188305621762,-0.076
1746649188313309371,-0.066
1746649188320996980,-0.078
1746649188328684589,-0.083
1746649188336372198,-0.091
1746649188344059807,-0.076
1746649188351747416,0.14
1746649188359435025,0.591
1746649188367122634,0.739
1746649188374810243,0.182
1746649188382497852,-0.468
1746649188390185461,-0.505
1746649188397873070,-0.276
1746649188405560679,-0.258
1746649188413248288,-0.229
1746649188420935897,-0.088
1746649188428623506,-0.054
1746649188436311115,-0.083
1746649188443998724,-0.056
1746649188451686333,-0.032
1746649188459373942,-0.039
1746649188467061551,-0.034
1746649188474749160,-0.022
1746649188482436769,-0.022
1746649188490124378,-0.019
1746649188497811987,-0.014
1746649188505499596,-0.009000000000000001
1746649188513187205,0.0
1746649188520874814,0.007
1746649188528562423,0.004
1746649188536250032,0.004
1746649188543937641,0.017
1746649188551625250,0.029
1746649188559312859,0.039
1746649188567000468,0.051000000000000004
1746649188574688077,0.064
1746649188582375686,0.073
1746649188590063295,0.081
1746649188597750904,0.091
1746649188605438513,0.101
1746649188613126122,0.106
1746649188620813731,0.098
1746649188628501340,0.093
1746649188636188949,0.08600000000000001
1746649188643876558,0.07100000000000001
1746649188651564167,0.046
1746649188659251776,0.012
1746649188666939385,-0.029
1746649188674626994,-0.073
1746649188682314603,-0.10300000000000001
1746649188690002212,-0.123
1746649188697689821,-0.14300000000000002
1746649188705377475,-0.15,75,879
1746649188713065084,-0.15
1746649188720752693,-0.15
1746649188728440302,-0.145
1746649188736127911,-0.138
1746649188743815520,-0.133
1746649188751503129,-0.125
1746649188759190738,-0.12
1746649188766878347,-0.113
1746649188774565956,-0.106
1746649188782253565,-0.10300000000000001
1746649188789941174,-0.101
1746649188797628783,-0.098
1746649188805316392,-0.101
1746649188813004001,-0.10300000000000001
1746649188820691610,-0.098
1746649188828379219,-0.098
1746649188836066828,-0.106
1746649188843754437,-0.10300000000000001
1746649188851442046,-0.101
1746649188859129655,-0.101
1746649188866817264,-0.10300000000000001
1746649188874504873,-0.10300000000000001
1746649188882192482,-0.106
1746649188889880091,-0.11
1746649188897567700,-0.108
1746649188905255309,-0.101
1746649188912942918,-0.098
1746649188920630527,-0.098
1746649188928318136,-0.096
1746649188936005745,-0.093
1746649188943693354,-0.093
1746649188951380963,-0.093
1746649188959068572,-0.091
1746649188966756181,-0.08600000000000001
1746649188974443790,-0.083
1746649188982131399,-0.08600000000000001
1746649188989819008,-0.08600000000000001
1746649188997506617,-0.081
1746649189005194226,-0.081
1746649189012881835,-0.081
1746649189020569444,-0.081
1746649189028257053,-0.08600000000000001
1746649189035944662,-0.088
1746649189043632271,-0.091
1746649189051319880,-0.088
1746649189059007489,-0.081
1746649189066695098,-0.07100000000000001
1746649189074382707,-0.066
1746649189082070316,-0.059000000000000004
1746649189089757925,-0.044
1746649189097445534,-0.039
1746649189105133143,-0.061
1746649189112820752,-0.076
1746649189120508361,-0.07100000000000001
1746649189128195970,-0.069
1746649189135883579,-0.07100000000000001
1746649189143571188,-0.069
1746649189151258797,-0.064
1746649189158946406,-0.064
1746649189166634015,-0.083
1746649189174321624,-0.12
1746649189182009233,-0.039
1746649189189696842,0.337
1746649189197384451,0.779
1746649189205072060,0.6970000000000001
1746649189212759669,0.056
1746649189220447278,-0.379
1746649189228134887,-0.271
1746649189235822496,-0.155
1746649189243510105,-0.20400000000000001
1746649189251197714,-0.147
1746649189258885323,-0.073
1746649189266572977,-0.098
1746649189274260586,-0.108
1746649189281948195,-0.078
1746649189289635804,-0.069
1746649189297323413,-0.069
1746649189305011022,-0.061
1746649189312698631,-0.056
1746649189320386240,-0.054
1746649189328073849,-0.051000000000000004
1746649189335761458,-0.049
1746649189343449067,-0.046
1746649189351136676,-0.039
1746649189358824285,-0.036000000000000004
1746649189366511894,-0.034
1746649189374199503,-0.027
1746649189381887112,-0.019
1746649189389574721,-0.009000000000000001
1746649189397262330,0.002
1746649189404949939,0.014
1746649189412637548,0.017
1746649189420325157,0.022
1746649189428012766,0.032
1746649189435700375,0.044
1746649189443387984,0.054
1746649189451075593,0.059000000000000004
1746649189458763202,0.064
1746649189466450811,0.066
1746649189474138420,0.061
1746649189481826029,0.041
1746649189489513638,0.007
1746649189497201247,-0.024
1746649189504888856,-0.046
1746649189512576465,-0.076
1746649189520264074,-0.11
1746649189527951683,-0.128
1746649189535639292,-0.125
1746649189543326901,-0.133
1746649189551014510,-0.138
1746649189558702119,-0.135
1746649189566389728,-0.13
1746649189574077337,-0.12
1746649189581764946,-0.115
1746649189589452555,-0.115
1746649189597140164,-0.113
1746649189604827773,-0.106
1746649189612515382,-0.101
1746649189620202991,-0.098
1746649189627890600,-0.093
1746649189635578209,-0.098
1746649189643265818,-0.108
1746649189650953427,-0.10300000000000001
1746649189658641036,-0.096
1746649189666328645,-0.098
1746649189674016254,-0.101
1746649189681703863,-0.098
1746649189689391472,-0.096
1746649189697079081,-0.096
1746649189704766690,-0.093
1746649189712454299,-0.088
1746649189720141908,-0.093
1746649189727829517,-0.098
1746649189735517126,-0.096
1746649189743204735,-0.091
1746649189750892344,-0.08600000000000001
1746649189758579953,-0.088
1746649189766267562,-0.088
1746649189773955171,-0.08600000000000001
1746649189781642780,-0.08600000000000001
1746649189789330389,-0.088
1746649189797017998,-0.076
1746649189804705607,-0.069
1746649189812393216,-0.078
1746649189820080825,-0.083
1746649189827768479,-0.076,74,907
1746649189835456297,-0.069
1746649189843144115,-0.073
1746649189850831933,-0.08600000000000001
1746649189858519751,-0.093
1746649189866207569,-0.096
1746649189873895387,-0.08600000000000001
1746649189881583205,-0.066
1746649189889271023,-0.059000000000000004
1746649189896958841,-0.056
1746649189904646659,-0.036000000000000004
1746649189912334477,-0.027
1746649189920022295,-0.049
1746649189927710113,-0.061
1746649189935397931,-0.056
1746649189943085749,-0.056
1746649189950773567,-0.064
1746649189958461385,-0.061
1746649189966149203,-0.051000000000000004
1746649189973837021,-0.049
1746649189981524839,-0.07100000000000001
1746649189989212657,-0.091
1746649189996900475,0.078
1746649190004588293,0.522
1746649190012276111,0.8130000000000001
1746649190019963929,0.453
1746649190027651747,-0.20400000000000001
1746649190035339565,-0.387
1746649190043027383,-0.187
1746649190050715201,-0.145
1746649190058403019,-0.17200000000000001
1746649190066090837,-0.088
1746649190073778655,-0.054
1746649190081466473,-0.081
1746649190089154291,-0.066
1746649190096842109,-0.044
1746649190104529927,-0.046
1746649190112217745,-0.036000000000000004
1746649190119905563,-0.029
1746649190127593381,-0.034
1746649190135281199,-0.022
1746649190142969017,-0.009000000000000001
1746649190150656835,-0.009000000000000001
1746649190158344653,-0.007
1746649190166032471,0.0
1746649190173720289,0.002
1746649190181408107,0.009000000000000001
1746649190189095925,0.014
1746649190196783743,0.022
1746649190204471561,0.039
1746649190212159379,0.054
1746649190219847197,0.066
1746649190227535015,0.081
1746649190235222833,0.08600000000000001
1746649190242910651,0.091
1746649190250598469,0.10300000000000001
1746649190258286287,0.113
1746649190265974105,0.115
1746649190273661923,0.113
1746649190281349741,0.106
1746649190289037559,0.091
1746649190296725377,0.064
1746649190304413195,0.034
1746649190312101013,0.0
1746649190319788831,-0.034
1746649190327476649,-0.056
1746649190335164467,-0.073
1746649190342852285,-0.098
1746649190350540103,-0.12
1746649190358227921,-0.115
1746649190365915739,-0.101
1746649190373603557,-0.096
1746649190381291375,-0.096
1746649190388979238,-0.091,74,835
1746649190396666777,-0.091
1746649190404354316,-0.08600000000000001
1746649190412041855,-0.081
1746649190419729394,-0.081
1746649190427416933,-0.076
1746649190435104472,-0.069
1746649190442792011,-0.069
1746649190450479550,-0.059000000000000004
1746649190458167089,-0.056
1746649190465854628,-0.064
1746649190473542167,-0.059000000000000004
1746649190481229706,-0.059000000000000004
1746649190488917245,-0.07100000000000001
1746649190496604784,-0.069
1746649190504292323,-0.066
1746649190511979862,-0.078
1746649190519667401,-0.069
1746649190527354940,-0.051000000000000004
1746649190535042479,-0.061
1746649190542730018,-0.07100000000000001
1746649190550417557,-0.066
1746649190558105096,-0.061
1746649190565792635,-0.059000000000000004
1746649190573480174,-0.059000000000000004
1746649190581167713,-0.054
1746649190588855252,-0.056
1746649190596542791,-0.061
1746649190604230330,-0.059000000000000004
1746649190611917869,-0.049
1746649190619605408,-0.049
1746649190627292947,-0.059000000000000004
1746649190634980486,-0.059000000000000004
1746649190642668025,-0.049
1746649190650355564,-0.051000000000000004
1746649190658043103,-0.049
1746649190665730642,-0.039
1746649190673418181,-0.039
1746649190681105720,-0.049
1746649190688793259,-0.044
1746649190696480798,-0.029
1746649190704168337,-0.014
1746649190711855876,-0.004
1746649190719543415,-0.019
1746649190727230954,-0.041
1746649190734918493,-0.036000000000000004
1746649190742606032,-0.032
1746649190750293571,-0.051000000000000004
1746649190757981110,-0.054
1746649190765668649,-0.034
1746649190773356188,-0.039
1746649190781043727,-0.056
1746649190788731266,-0.064
1746649190796418805,0.022
1746649190804106344,0.369
1746649190811793883,0.766
1746649190819481422,0.579
1746649190827168961,-0.157
1746649190834856500,-0.542
1746649190842544039,-0.34500000000000003
1746649190850231578,-0.214
1746649190857919117,-0.241
1746649190865606656,-0.133
1746649190873294195,-0.029
1746649190880981734,-0.046
1746649190888669273,-0.041
1746649190896356812,-0.002
1746649190904044351,0.0
1746649190911731890,-0.007
1746649190919419429,-0.007
1746649190927106968,0.002
1746649190934794507,0.009000000000000001
1746649190942482046,0.004
1746649190950169653,0.002
1746649190957857541,0.009000000000000001
1746649190965545429,0.027
1746649190973233317,0.044
1746649190980921205,0.049
1746649190988609093,0.044
1746649190996296981,0.049
1746649191003984869,0.064
1746649191011672757,0.081
1746649191019360645,0.098
1746649191027048533,0.113
1746649191034736421,0.113
1746649191042424309,0.12
1746649191050112197,0.138
1746649191057800085,0.152
1746649191065487973,0.152
1746649191073175861,0.14
1746649191080863749,0.128
1746649191088551637,0.113
1746649191096239525,0.091
1746649191103927413,0.049
1746649191111615301,-0.007
1746649191119303189,-0.051000000000000004
1746649191126991077,-0.081
1746649191134678965,-0.108
1746649191142366853,-0.13
1746649191150054741,-0.14
1746649191157742629,-0.14300000000000002
1746649191165430517,-0.14
1746649191173118405,-0.135
1746649191180806293,-0.135
1746649191188494181,-0.13
1746649191196182069,-0.11800000000000001
1746649191203869957,-0.115
1746649191211557845,-0.113
1746649191219245733,-0.106
1746649191226933621,-0.096
1746649191234621509,-0.088
1746649191242309397,-0.081
1746649191249997285,-0.078
1746649191257685173,-0.081
1746649191265373061,-0.08600000000000001
1746649191273060949,-0.08600000000000001
1746649191280748837,-0.088
1746649191288436725,-0.091
1746649191296124613,-0.08600000000000001
1746649191303812501,-0.088
1746649191311500389,-0.093
1746649191319188277,-0.096
1746649191326876165,-0.088
1746649191334564053,-0.08600000000000001
1746649191342251941,-0.08600000000000001
1746649191349939829,-0.076
1746649191357627717,-0.069
1746649191365315605,-0.078
1746649191373003493,-0.078
1746649191380691381,-0.078
1746649191388379269,-0.088
1746649191396067157,-0.096
1746649191403755045,-0.091
1746649191411442933,-0.083
1746649191419130821,-0.076
1746649191426818709,-0.078
1746649191434506597,-0.096
1746649191442194485,-0.106
1746649191449882373,-0.093
1746649191457570261,-0.078
1746649191465258149,-0.07100000000000001
1746649191472946037,-0.069
1746649191480633925,-0.056
1746649191488321813,-0.034
1746649191496009701,-0.036000000000000004
1746649191503697589,-0.061
1746649191511385503,-0.07100000000000001,73,835
1746649191519073112,-0.069,,812
1746649191526760721,-0.073
1746649191534448330,-0.076
1746649191542135939,-0.07100000000000001
1746649191549823548,-0.073
1746649191557511157,-0.081
1746649191565198766,-0.093
1746649191572886375,-0.113
1746649191580573984,-0.004
1746649191588261593,0.394
1746649191595949202,0.769
1746649191603636811,0.522
1746649191611324420,-0.18
1746649191619012029,-0.505
1746649191626699638,-0.313
1746649191634387247,-0.197
1746649191642074856,-0.221
1746649191649762465,-0.138
1746649191657450074,-0.061
1746649191665137683,-0.081
1746649191672825292,-0.081
1746649191680512901,-0.056
1746649191688200510,-0.056
1746649191695888119,-0.054
1746649191703575728,-0.036000000000000004
1746649191711263337,-0.034
1746649191718950946,-0.044
1746649191726638555,-0.041
1746649191734326164,-0.034
1746649191742013773,-0.036000000000000004
1746649191749701382,-0.034
1746649191757388991,-0.024
1746649191765076600,-0.019
1746649191772764209,-0.009000000000000001
1746649191780451818,0.002
1746649191788139427,0.004
1746649191795827036,0.012
1746649191803514645,0.024
1746649191811202254,0.039
1746649191818889863,0.054
1746649191826577472,0.064
1746649191834265081,0.064
1746649191841952690,0.069
1746649191849640299,0.073
1746649191857327908,0.078
1746649191865015517,0.078
1746649191872703126,0.064
1746649191880390735,0.036000000000000004
1746649191888078344,0.002
1746649191895765953,-0.034
1746649191903453562,-0.066
1746649191911141171,-0.096
1746649191918828780,-0.123
1746649191926516389,-0.138
1746649191934203998,-0.147
1746649191941891607,-0.147
1746649191949579216,-0.14300000000000002
1746649191957266825,-0.14300000000000002
1746649191964954434,-0.138
1746649191972642043,-0.128
1746649191980329652,-0.125
1746649191988017261,-0.125
1746649191995704870,-0.12
1746649192003392479,-0.113
1746649192011080088,-0.11
1746649192018767697,-0.113
1746649192026455306,-0.113
1746649192034142915,-0.10300000000000001
1746649192041830524,-0.096
1746649192049518133,-0.101
1746649192057205742,-0.113
1746649192064893351,-0.108
1746649192072581001,-0.098
1746649192080268610,-0.10300000000000001
1746649192087956219,-0.108
1746649192095643828,-0.10300000000000001
1746649192103331437,-0.108
1746649192111019046,-0.11800000000000001
1746649192118706655,-0.113
1746649192126394264,-0.101
1746649192134081873,-0.101
1746649192141769482,-0.106
1746649192149457091,-0.101
1746649192157144700,-0.096
1746649192164832309,-0.098
1746649192172519918,-0.101
1746649192180207527,-0.098
1746649192187895136,-0.091
1746649192195582745,-0.093
1746649192203270354,-0.101
1746649192210957963,-0.098
1746649192218645572,-0.088
1746649192226333181,-0.096
1746649192234020790,-0.106
1746649192241708399,-0.101
1746649192249396008,-0.096
1746649192257083617,-0.093
1746649192264771226,-0.088
1746649192272458835,-0.076
1746649192280146444,-0.066
1746649192287834053,-0.061
1746649192295521662,-0.059000000000000004
1746649192303209271,-0.066
1746649192310896880,-0.076
1746649192318584489,-0.08600000000000001
1746649192326272098,-0.08600000000000001
1746649192333959707,-0.081
1746649192341647316,-0.083
1746649192349334925,-0.083
1746649192357022534,-0.081
1746649192364710143,-0.10300000000000001
1746649192372397752,-0.123
1746649192380085361,0.054
1746649192387772970,0.522
1746649192395460579,0.838
1746649192403148188,0.488
1746649192410835797,-0.194
1746649192418523406,-0.41100000000000003
1746649192426211015,-0.221
1746649192433898624,-0.177
1746649192441586233,-0.20400000000000001
1746649192449273842,-0.11800000000000001
1746649192456961451,-0.088
1746649192464649060,-0.11800000000000001
1746649192472336669,-0.098
1746649192480024278,-0.081
1746649192487711887,-0.091
1746649192495399496,-0.078
1746649192503087105,-0.061
1746649192510774714,-0.069
1746649192518462323,-0.069
1746649192526149932,-0.051000000000000004
1746649192533837541,-0.049
1746649192541525150,-0.051000000000000004
1746649192549212759,-0.041
1746649192556900368,-0.036000000000000004
1746649192564587977,-0.039
1746649192572275586,-0.034
1746649192579963195,-0.022
1746649192587650804,-0.014
1746649192595338413,-0.007
1746649192603026022,0.007
1746649192610713631,0.017
1746649192618401240,0.024
1746649192626088849,0.036000000000000004
1746649192633776507,0.046,73,802
1746649192641464395,0.054
1746649192649152283,0.059000000000000004
1746649192656840171,0.059000000000000004
1746649192664528059,0.054
1746649192672215947,0.044
1746649192679903835,0.022
1746649192687591723,-0.009000000000000001
1746649192695279611,-0.041
1746649192702967499,-0.076
1746649192710655387,-0.11
1746649192718343275,-0.125
1746649192726031163,-0.13
1746649192733719051,-0.14300000000000002
1746649192741406939,-0.14300000000000002
1746649192749094827,-0.138
1746649192756782715,-0.14300000000000002
1746649192764470603,-0.14300000000000002
1746649192772158491,-0.128
1746649192779846379,-0.115
1746649192787534267,-0.11800000000000001
1746649192795222155,-0.115
1746649192802910043,-0.115
1746649192810597931,-0.11800000000000001
1746649192818285819,-0.11800000000000001
1746649192825973707,-0.11800000000000001
1746649192833661595,-0.115
1746649192841349483,-0.106
1746649192849037371,-0.106
1746649192856725259,-0.108
1746649192864413147,-0.101
1746649192872101035,-0.093
1746649192879788923,-0.101
1746649192887476811,-0.108
1746649192895164699,-0.108
1746649192902852587,-0.10300000000000001
1746649192910540475,-0.101
1746649192918228363,-0.101
1746649192925916251,-0.101
1746649192933604139,-0.098
1746649192941292027,-0.098
1746649192948979915,-0.098
1746649192956667803,-0.096
1746649192964355691,-0.096
1746649192972043579,-0.091
1746649192979731467,-0.08600000000000001
1746649192987419355,-0.083
1746649192995107243,-0.083
1746649193002795131,-0.081
1746649193010483019,-0.078
1746649193018170907,-0.083
1746649193025858795,-0.08600000000000001
1746649193033546683,-0.08600000000000001
1746649193041234571,-0.083
1746649193048922459,-0.08600000000000001
1746649193056610347,-0.088
1746649193064298235,-0.083
1746649193071986123,-0.069
1746649193079674011,-0.056
1746649193087361899,-0.044
1746649193095049787,-0.036000000000000004
1746649193102737675,-0.046
1746649193110425563,-0.059000000000000004
1746649193118113451,-0.064
1746649193125801339,-0.066
1746649193133489227,-0.066
1746649193141177115,-0.059000000000000004
1746649193148865003,-0.059000000000000004
1746649193156552891,-0.061
1746649193164240779,-0.059000000000000004
1746649193171928667,-0.083
1746649193179616555,-0.093
1746649193187304443,0.125
1746649193194992353,0.604
1746649193202680101,0.8260000000000001
1746649193210367849,0.36
1746649193218055597,-0.273
1746649193225743345,-0.367
1746649193233431093,-0.18
1746649193241118841,-0.17500000000000002
1746649193248806589,-0.17
1746649193256494337,-0.069
1746649193264182085,-0.049
1746649193271869833,-0.076
1746649193279557581,-0.054
1746649193287245329,-0.036000000000000004
1746649193294933077,-0.041
1746649193302620825,-0.034
1746649193310308573,-0.022
1746649193317996321,-0.017
1746649193325684069,-0.012
1746649193333371817,-0.009000000000000001
1746649193341059565,-0.004
1746649193348747313,0.002
1746649193356435061,0.009000000000000001
1746649193364122809,0.014
1746649193371810557,0.019
1746649193379498305,0.027
1746649193387186053,0.032
1746649193394873801,0.041
1746649193402561549,0.056
1746649193410249297,0.073
1746649193417937045,0.083
1746649193425624793,0.091
1746649193433312541,0.101
1746649193441000289,0.11
1746649193448688037,0.12
1746649193456375785,0.125
1746649193464063533,0.128
1746649193471751281,0.123
1746649193479439029,0.11
1746649193487126777,0.083
1746649193494814525,0.046
1746649193502502273,0.019
1746649193510190021,-0.007
1746649193517877769,-0.032
1746649193525565517,-0.054
1746649193533253265,-0.064
1746649193540941013,-0.066
1746649193548628761,-0.069
1746649193556316509,-0.069
1746649193564004257,-0.059000000000000004
1746649193571692005,-0.049
1746649193579379753,-0.049
1746649193587067501,-0.046
1746649193594755249,-0.034
1746649193602442997,-0.029
1746649193610130745,-0.036000000000000004
1746649193617818493,-0.034
1746649193625506241,-0.024
1746649193633193989,-0.019
1746649193640881737,-0.024
1746649193648569485,-0.027
1746649193656257233,-0.027
1746649193663944981,-0.022
1746649193671632729,-0.012
1746649193679320477,-0.012
1746649193687008225,-0.017
1746649193694695973,-0.017
1746649193702383721,-0.014
1746649193710071469,-0.019
1746649193717759217,-0.019
1746649193725446965,-0.014
1746649193733134713,-0.014
1746649193740822461,-0.014
1746649193748510209,-0.004
1746649193756198029,0.002,73,783
1746649193763885777,0.004
1746649193771573525,0.0
1746649193779261273,0.002
1746649193786949021,0.009000000000000001
1746649193794636769,0.007
1746649193802324517,0.0
1746649193810012265,0.002
1746649193817700013,0.002
1746649193825387761,0.0
1746649193833075509,0.002
1746649193840763257,0.002
1746649193848451005,0.0
1746649193856138753,0.009000000000000001
1746649193863826501,0.027
1746649193871514249,0.034
1746649193879201997,0.044
1746649193886889745,0.051000000000000004
1746649193894577493,0.034
1746649193902265241,0.017
1746649193909952989,0.022
1746649193917640737,0.024
1746649193925328485,0.022
1746649193933016233,0.022
1746649193940703981,0.019
1746649193948391729,0.019
1746649193956079477,0.017
1746649193963767225,-0.012
1746649193971454973,-0.002
1746649193979142721,0.244
1746649193986830469,0.707
1746649193994518217,0.85
1746649194002205965,0.327
1746649194009893713,-0.261
1746649194017581461,-0.28300000000000003
1746649194025269209,-0.10300000000000001
1746649194032956957,-0.115
1746649194040644705,-0.093
1746649194048332453,0.009000000000000001
1746649194056020201,0.009000000000000001
1746649194063707949,-0.017
1746649194071395697,0.012
1746649194079083445,0.027
1746649194086771193,0.014
1746649194094458941,0.022
1746649194102146689,0.034
1746649194109834437,0.029
1746649194117522185,0.032
1746649194125209933,0.041
1746649194132897681,0.046
1746649194140585429,0.044
1746649194148273177,0.046
1746649194155960925,0.051000000000000004
1746649194163648673,0.054
1746649194171336421,0.059000000000000004
1746649194179024169,0.064
1746649194186711917,0.07100000000000001
1746649194194399665,0.083
1746649194202087413,0.091
1746649194209775161,0.101
1746649194217462909,0.113
1746649194225150657,0.12
1746649194232838405,0.12
1746649194240526153,0.125
1746649194248213901,0.13
1746649194255901649,0.13
1746649194263589397,0.12
1746649194271277145,0.101
1746649194278964893,0.076
1746649194286652641,0.036000000000000004
1746649194294340389,-0.002
1746649194302028137,-0.022
1746649194309715885,-0.041
1746649194317403701,-0.069
1746649194325091240,-0.083
1746649194332778779,-0.083
1746649194340466318,-0.083
1746649194348153857,-0.081
1746649194355841396,-0.081
1746649194363528935,-0.083
1746649194371216474,-0.073
1746649194378904013,-0.069
1746649194386591552,-0.07100000000000001
1746649194394279091,-0.069
1746649194401966630,-0.066
1746649194409654169,-0.066
1746649194417341708,-0.066
1746649194425029247,-0.066
1746649194432716786,-0.069
1746649194440404325,-0.07100000000000001
1746649194448091864,-0.07100000000000001
1746649194455779403,-0.069
1746649194463466942,-0.069
1746649194471154481,-0.076
1746649194478842020,-0.083
1746649194486529559,-0.081
1746649194494217098,-0.078
1746649194501904637,-0.083
1746649194509592176,-0.083
1746649194517279715,-0.076
1746649194524967254,-0.073
1746649194532654793,-0.078
1746649194540342332,-0.081
1746649194548029871,-0.078
1746649194555717410,-0.073
