time,ecg,hr,rr,marker
1747851551166306714,0.443
1747851551173992581,-0.726
1747851551181678448,-0.58
1747851551189364315,-0.049
1747851551197050182,-0.179
1747851551204736049,-0.275
1747851551212421916,-0.123
1747851551220107783,-0.123
1747851551227793650,-0.167
1747851551235479517,-0.11
1747851551243165384,-0.083
1747851551250851251,-0.091
1747851551258537118,-0.064
1747851551266222985,-0.036000000000000004
1747851551273908852,-0.027
1747851551281594719,-0.004
1747851551289280586,0.019
1747851551296966453,0.041
1747851551304652320,0.064
1747851551312338187,0.091
1747851551320024054,0.113
1747851551327709921,0.132
1747851551335395788,0.14200000000000002
1747851551343081655,0.14
1747851551350767522,0.123
1747851551358453389,0.098
1747851551366139256,0.07100000000000001
1747851551373825123,0.041
1747851551381510990,0.007
1747851551389196857,-0.029
1747851551396882724,-0.07100000000000001
1747851551404568591,-0.11800000000000001
1747851551412254458,-0.157
1747851551419940325,-0.189
1747851551427626192,-0.216
1747851551435312059,-0.231
1747851551442997926,-0.23600000000000002
1747851551450683793,-0.231
1747851551458369660,-0.224
1747851551466055527,-0.214
1747851551473741394,-0.20400000000000001
1747851551481427261,-0.199
1747851551489113128,-0.192
1747851551496798995,-0.182
1747851551504484862,-0.177
1747851551512170729,-0.17200000000000001
1747851551519856596,-0.167
1747851551527542463,-0.167
1747851551535228330,-0.167
1747851551542914197,-0.167
1747851551550600064,-0.167
1747851551558285931,-0.167
1747851551565971798,-0.167
1747851551573657665,-0.167
1747851551581343532,-0.169
1747851551589029399,-0.17200000000000001
1747851551596715266,-0.167
1747851551604401133,-0.164
1747851551612087000,-0.17200000000000001
1747851551619772867,-0.17400000000000002
1747851551627458734,-0.162
1747851551635144601,-0.15
1747851551642830468,-0.14200000000000002
1747851551650516335,-0.132
1747851551658202202,-0.11800000000000001
1747851551665888069,-0.105
1747851551673573936,-0.113
1747851551681259803,-0.15
1747851551688945670,-0.17400000000000002
1747851551696631537,-0.162
1747851551704317404,-0.152
1747851551712003271,-0.152
1747851551719689138,-0.15
1747851551727375057,-0.145,97,635
1747851551735061342,-0.152,,642
1747851551742747627,-0.17400000000000002
1747851551750433912,-0.211
1747851551758120197,-0.147
1747851551765806482,0.23800000000000002
1747851551773492767,0.92
1747851551781179052,1.5110000000000001
1747851551788865337,1.26
1747851551796551622,-0.054
1747851551804237907,-0.846
1747851551811924192,-0.354
1747851551819610477,-0.049
1747851551827296762,-0.28500000000000003
1747851551834983047,-0.256
1747851551842669332,-0.125
1747851551850355617,-0.17400000000000002
1747851551858041902,-0.179
1747851551865728187,-0.115
1747851551873414472,-0.108
1747851551881100757,-0.108
1747851551888787042,-0.078
1747851551896473327,-0.056
1747851551904159612,-0.041
1747851551911845897,-0.017
1747851551919532182,0.009000000000000001
1747851551927218467,0.029
1747851551934904752,0.049
1747851551942591037,0.073
1747851551950277322,0.1
1747851551957963607,0.11800000000000001
1747851551965649892,0.128
1747851551973336177,0.13
1747851551981022462,0.105
1747851551988708747,0.07100000000000001
1747851551996395032,0.051000000000000004
1747851552004081317,0.029
1747851552011767602,-0.007
1747851552019453887,-0.046
1747851552027140172,-0.08600000000000001
1747851552034826457,-0.128
1747851552042512742,-0.167
1747851552050199027,-0.201
1747851552057885312,-0.231
1747851552065571597,-0.251
1747851552073257882,-0.253
1747851552080944167,-0.246
1747851552088630452,-0.246
1747851552096316737,-0.23600000000000002
1747851552104003022,-0.211
1747851552111689307,-0.196
1747851552119375592,-0.196
1747851552127061877,-0.189
1747851552134748162,-0.184
1747851552142434447,-0.187
1747851552150120732,-0.182
1747851552157807017,-0.17400000000000002
1747851552165493302,-0.182
1747851552173179587,-0.196
1747851552180865872,-0.199
1747851552188552157,-0.194
1747851552196238442,-0.187
1747851552203924727,-0.187
1747851552211611012,-0.196
1747851552219297297,-0.192
1747851552226983582,-0.187
1747851552234669867,-0.20400000000000001
1747851552242356152,-0.214
1747851552250042437,-0.192
1747851552257728722,-0.17400000000000002
1747851552265415007,-0.167
1747851552273101292,-0.152
1747851552280787577,-0.132
1747851552288473918,-0.115
1747851552296159785,-0.13
1747851552303845652,-0.16
1747851552311531519,-0.179
1747851552319217386,-0.187
1747851552326903253,-0.179
1747851552334589120,-0.164
1747851552342274987,-0.157
1747851552349960854,-0.16
1747851552357646721,-0.17200000000000001
1747851552365332588,-0.20600000000000002
1747851552373018455,-0.224
1747851552380704322,-0.059000000000000004
1747851552388390189,0.45
1747851552396076056,1.169
1747851552403761923,1.612
1747851552411447790,0.9520000000000001
1747851552419133657,-0.462
1747851552426819524,-0.802
1747851552434505391,-0.192
1747851552442191258,-0.125
1747851552449877125,-0.332
1747851552457562992,-0.224
1747851552465248859,-0.152
1747851552472934726,-0.209
1747851552480620593,-0.179
1747851552488306460,-0.11800000000000001
1747851552495992327,-0.115
1747851552503678194,-0.113
1747851552511364061,-0.08600000000000001
1747851552519049928,-0.059000000000000004
1747851552526735795,-0.039
1747851552534421662,-0.012
1747851552542107529,0.009000000000000001
1747851552549793396,0.029
1747851552557479263,0.051000000000000004
1747851552565165130,0.07100000000000001
1747851552572850997,0.083
1747851552580536864,0.088
1747851552588222731,0.08600000000000001
1747851552595908598,0.078
1747851552603594465,0.056
1747851552611280332,0.024
1747851552618966199,0.007
1747851552626652066,-0.014
1747851552634337933,-0.051000000000000004
1747851552642023800,-0.091
1747851552649709667,-0.125
1747851552657395534,-0.169
1747851552665081401,-0.216
1747851552672767268,-0.246
1747851552680453135,-0.26
1747851552688139002,-0.273
1747851552695824869,-0.27
1747851552703510736,-0.256
1747851552711196603,-0.243
1747851552718882470,-0.241
1747851552726568337,-0.233
1747851552734254204,-0.216
1747851552741940071,-0.209
1747851552749625938,-0.214
1747851552757311805,-0.221
1747851552764997672,-0.214
1747851552772683539,-0.20400000000000001
1747851552780369406,-0.20600000000000002
1747851552788055273,-0.211
1747851552795741140,-0.209
1747851552803427007,-0.196
1747851552811112874,-0.189
1747851552818798741,-0.201
1747851552826484608,-0.211
1747851552834170475,-0.20400000000000001
1747851552841856342,-0.20400000000000001
1747851552849542261,-0.214,96,626
1747851552857228546,-0.214
1747851552864914831,-0.201
1747851552872601116,-0.184
1747851552880287401,-0.169
1747851552887973686,-0.162
1747851552895659971,-0.145
1747851552903346256,-0.123
1747851552911032541,-0.15
1747851552918718826,-0.199
1747851552926405111,-0.20400000000000001
1747851552934091396,-0.184
1747851552941777681,-0.182
1747851552949463966,-0.17400000000000002
1747851552957150251,-0.167
1747851552964836536,-0.169
1747851552972522821,-0.189
1747851552980209106,-0.241
1747851552987895391,-0.248
1747851552995581676,0.027
1747851553003267961,0.667
1747851553010954246,1.405
1747851553018640531,1.629
1747851553026326816,0.625
1747851553034013101,-0.6990000000000001
1747851553041699386,-0.681
1747851553049385671,-0.135
1747851553057071956,-0.228
1747851553064758241,-0.342
1747851553072444526,-0.199
1747851553080130811,-0.184
1747851553087817096,-0.224
1747851553095503381,-0.169
1747851553103189666,-0.132
1747851553110875951,-0.135
1747851553118562236,-0.11
1747851553126248521,-0.076
1747851553133934806,-0.059000000000000004
1747851553141621091,-0.044
1747851553149307376,-0.019
1747851553156993661,0.007
1747851553164679946,0.027
1747851553172366231,0.044
1747851553180052516,0.061
1747851553187738801,0.081
1747851553195425086,0.098
1747851553203111371,0.093
1747851553210797656,0.07100000000000001
1747851553218483941,0.041
1747851553226170226,0.014
1747851553233856511,-0.007
1747851553241542796,-0.022
1747851553249229081,-0.041
1747851553256915366,-0.07100000000000001
1747851553264601651,-0.105
1747851553272287936,-0.147
1747851553279974221,-0.189
1747851553287660506,-0.219
1747851553295346791,-0.23600000000000002
1747851553303033076,-0.241
1747851553310719361,-0.231
1747851553318405646,-0.214
1747851553326091931,-0.20600000000000002
1747851553333778216,-0.201
1747851553341464501,-0.199
1747851553349150786,-0.194
1747851553356837071,-0.187
1747851553364523356,-0.182
1747851553372209641,-0.182
1747851553379895926,-0.179
1747851553387582211,-0.17200000000000001
1747851553395268496,-0.17200000000000001
1747851553402954781,-0.167
1747851553410641122,-0.164
1747851553418326989,-0.167
1747851553426012856,-0.17400000000000002
1747851553433698723,-0.182
1747851553441384590,-0.182
1747851553449070457,-0.182
1747851553456756324,-0.187
1747851553464442191,-0.184
1747851553472128058,-0.17400000000000002
1747851553479813925,-0.152
1747851553487499792,-0.132
1747851553495185659,-0.13
1747851553502871526,-0.13
1747851553510557393,-0.115
1747851553518243260,-0.125
1747851553525929127,-0.167
1747851553533614994,-0.179
1747851553541300861,-0.157
1747851553548986728,-0.147
1747851553556672595,-0.15
1747851553564358462,-0.145
1747851553572044329,-0.14200000000000002
1747851553579730196,-0.162
1747851553587416063,-0.224
1747851553595101930,-0.226
1747851553602787797,0.064
1747851553610473664,0.716
1747851553618159531,1.447
1747851553625845398,1.6320000000000001
1747851553633531265,0.5730000000000001
1747851553641217132,-0.716
1747851553648902999,-0.61
1747851553656588866,-0.068
1747851553664274733,-0.209
1747851553671960600,-0.312
1747851553679646467,-0.155
1747851553687332334,-0.15
1747851553695018201,-0.192
1747851553702704068,-0.132
1747851553710389935,-0.098
1747851553718075802,-0.096
1747851553725761669,-0.068
1747851553733447536,-0.041
1747851553741133403,-0.032
1747851553748819270,-0.009000000000000001
1747851553756505137,0.024
1747851553764191004,0.046
1747851553771876871,0.066
1747851553779562738,0.096
1747851553787248605,0.12
1747851553794934472,0.128
1747851553802620339,0.13
1747851553810306206,0.132
1747851553817992073,0.12
1747851553825677940,0.096
1747851553833363807,0.07100000000000001
1747851553841049674,0.044
1747851553848735541,0.017
1747851553856421408,-0.012
1747851553864107275,-0.051000000000000004
1747851553871793142,-0.098
1747851553879479009,-0.137
1747851553887164876,-0.17400000000000002
1747851553894850743,-0.20600000000000002
1747851553902536610,-0.226
1747851553910222477,-0.226
1747851553917908344,-0.221
1747851553925594211,-0.211
1747851553933280078,-0.201
1747851553940965945,-0.194
1747851553948651812,-0.187
1747851553956337679,-0.177
1747851553964023546,-0.169
1747851553971709465,-0.164,96,628
1747851553979395402,-0.16,,620
1747851553987081339,-0.155
1747851553994767276,-0.155
1747851554002453213,-0.152
1747851554010139150,-0.15
1747851554017825087,-0.152
1747851554025511024,-0.15
1747851554033196961,-0.15
1747851554040882898,-0.15
1747851554048568835,-0.15
1747851554056254772,-0.155
1747851554063940709,-0.157
1747851554071626646,-0.152
1747851554079312583,-0.14200000000000002
1747851554086998520,-0.13
1747851554094684457,-0.123
1747851554102370394,-0.11800000000000001
1747851554110056331,-0.10300000000000001
1747851554117742268,-0.108
1747851554125428205,-0.145
1747851554133114142,-0.167
1747851554140800079,-0.152
1747851554148486016,-0.14
1747851554156171953,-0.14
1747851554163857890,-0.135
1747851554171543827,-0.135
1747851554179229764,-0.152
1747851554186915701,-0.199
1747851554194601638,-0.248
1747851554202287575,-0.098
1747851554209973512,0.455
1747851554217659449,1.233
1747851554225345386,1.72
1747851554233031323,1.095
1747851554240717260,-0.369
1747851554248403197,-0.804
1747851554256089134,-0.216
1747851554263775071,-0.123
1747851554271461008,-0.317
1747851554279146945,-0.20400000000000001
1747851554286832882,-0.135
1747851554294518819,-0.196
1747851554302204756,-0.167
1747851554309890693,-0.11
1747851554317576630,-0.11
1747851554325262567,-0.096
1747851554332948504,-0.061
1747851554340634441,-0.044
1747851554348320378,-0.029
1747851554356006315,-0.002
1747851554363692252,0.019
1747851554371378189,0.041
1747851554379064126,0.064
1747851554386750063,0.081
1747851554394436000,0.093
1747851554402121937,0.10300000000000001
1747851554409807874,0.10300000000000001
1747851554417493811,0.093
1747851554425179748,0.07100000000000001
1747851554432865685,0.041
1747851554440551622,0.017
1747851554448237559,-0.007
1747851554455923496,-0.036000000000000004
1747851554463609433,-0.07100000000000001
1747851554471295370,-0.108
1747851554478981307,-0.145
1747851554486667244,-0.182
1747851554494353181,-0.214
1747851554502039118,-0.23600000000000002
1747851554509725055,-0.241
1747851554517410992,-0.23800000000000002
1747851554525096929,-0.228
1747851554532782899,-0.221,96,613
1747851554540469115,-0.211,,606
1747851554548155331,-0.201
1747851554555841547,-0.192
1747851554563527763,-0.187
1747851554571213979,-0.184
1747851554578900195,-0.179
1747851554586586411,-0.17400000000000002
1747851554594272627,-0.169
1747851554601958843,-0.169
1747851554609645059,-0.169
1747851554617331275,-0.167
1747851554625017491,-0.164
1747851554632703707,-0.164
1747851554640389923,-0.164
1747851554648076139,-0.167
1747851554655762355,-0.17200000000000001
1747851554663448571,-0.179
1747851554671134787,-0.177
1747851554678821003,-0.167
1747851554686507219,-0.155
1747851554694193435,-0.14200000000000002
1747851554701879651,-0.132
1747851554709565867,-0.11800000000000001
1747851554717252083,-0.108
1747851554724938299,-0.132
1747851554732624515,-0.167
1747851554740310731,-0.169
1747851554747996947,-0.155
1747851554755683163,-0.147
1747851554763369379,-0.14200000000000002
1747851554771055595,-0.14
1747851554778741811,-0.152
1747851554786428027,-0.192
1747851554794114243,-0.253
1747851554801800459,-0.196
1747851554809486675,0.233
1747851554817172891,0.997
1747851554824859107,1.686
1747851554832545323,1.506
1747851554840231539,0.135
1747851554847917755,-0.836
1747851554855603971,-0.433
1747851554863290187,-0.083
1747851554870976403,-0.295
1747851554878662619,-0.28500000000000003
1747851554886348835,-0.16
1747851554894035051,-0.199
1747851554901721267,-0.201
1747851554909407483,-0.135
1747851554917093699,-0.125
1747851554924779915,-0.12
1747851554932466131,-0.08600000000000001
1747851554940152347,-0.068
1747851554947838563,-0.059000000000000004
1747851554955524779,-0.032
1747851554963210995,-0.004
1747851554970897211,0.012
1747851554978583427,0.034
1747851554986269643,0.056
1747851554993955859,0.073
1747851555001642075,0.088
1747851555009328291,0.096
1747851555017014507,0.088
1747851555024700723,0.068
1747851555032386939,0.049
1747851555040073155,0.022
1747851555047759371,-0.004
1747851555055445587,-0.032
1747851555063131803,-0.066
1747851555070818019,-0.108
1747851555078504235,-0.145
1747851555086190451,-0.182
1747851555093876673,-0.216
1747851555101562540,-0.241
1747851555109248407,-0.253
1747851555116934274,-0.256
1747851555124620141,-0.246
1747851555132306008,-0.233
1747851555139991875,-0.226
1747851555147677742,-0.216
1747851555155363609,-0.20600000000000002
1747851555163049476,-0.196
1747851555170735343,-0.189
1747851555178421210,-0.184
1747851555186107077,-0.179
1747851555193792944,-0.177
1747851555201478811,-0.17400000000000002
1747851555209164678,-0.17200000000000001
1747851555216850545,-0.17400000000000002
1747851555224536412,-0.17400000000000002
1747851555232222279,-0.17200000000000001
1747851555239908146,-0.17200000000000001
1747851555247594013,-0.17400000000000002
1747851555255279880,-0.182
1747851555262965747,-0.179
1747851555270651614,-0.17200000000000001
1747851555278337481,-0.16
1747851555286023348,-0.147
1747851555293709215,-0.14
1747851555301395082,-0.13
1747851555309080949,-0.113
1747851555316766816,-0.123
1747851555324452683,-0.157
1747851555332138550,-0.17200000000000001
1747851555339824417,-0.157
1747851555347510284,-0.15
1747851555355196151,-0.145
1747851555362882018,-0.14
1747851555370567885,-0.145
1747851555378253752,-0.17400000000000002
1747851555385939619,-0.241
1747851555393625486,-0.268
1747851555401311353,0.002
1747851555408997220,0.6890000000000001
1747851555416683087,1.506
1747851555424368954,1.7870000000000001
1747851555432054821,0.782
1747851555439740688,-0.608
1747851555447426555,-0.672
1747851555455112422,-0.15
1747851555462798289,-0.226
1747851555470484156,-0.324
1747851555478170023,-0.184
1747851555485855890,-0.17400000000000002
1747851555493541757,-0.214
1747851555501227624,-0.157
1747851555508913491,-0.125
1747851555516599358,-0.128
1747851555524285225,-0.10300000000000001
1747851555531971092,-0.07100000000000001
1747851555539656959,-0.056
1747851555547342826,-0.034
1747851555555028693,-0.009000000000000001
1747851555562714560,0.007
1747851555570400427,0.029
1747851555578086294,0.056
1747851555585772161,0.073
1747851555593458028,0.088
1747851555601143895,0.10300000000000001
1747851555608829762,0.10300000000000001
1747851555616515629,0.091
1747851555624201496,0.068
1747851555631887363,0.044
1747851555639573230,0.017
1747851555647259097,-0.009000000000000001
1747851555654945016,-0.036000000000000004,97,603
1747851555662631301,-0.068
1747851555670317586,-0.108
1747851555678003871,-0.152
1747851555685690156,-0.189
1747851555693376441,-0.211
1747851555701062726,-0.226
1747851555708749011,-0.243
1747851555716435296,-0.251
1747851555724121581,-0.231
1747851555731807866,-0.211
1747851555739494151,-0.201
1747851555747180436,-0.192
1747851555754866721,-0.187
1747851555762553006,-0.184
1747851555770239291,-0.17400000000000002
1747851555777925576,-0.164
1747851555785611861,-0.169
1747851555793298146,-0.17200000000000001
1747851555800984431,-0.167
1747851555808670716,-0.157
1747851555816357001,-0.15
1747851555824043286,-0.155
1747851555831729571,-0.155
1747851555839415856,-0.167
1747851555847102141,-0.17200000000000001
1747851555854788426,-0.157
1747851555862474711,-0.14
1747851555870160996,-0.135
1747851555877847281,-0.145
1747851555885533566,-0.135
1747851555893219851,-0.11
1747851555900906136,-0.10300000000000001
1747851555908592421,-0.128
1747851555916278706,-0.164
1747851555923964991,-0.177
1747851555931651276,-0.17400000000000002
1747851555939337561,-0.17400000000000002
1747851555947023846,-0.167
1747851555954710131,-0.152
1747851555962396416,-0.152
1747851555970082701,-0.182
1747851555977768986,-0.243
1747851555985455271,-0.265
1747851555993141556,0.004
1747851556000827841,0.726
1747851556008514126,1.543
1747851556016200411,1.733
1747851556023886696,0.7010000000000001
1747851556031572981,-0.622
1747851556039259266,-0.659
1747851556046945551,-0.14
1747851556054631836,-0.201
1747851556062318121,-0.29
1747851556070004406,-0.15
1747851556077690691,-0.135
1747851556085376976,-0.162
1747851556093063261,-0.10300000000000001
1747851556100749546,-0.073
1747851556108435831,-0.081
1747851556116122116,-0.051000000000000004
1747851556123808401,-0.012
1747851556131494686,0.004
1747851556139180971,0.022
1747851556146867256,0.056
1747851556154553541,0.081
1747851556162239826,0.1
1747851556169926111,0.132
1747851556177612396,0.16
1747851556185298681,0.177
1747851556192984966,0.189
1747851556200671251,0.187
1747851556208357536,0.167
1747851556216043877,0.14
1747851556223729744,0.11
1747851556231415611,0.078
1747851556239101478,0.046
1747851556246787345,0.007
1747851556254473212,-0.049
1747851556262159079,-0.098
1747851556269844946,-0.137
1747851556277530813,-0.17200000000000001
1747851556285216680,-0.209
1747851556292902547,-0.233
1747851556300588414,-0.23800000000000002
1747851556308274281,-0.231
1747851556315960148,-0.228
1747851556323646015,-0.221
1747851556331331882,-0.20600000000000002
1747851556339017749,-0.196
1747851556346703616,-0.192
1747851556354389483,-0.179
1747851556362075350,-0.167
1747851556369761217,-0.162
1747851556377447084,-0.157
1747851556385132951,-0.15
1747851556392818818,-0.15
1747851556400504685,-0.152
1747851556408190552,-0.147
1747851556415876419,-0.147
1747851556423562286,-0.152
1747851556431248153,-0.162
1747851556438934020,-0.167
1747851556446619887,-0.157
1747851556454305754,-0.147
1747851556461991621,-0.14
1747851556469677488,-0.137
1747851556477363355,-0.132
1747851556485049222,-0.113
1747851556492735089,-0.10300000000000001
1747851556500420956,-0.132
1747851556508106823,-0.169
1747851556515792690,-0.169
1747851556523478557,-0.155
1747851556531164424,-0.162
1747851556538850291,-0.167
1747851556546536158,-0.164
1747851556554222025,-0.167
1747851556561907892,-0.209
1747851556569593759,-0.268
1747851556577279626,-0.105
1747851556584965493,0.514
1747851556592651360,1.336
1747851556600337227,1.752
1747851556608023094,1.006
1747851556615708961,-0.452
1747851556623394828,-0.785
1747851556631080695,-0.184
1747851556638766562,-0.152
1747851556646452429,-0.356
1747851556654138296,-0.228
1747851556661824163,-0.157
1747851556669510030,-0.209
1747851556677195897,-0.17400000000000002
1747851556684881764,-0.128
1747851556692567631,-0.132
1747851556700253498,-0.108
1747851556707939365,-0.066
1747851556715625232,-0.054
1747851556723311099,-0.046
1747851556730996966,-0.017
1747851556738682833,0.014
1747851556746368700,0.036000000000000004
1747851556754054567,0.061
1747851556761740434,0.096
1747851556769426301,0.125
1747851556777112220,0.14200000000000002,98,603
1747851556784798505,0.14200000000000002,,595
1747851556792484790,0.125
1747851556800171075,0.108
1747851556807857360,0.08600000000000001
1747851556815543645,0.041
1747851556823229930,-0.002
1747851556830916215,-0.036000000000000004
1747851556838602500,-0.078
1747851556846288785,-0.125
1747851556853975070,-0.17400000000000002
1747851556861661355,-0.226
1747851556869347640,-0.251
1747851556877033925,-0.243
1747851556884720210,-0.251
1747851556892406495,-0.275
1747851556900092780,-0.265
1747851556907779065,-0.221
1747851556915465350,-0.199
1747851556923151635,-0.194
1747851556930837920,-0.184
1747851556938524205,-0.194
1747851556946210490,-0.201
1747851556953896775,-0.192
1747851556961583060,-0.182
1747851556969269345,-0.177
1747851556976955630,-0.169
1747851556984641915,-0.169
1747851556992328200,-0.167
1747851557000014485,-0.16
1747851557007700770,-0.169
1747851557015387055,-0.177
1747851557023073340,-0.157
1747851557030759625,-0.145
1747851557038445910,-0.155
1747851557046132195,-0.157
1747851557053818480,-0.155
1747851557061504765,-0.137
1747851557069191050,-0.10300000000000001
1747851557076877335,-0.105
1747851557084563620,-0.147
1747851557092249905,-0.17400000000000002
1747851557099936190,-0.179
1747851557107622475,-0.167
1747851557115308760,-0.15
1747851557122995045,-0.155
1747851557130681330,-0.177
1747851557138367615,-0.209
1747851557146053900,-0.278
1747851557153740185,-0.256
1747851557161426470,0.16
1747851557169112755,0.965
1747851557176799040,1.733
1747851557184485325,1.6560000000000001
1747851557192171610,0.28800000000000003
1747851557199857895,-0.854
1747851557207544180,-0.512
1747851557215230465,-0.07100000000000001
1747851557222916750,-0.275
1747851557230603035,-0.312
1747851557238289320,-0.182
1747851557245975605,-0.216
1747851557253661890,-0.231
1747851557261348175,-0.155
1747851557269034460,-0.125
1747851557276720745,-0.12
1747851557284407030,-0.091
1747851557292093315,-0.07100000000000001
1747851557299779600,-0.073
1747851557307465885,-0.041
1747851557315152170,0.014
1747851557322838455,0.034
1747851557330524740,0.041
1747851557338211081,0.083
1747851557345897018,0.115
1747851557353582955,0.13
1747851557361268892,0.14200000000000002
1747851557368954829,0.147
1747851557376640766,0.14
1747851557384326703,0.11800000000000001
1747851557392012640,0.098
1747851557399698577,0.07100000000000001
1747851557407384514,0.012
1747851557415070451,-0.044
1747851557422756388,-0.091
1747851557430442325,-0.147
1747851557438128262,-0.196
1747851557445814199,-0.216
1747851557453500136,-0.251
1747851557461186073,-0.28300000000000003
1747851557468872010,-0.273
1747851557476557947,-0.243
1747851557484243884,-0.231
1747851557491929821,-0.23800000000000002
1747851557499615758,-0.23600000000000002
1747851557507301695,-0.216
1747851557514987632,-0.179
1747851557522673569,-0.177
1747851557530359506,-0.199
1747851557538045443,-0.189
1747851557545731380,-0.17400000000000002
1747851557553417317,-0.20400000000000001
1747851557561103254,-0.196
1747851557568789191,-0.152
1747851557576475128,-0.169
1747851557584161065,-0.196
1747851557591847002,-0.17200000000000001
1747851557599532939,-0.177
1747851557607218876,-0.199
1747851557614904813,-0.169
1747851557622590750,-0.16
1747851557630276687,-0.16
1747851557637962624,-0.132
1747851557645648561,-0.128
1747851557653334498,-0.14200000000000002
1747851557661020435,-0.14
1747851557668706372,-0.155
1747851557676392309,-0.177
1747851557684078246,-0.177
1747851557691764183,-0.182
1747851557699450120,-0.167
1747851557707136057,-0.115
1747851557714821994,-0.132
1747851557722507931,-0.224
1747851557730193868,-0.302
1747851557737879805,-0.241
1747851557745565742,0.209
1747851557753251679,1.038
1747851557760937616,1.799
1747851557768623553,1.609
1747851557776309490,0.162
1747851557783995427,-0.849
1747851557791681364,-0.438
1747851557799367301,-0.1
1747851557807053238,-0.327
1747851557814739175,-0.292
1747851557822425112,-0.157
1747851557830111049,-0.221
1747851557837796986,-0.228
1747851557845482923,-0.155
1747851557853168860,-0.145
1747851557860854797,-0.14200000000000002
1747851557868540734,-0.105
1747851557876226671,-0.083
1747851557883912608,-0.068
1747851557891598545,-0.036000000000000004
1747851557899284515,-0.009000000000000001,99,592
1747851557906970731,0.012,,586
1747851557914656947,0.049
1747851557922343163,0.083
1747851557930029379,0.113
1747851557937715595,0.14
1747851557945401811,0.152
1747851557953088027,0.145
1747851557960774243,0.128
1747851557968460459,0.115
1747851557976146675,0.093
1747851557983832891,0.054
1747851557991519107,0.027
1747851557999205323,-0.017
1747851558006891539,-0.1
1747851558014577755,-0.167
1747851558022263971,-0.196
1747851558029950187,-0.224
1747851558037636403,-0.253
1747851558045322619,-0.265
1747851558053008835,-0.258
1747851558060695051,-0.253
1747851558068381267,-0.251
1747851558076067483,-0.23600000000000002
1747851558083753699,-0.221
1747851558091439915,-0.214
1747851558099126131,-0.199
1747851558106812347,-0.192
1747851558114498563,-0.196
1747851558122184779,-0.194
1747851558129870995,-0.182
1747851558137557211,-0.179
1747851558145243427,-0.187
1747851558152929643,-0.196
1747851558160615859,-0.194
1747851558168302075,-0.187
1747851558175988291,-0.187
1747851558183674507,-0.184
1747851558191360723,-0.177
1747851558199046939,-0.177
1747851558206733155,-0.17400000000000002
1747851558214419371,-0.157
1747851558222105587,-0.152
1747851558229791803,-0.15
1747851558237478019,-0.123
1747851558245164235,-0.108
1747851558252850451,-0.147
1747851558260536667,-0.179
1747851558268222883,-0.16
1747851558275909099,-0.147
1747851558283595315,-0.157
1747851558291281531,-0.155
1747851558298967747,-0.14
1747851558306653963,-0.162
1747851558314340179,-0.243
1747851558322026395,-0.295
1747851558329712611,-0.049
1747851558337398827,0.644
1747851558345085043,1.504
1747851558352771259,1.856
1747851558360457475,0.913
1747851558368143691,-0.558
1747851558375829907,-0.723
1747851558383516123,-0.14200000000000002
1747851558391202339,-0.187
1747851558398888555,-0.334
1747851558406574771,-0.192
1747851558414260987,-0.157
1747851558421947203,-0.209
1747851558429633419,-0.16
1747851558437319635,-0.11800000000000001
1747851558445005851,-0.123
1747851558452692067,-0.1
1747851558460378289,-0.066
1747851558468064365,-0.051000000000000004
1747851558475750441,-0.029
1747851558483436517,-0.002
1747851558491122593,0.027
1747851558498808669,0.056
1747851558506494745,0.078
1747851558514180821,0.098
1747851558521866897,0.12
1747851558529552973,0.147
1747851558537239049,0.162
1747851558544925125,0.145
1747851558552611201,0.125
1747851558560297277,0.128
1747851558567983353,0.11800000000000001
1747851558575669429,0.068
1747851558583355505,0.009000000000000001
1747851558591041581,-0.044
1747851558598727657,-0.093
1747851558606413733,-0.145
1747851558614099809,-0.187
1747851558621785885,-0.216
1747851558629471961,-0.23600000000000002
1747851558637158037,-0.241
1747851558644844113,-0.23600000000000002
1747851558652530189,-0.228
1747851558660216265,-0.216
1747851558667902341,-0.20400000000000001
1747851558675588417,-0.194
1747851558683274493,-0.182
1747851558690960569,-0.17400000000000002
1747851558698646645,-0.17400000000000002
1747851558706332721,-0.169
1747851558714018797,-0.157
1747851558721704873,-0.152
1747851558729390949,-0.16
1747851558737077025,-0.16
1747851558744763101,-0.15
1747851558752449177,-0.147
1747851558760135253,-0.157
1747851558767821329,-0.162
1747851558775507405,-0.162
1747851558783193481,-0.16
1747851558790879557,-0.145
1747851558798565633,-0.125
1747851558806251709,-0.11800000000000001
1747851558813937785,-0.113
1747851558821623861,-0.098
1747851558829309937,-0.098
1747851558836996013,-0.125
1747851558844682089,-0.14
1747851558852368165,-0.147
1747851558860054241,-0.147
1747851558867740317,-0.13
1747851558875426393,-0.11800000000000001
1747851558883112469,-0.14
1747851558890798545,-0.184
1747851558898484621,-0.248
1747851558906170697,-0.23600000000000002
1747851558913856773,0.152
1747851558921542849,0.969
1747851558929228925,1.75
1747851558936915001,1.693
1747851558944601077,0.374
1747851558952287153,-0.775
1747851558959973229,-0.499
1747851558967659305,-0.073
1747851558975345381,-0.273
1747851558983031457,-0.3
1747851558990717533,-0.14
1747851558998403609,-0.17400000000000002
1747851559006089685,-0.20600000000000002
1747851559013775761,-0.132
1747851559021461893,-0.108,99,580
1747851559029147969,-0.115
1747851559036834045,-0.088
1747851559044520121,-0.056
1747851559052206197,-0.039
1747851559059892273,-0.014
1747851559067578349,0.027
1747851559075264425,0.054
1747851559082950501,0.078
1747851559090636577,0.11800000000000001
1747851559098322653,0.152
1747851559106008729,0.167
1747851559113694805,0.184
1747851559121380881,0.196
1747851559129066957,0.179
1747851559136753033,0.15
1747851559144439109,0.123
1747851559152125185,0.088
1747851559159811261,0.044
1747851559167497337,0.0
1747851559175183413,-0.054
1747851559182869489,-0.11800000000000001
1747851559190555565,-0.169
1747851559198241641,-0.20600000000000002
1747851559205927717,-0.231
1747851559213613793,-0.246
1747851559221299869,-0.251
1747851559228985945,-0.253
1747851559236672021,-0.243
1747851559244358097,-0.216
1747851559252044173,-0.201
1747851559259730249,-0.209
1747851559267416325,-0.201
1747851559275102401,-0.184
1747851559282788477,-0.192
1747851559290474553,-0.196
1747851559298160629,-0.184
1747851559305846705,-0.17200000000000001
1747851559313532781,-0.17200000000000001
1747851559321218857,-0.169
1747851559328904933,-0.164
1747851559336591009,-0.177
1747851559344277085,-0.189
1747851559351963161,-0.187
1747851559359649237,-0.177
1747851559367335313,-0.162
1747851559375021389,-0.155
1747851559382707465,-0.15
1747851559390393541,-0.137
1747851559398079617,-0.13
1747851559405765693,-0.155
1747851559413451769,-0.187
1747851559421137845,-0.187
1747851559428823921,-0.177
1747851559436509997,-0.167
1747851559444196073,-0.155
1747851559451882149,-0.16
1747851559459568225,-0.194
1747851559467254301,-0.275
1747851559474940377,-0.34900000000000003
1747851559482626453,-0.11800000000000001
1747851559490312529,0.62
1747851559497998605,1.469
1747851559505684681,1.708
1747851559513370757,0.75
1747851559521056833,-0.593
1747851559528742909,-0.6990000000000001
1747851559536428985,-0.157
1747851559544115061,-0.20400000000000001
1747851559551801137,-0.324
1747851559559487213,-0.187
1747851559567173289,-0.167
1747851559574859365,-0.214
1747851559582545493,-0.162,101,583
1747851559590231709,-0.125,,588
1747851559597917925,-0.13
1747851559605604141,-0.10300000000000001
1747851559613290357,-0.07100000000000001
1747851559620976573,-0.059000000000000004
1747851559628662789,-0.034
1747851559636349005,0.0
1747851559644035221,0.024
1747851559651721437,0.054
1747851559659407653,0.088
1747851559667093869,0.115
1747851559674780085,0.14
1747851559682466301,0.157
1747851559690152517,0.157
1747851559697838733,0.14
1747851559705524949,0.115
1747851559713211165,0.091
1747851559720897381,0.059000000000000004
1747851559728583597,0.014
1747851559736269813,-0.034
1747851559743956029,-0.078
1747851559751642245,-0.123
1747851559759328461,-0.17400000000000002
1747851559767014677,-0.221
1747851559774700893,-0.243
1747851559782387109,-0.246
1747851559790073325,-0.251
1747851559797759541,-0.251
1747851559805445757,-0.241
1747851559813131973,-0.23800000000000002
1747851559820818189,-0.228
1747851559828504405,-0.214
1747851559836190621,-0.20600000000000002
1747851559843876837,-0.199
1747851559851563053,-0.194
1747851559859249269,-0.192
1747851559866935485,-0.189
1747851559874621701,-0.184
1747851559882307917,-0.189
1747851559889994133,-0.192
1747851559897680349,-0.189
1747851559905366565,-0.189
1747851559913052781,-0.192
1747851559920738997,-0.196
1747851559928425213,-0.201
1747851559936111429,-0.196
1747851559943797645,-0.182
1747851559951483861,-0.177
1747851559959170077,-0.17400000000000002
1747851559966856293,-0.16
1747851559974542509,-0.14
1747851559982228725,-0.147
1747851559989914941,-0.182
1747851559997601157,-0.196
1747851560005287373,-0.177
1747851560012973589,-0.167
1747851560020659805,-0.17400000000000002
1747851560028346021,-0.17200000000000001
1747851560036032237,-0.182
1747851560043718453,-0.221
1747851560051404669,-0.28300000000000003
1747851560059090885,-0.224
1747851560066777101,0.221
1747851560074463317,0.999
1747851560082149533,1.6440000000000001
1747851560089835749,1.427
1747851560097521965,0.08600000000000001
1747851560105208181,-0.851
1747851560112894397,-0.428
1747851560120580613,-0.07100000000000001
1747851560128266829,-0.307
1747851560135953045,-0.307
1747851560143639271,-0.164
1747851560151325208,-0.20600000000000002
1747851560159011145,-0.219
1747851560166697082,-0.155
1747851560174383019,-0.14
1747851560182068956,-0.14
1747851560189754893,-0.11
1747851560197440830,-0.088
1747851560205126767,-0.068
1747851560212812704,-0.041
1747851560220498641,-0.017
1747851560228184578,0.009000000000000001
1747851560235870515,0.041
1747851560243556452,0.076
1747851560251242389,0.10300000000000001
1747851560258928326,0.12
1747851560266614263,0.135
1747851560274300200,0.132
1747851560281986137,0.11800000000000001
1747851560289672074,0.098
1747851560297358011,0.07100000000000001
1747851560305043948,0.039
1747851560312729885,0.002
1747851560320415822,-0.049
1747851560328101759,-0.10300000000000001
1747851560335787696,-0.155
1747851560343473633,-0.199
1747851560351159570,-0.23600000000000002
1747851560358845507,-0.258
1747851560366531444,-0.26
1747851560374217381,-0.256
1747851560381903318,-0.253
1747851560389589255,-0.248
1747851560397275192,-0.231
1747851560404961129,-0.226
1747851560412647066,-0.224
1747851560420333003,-0.214
1747851560428018940,-0.201
1747851560435704877,-0.199
1747851560443390814,-0.20400000000000001
1747851560451076751,-0.20400000000000001
1747851560458762688,-0.201
1747851560466448625,-0.201
1747851560474134562,-0.201
1747851560481820499,-0.201
1747851560489506436,-0.201
1747851560497192373,-0.196
1747851560504878310,-0.194
1747851560512564247,-0.199
1747851560520250184,-0.201
1747851560527936121,-0.194
1747851560535622058,-0.182
1747851560543307995,-0.169
1747851560550993932,-0.162
1747851560558679869,-0.155
1747851560566365806,-0.14
1747851560574051743,-0.137
1747851560581737680,-0.164
1747851560589423617,-0.192
1747851560597109554,-0.184
1747851560604795491,-0.17200000000000001
1747851560612481428,-0.169
1747851560620167365,-0.164
1747851560627853302,-0.169
1747851560635539239,-0.194
1747851560643225176,-0.251
1747851560650911113,-0.275
1747851560658597050,-0.029
1747851560666282987,0.632
1747851560673968924,1.43
1747851560681654861,1.715
1747851560689340798,0.765
1747851560697026735,-0.632
1747851560704712697,-0.723,101,581
1747851560712398982,-0.132,,571
1747851560720085267,-0.20400000000000001
1747851560727771552,-0.366
1747851560735457837,-0.216
1747851560743144122,-0.179
1747851560750830407,-0.23800000000000002
1747851560758516692,-0.192
1747851560766202977,-0.15
1747851560773889262,-0.155
1747851560781575547,-0.13
1747851560789261832,-0.096
1747851560796948117,-0.081
1747851560804634402,-0.064
1747851560812320687,-0.034
1747851560820006972,-0.007
1747851560827693257,0.022
1747851560835379542,0.051000000000000004
1747851560843065827,0.081
1747851560850752112,0.105
1747851560858438397,0.123
1747851560866124682,0.13
1747851560873810967,0.12
1747851560881497252,0.1
1747851560889183537,0.078
1747851560896869822,0.051000000000000004
1747851560904556107,0.019
1747851560912242392,-0.019
1747851560919928677,-0.066
1747851560927614962,-0.12
1747851560935301247,-0.169
1747851560942987532,-0.209
1747851560950673817,-0.23800000000000002
1747851560958360102,-0.256
1747851560966046387,-0.258
1747851560973732672,-0.251
1747851560981418957,-0.243
1747851560989105242,-0.233
1747851560996791527,-0.224
1747851561004477812,-0.216
1747851561012164097,-0.209
1747851561019850382,-0.20400000000000001
1747851561027536667,-0.20400000000000001
1747851561035222952,-0.201
1747851561042909237,-0.199
1747851561050595522,-0.196
1747851561058281807,-0.199
1747851561065968092,-0.199
1747851561073654377,-0.199
1747851561081340662,-0.196
1747851561089026947,-0.194
1747851561096713232,-0.194
1747851561104399517,-0.192
1747851561112085802,-0.187
1747851561119772087,-0.184
1747851561127458372,-0.187
1747851561135144657,-0.194
1747851561142830942,-0.192
1747851561150517227,-0.179
1747851561158203512,-0.167
1747851561165889797,-0.16
1747851561173576082,-0.15
1747851561181262367,-0.137
1747851561188948652,-0.125
1747851561196634937,-0.135
1747851561204321222,-0.167
1747851561212007507,-0.179
1747851561219693792,-0.169
1747851561227380077,-0.162
1747851561235066362,-0.16
1747851561242752647,-0.155
1747851561250438932,-0.16
1747851561258125217,-0.189
1747851561265811562,-0.246
1747851561273497429,-0.221
1747851561281183296,0.155
1747851561288869163,0.91
1747851561296555030,1.669
1747851561304240897,1.622
1747851561311926764,0.3
1747851561319612631,-0.8320000000000001
1747851561327298498,-0.529
1747851561334984365,-0.10300000000000001
1747851561342670232,-0.3
1747851561350356099,-0.327
1747851561358041966,-0.177
1747851561365727833,-0.209
1747851561373413700,-0.233
1747851561381099567,-0.164
1747851561388785434,-0.145
1747851561396471301,-0.147
1747851561404157168,-0.11800000000000001
1747851561411843035,-0.088
1747851561419528902,-0.073
1747851561427214769,-0.046
1747851561434900636,-0.014
1747851561442586503,0.009000000000000001
1747851561450272370,0.039
1747851561457958237,0.07100000000000001
1747851561465644104,0.098
1747851561473329971,0.12
1747851561481015838,0.135
1747851561488701705,0.135
1747851561496387572,0.123
1747851561504073439,0.10300000000000001
1747851561511759306,0.076
1747851561519445173,0.051000000000000004
1747851561527131040,0.024
1747851561534816907,-0.014
1747851561542502774,-0.061
1747851561550188641,-0.11
1747851561557874508,-0.155
1747851561565560375,-0.192
1747851561573246242,-0.224
1747851561580932109,-0.241
1747851561588617976,-0.248
1747851561596303843,-0.243
1747851561603989710,-0.233
1747851561611675577,-0.226
1747851561619361444,-0.216
1747851561627047311,-0.20600000000000002
1747851561634733178,-0.199
1747851561642419045,-0.194
1747851561650104912,-0.192
1747851561657790779,-0.187
1747851561665476646,-0.184
1747851561673162513,-0.184
1747851561680848380,-0.184
1747851561688534247,-0.184
1747851561696220114,-0.187
1747851561703905981,-0.184
1747851561711591848,-0.182
1747851561719277715,-0.184
1747851561726963582,-0.184
1747851561734649449,-0.179
1747851561742335316,-0.17400000000000002
1747851561750021183,-0.17200000000000001
1747851561757707050,-0.17200000000000001
1747851561765392917,-0.17200000000000001
1747851561773078784,-0.177
1747851561780764651,-0.179
1747851561788450518,-0.17200000000000001
1747851561796136385,-0.16
1747851561803822252,-0.14200000000000002
1747851561811508119,-0.132
1747851561819193986,-0.12
1747851561826879905,-0.11,102,581
1747851561834565981,-0.125
1747851561842252057,-0.157
1747851561849938133,-0.169
1747851561857624209,-0.16
1747851561865310285,-0.152
1747851561872996361,-0.147
1747851561880682437,-0.14200000000000002
1747851561888368513,-0.15
1747851561896054589,-0.17200000000000001
1747851561903740665,-0.219
1747851561911426741,-0.192
1747851561919112817,0.155
1747851561926798893,0.868
1747851561934484969,1.619
1747851561942171045,1.6320000000000001
1747851561949857121,0.359
1747851561957543197,-0.812
1747851561965229273,-0.548
1747851561972915349,-0.098
1747851561980601425,-0.278
1747851561988287501,-0.317
1747851561995973577,-0.169
1747851562003659653,-0.192
1747851562011345729,-0.216
1747851562019031805,-0.155
1747851562026717881,-0.135
1747851562034403957,-0.137
1747851562042090033,-0.105
1747851562049776109,-0.078
1747851562057462185,-0.064
1747851562065148261,-0.039
1747851562072834337,-0.012
1747851562080520413,0.009000000000000001
1747851562088206489,0.039
1747851562095892565,0.07100000000000001
1747851562103578641,0.098
1747851562111264717,0.12
1747851562118950793,0.132
1747851562126636869,0.132
1747851562134322945,0.123
1747851562142009021,0.1
1747851562149695097,0.076
1747851562157381173,0.051000000000000004
1747851562165067249,0.019
1747851562172753325,-0.017
1747851562180439401,-0.049
1747851562188125477,-0.093
1747851562195811553,-0.14
1747851562203497629,-0.182
1747851562211183705,-0.211
1747851562218869781,-0.228
1747851562226555857,-0.233
1747851562234241933,-0.23600000000000002
1747851562241928009,-0.231
1747851562249614085,-0.219
1747851562257300161,-0.20400000000000001
1747851562264986237,-0.196
1747851562272672313,-0.194
1747851562280358389,-0.187
1747851562288044465,-0.179
1747851562295730541,-0.177
1747851562303416617,-0.17200000000000001
1747851562311102693,-0.17200000000000001
1747851562318788769,-0.17400000000000002
1747851562326474845,-0.17200000000000001
1747851562334160921,-0.169
1747851562341846997,-0.17400000000000002
1747851562349533073,-0.17400000000000002
1747851562357219149,-0.167
1747851562364905225,-0.17200000000000001
1747851562372591301,-0.179
1747851562380277377,-0.17400000000000002
1747851562387963509,-0.164
1747851562395649864,-0.157
1747851562403336219,-0.16
1747851562411022574,-0.17200000000000001
1747851562418708929,-0.17400000000000002
1747851562426395284,-0.16
1747851562434081639,-0.14
1747851562441767994,-0.128
1747851562449454349,-0.12
1747851562457140704,-0.113
1747851562464827059,-0.105
1747851562472513414,-0.10300000000000001
1747851562480199769,-0.125
1747851562487886124,-0.155
1747851562495572479,-0.16
1747851562503258834,-0.15
1747851562510945189,-0.14
1747851562518631544,-0.13
1747851562526317899,-0.13
1747851562534004254,-0.14200000000000002
1747851562541690609,-0.182
1747851562549376964,-0.224
1747851562557063319,-0.093
1747851562564749674,0.435
1747851562572436029,1.225
1747851562580122384,1.7550000000000001
1747851562587808739,1.169
1747851562595495094,-0.307
1747851562603181449,-0.8170000000000001
1747851562610867804,-0.243
1747851562618554159,-0.128
1747851562626240514,-0.334
1747851562633926869,-0.226
1747851562641613224,-0.14200000000000002
1747851562649299579,-0.196
1747851562656985934,-0.167
1747851562664672289,-0.115
1747851562672358644,-0.123
1747851562680044999,-0.10300000000000001
1747851562687731354,-0.061
1747851562695417709,-0.051000000000000004
1747851562703104064,-0.046
1747851562710790419,-0.009000000000000001
1747851562718476774,0.032
1747851562726163129,0.056
1747851562733849484,0.08600000000000001
1747851562741535839,0.113
1747851562749222194,0.135
1747851562756908549,0.16
1747851562764594904,0.17400000000000002
1747851562772281259,0.167
1747851562779967614,0.15
1747851562787653969,0.13
1747851562795340324,0.10300000000000001
1747851562803026679,0.076
1747851562810713034,0.041
1747851562818399389,0.0
1747851562826085744,-0.049
1747851562833772099,-0.108
1747851562841458454,-0.164
1747851562849144809,-0.196
1747851562856831164,-0.219
1747851562864517519,-0.23600000000000002
1747851562872203874,-0.23800000000000002
1747851562879890229,-0.231
1747851562887576584,-0.214
1747851562895262939,-0.211
1747851562902949294,-0.216
1747851562910635649,-0.209
1747851562918322004,-0.196
1747851562926008359,-0.192
1747851562933694714,-0.184
1747851562941381069,-0.17400000000000002
1747851562949067457,-0.17200000000000001,102,596
1747851562956753464,-0.177,,620
1747851562964439471,-0.17400000000000002
1747851562972125478,-0.169
1747851562979811485,-0.184
1747851562987497492,-0.194
1747851562995183499,-0.184
1747851563002869506,-0.179
1747851563010555513,-0.182
1747851563018241520,-0.182
1747851563025927527,-0.184
1747851563033613534,-0.182
1747851563041299541,-0.17200000000000001
1747851563048985548,-0.169
1747851563056671555,-0.17400000000000002
1747851563064357562,-0.167
1747851563072043569,-0.152
1747851563079729576,-0.14
1747851563087415583,-0.13
1747851563095101590,-0.11800000000000001
1747851563102787597,-0.108
1747851563110473604,-0.13
1747851563118159611,-0.164
1747851563125845618,-0.167
1747851563133531625,-0.155
1747851563141217632,-0.157
1747851563148903639,-0.155
1747851563156589646,-0.14200000000000002
1747851563164275653,-0.15
1747851563171961660,-0.177
1747851563179647667,-0.231
1747851563187333674,-0.199
1747851563195019681,0.201
1747851563202705688,0.969
1747851563210391695,1.617
1747851563218077702,1.41
1747851563225763709,0.11
1747851563233449716,-0.8290000000000001
1747851563241135723,-0.455
1747851563248821730,-0.096
1747851563256507737,-0.28800000000000003
1747851563264193744,-0.275
1747851563271879751,-0.145
1747851563279565758,-0.184
1747851563287251765,-0.194
1747851563294937772,-0.132
1747851563302623779,-0.115
1747851563310309786,-0.108
1747851563317995793,-0.083
1747851563325681800,-0.068
1747851563333367807,-0.046
1747851563341053814,-0.014
1747851563348739821,0.019
1747851563356425828,0.051000000000000004
1747851563364111835,0.081
1747851563371797842,0.1
1747851563379483849,0.125
1747851563387169856,0.155
1747851563394855863,0.164
1747851563402541870,0.157
1747851563410227877,0.145
1747851563417913884,0.123
1747851563425599891,0.088
1747851563433285898,0.056
1747851563440971905,0.027
1747851563448657912,-0.014
1747851563456343919,-0.066
1747851563464029926,-0.113
1747851563471715933,-0.157
1747851563479401940,-0.196
1747851563487087947,-0.221
1747851563494773954,-0.23600000000000002
1747851563502459961,-0.241
1747851563510145970,-0.23800000000000002
1747851563517831837,-0.233
1747851563525517704,-0.221
1747851563533203571,-0.209
1747851563540889438,-0.199
1747851563548575305,-0.194
1747851563556261172,-0.192
1747851563563947039,-0.184
1747851563571632906,-0.17400000000000002
1747851563579318773,-0.177
1747851563587004640,-0.177
1747851563594690507,-0.17400000000000002
1747851563602376374,-0.169
1747851563610062241,-0.17200000000000001
1747851563617748108,-0.182
1747851563625433975,-0.182
1747851563633119842,-0.179
1747851563640805709,-0.182
1747851563648491576,-0.184
1747851563656177443,-0.182
1747851563663863310,-0.179
1747851563671549177,-0.177
1747851563679235044,-0.17200000000000001
1747851563686920911,-0.179
1747851563694606778,-0.184
1747851563702292645,-0.177
1747851563709978512,-0.167
1747851563717664379,-0.162
1747851563725350246,-0.15
1747851563733036113,-0.137
1747851563740721980,-0.125
1747851563748407847,-0.11800000000000001
1747851563756093714,-0.135
1747851563763779581,-0.169
1747851563771465448,-0.179
1747851563779151315,-0.169
1747851563786837182,-0.167
1747851563794523049,-0.164
1747851563802208916,-0.16
1747851563809894783,-0.167
1747851563817580650,-0.189
1747851563825266517,-0.243
1747851563832952384,-0.231
1747851563840638251,0.115
1747851563848324118,0.8290000000000001
1747851563856009985,1.543
1747851563863695852,1.5230000000000001
1747851563871381719,0.275
1747851563879067586,-0.836
1747851563886753453,-0.531
1747851563894439320,-0.08600000000000001
1747851563902125187,-0.28800000000000003
1747851563909811054,-0.324
1747851563917496921,-0.169
1747851563925182788,-0.196
1747851563932868655,-0.221
1747851563940554522,-0.157
1747851563948240389,-0.14
1747851563955926256,-0.14200000000000002
1747851563963612123,-0.11
1747851563971297990,-0.08600000000000001
1747851563978983857,-0.073
1747851563986669724,-0.049
1747851563994355591,-0.022
1747851564002041458,0.002
1747851564009727325,0.032
1747851564017413192,0.066
1747851564025099059,0.096
1747851564032784926,0.123
1747851564040470793,0.137
1747851564048156660,0.14
1747851564055842527,0.128
1747851564063528394,0.11
1747851564071214313,0.083,102,639
1747851564078900598,0.054
1747851564086586883,0.022
1747851564094273168,-0.019
1747851564101959453,-0.07100000000000001
1747851564109645738,-0.123
1747851564117332023,-0.169
1747851564125018308,-0.20600000000000002
1747851564132704593,-0.23600000000000002
1747851564140390878,-0.256
1747851564148077163,-0.26
1747851564155763448,-0.256
1747851564163449733,-0.246
1747851564171136018,-0.23800000000000002
1747851564178822303,-0.233
1747851564186508588,-0.224
1747851564194194873,-0.211
1747851564201881158,-0.20600000000000002
1747851564209567443,-0.20600000000000002
1747851564217253728,-0.20400000000000001
1747851564224940013,-0.199
1747851564232626298,-0.196
1747851564240312583,-0.199
1747851564247998868,-0.199
1747851564255685153,-0.196
1747851564263371438,-0.196
1747851564271057723,-0.194
1747851564278744008,-0.196
1747851564286430293,-0.196
1747851564294116578,-0.194
1747851564301802863,-0.192
1747851564309489148,-0.192
1747851564317175433,-0.192
1747851564324861718,-0.189
1747851564332548003,-0.182
1747851564340234288,-0.177
1747851564347920573,-0.17200000000000001
1747851564355606858,-0.17400000000000002
1747851564363293143,-0.179
1747851564370979428,-0.179
1747851564378665713,-0.169
1747851564386351998,-0.155
1747851564394038283,-0.145
1747851564401724568,-0.137
1747851564409410853,-0.125
1747851564417097138,-0.113
1747851564424783423,-0.128
1747851564432469708,-0.167
1747851564440155993,-0.177
1747851564447842278,-0.164
1747851564455528563,-0.162
1747851564463214848,-0.157
1747851564470901133,-0.147
1747851564478587418,-0.15
1747851564486273703,-0.167
1747851564493959988,-0.216
1747851564501646273,-0.246
1747851564509332558,-0.032
1747851564517018843,0.588
1747851564524705128,1.393
1747851564532391413,1.752
1747851564540077698,0.841
1747851564547763983,-0.6
1747851564555450268,-0.731
1747851564563136553,-0.132
1747851564570822838,-0.189
1747851564578509123,-0.352
1747851564586195408,-0.201
1747851564593881693,-0.164
1747851564601567978,-0.221
1747851564609254263,-0.17200000000000001
1747851564616940548,-0.128
1747851564624626833,-0.137
1747851564632313178,-0.11800000000000001,99,642
1747851564639999045,-0.083,,633
1747851564647684912,-0.07100000000000001
1747851564655370779,-0.051000000000000004
1747851564663056646,-0.022
1747851564670742513,0.004
1747851564678428380,0.032
1747851564686114247,0.064
1747851564693800114,0.096
1747851564701485981,0.125
1747851564709171848,0.147
1747851564716857715,0.155
1747851564724543582,0.15
1747851564732229449,0.132
1747851564739915316,0.11
1747851564747601183,0.083
1747851564755287050,0.051000000000000004
1747851564762972917,0.014
1747851564770658784,-0.032
1747851564778344651,-0.08600000000000001
1747851564786030518,-0.14
1747851564793716385,-0.182
1747851564801402252,-0.214
1747851564809088119,-0.23600000000000002
1747851564816773986,-0.246
1747851564824459853,-0.248
1747851564832145720,-0.241
1747851564839831587,-0.231
1747851564847517454,-0.221
1747851564855203321,-0.214
1747851564862889188,-0.209
1747851564870575055,-0.201
1747851564878260922,-0.196
1747851564885946789,-0.194
1747851564893632656,-0.194
1747851564901318523,-0.192
1747851564909004390,-0.192
1747851564916690257,-0.189
1747851564924376124,-0.189
1747851564932061991,-0.192
1747851564939747858,-0.189
1747851564947433725,-0.184
1747851564955119592,-0.184
1747851564962805459,-0.184
1747851564970491326,-0.187
1747851564978177193,-0.182
1747851564985863060,-0.179
1747851564993548927,-0.177
1747851565001234794,-0.17400000000000002
1747851565008920661,-0.17400000000000002
1747851565016606528,-0.17200000000000001
1747851565024292395,-0.167
1747851565031978262,-0.164
1747851565039664129,-0.164
1747851565047349996,-0.164
1747851565055035863,-0.17200000000000001
1747851565062721730,-0.167
1747851565070407597,-0.155
1747851565078093464,-0.14200000000000002
1747851565085779331,-0.13
1747851565093465198,-0.12
1747851565101151065,-0.108
1747851565108836932,-0.10300000000000001
1747851565116522799,-0.123
1747851565124208666,-0.152
1747851565131894533,-0.16
1747851565139580400,-0.15
1747851565147266267,-0.14200000000000002
1747851565154952134,-0.14
1747851565162638001,-0.137
1747851565170323868,-0.14
1747851565178009735,-0.162
1747851565185695602,-0.219
1747851565193381521,-0.23600000000000002
1747851565201067806,0.036000000000000004
1747851565208754091,0.706
1747851565216440376,1.504
1747851565224126661,1.737
1747851565231812946,0.657
1747851565239499231,-0.6990000000000001
1747851565247185516,-0.642
1747851565254871801,-0.096
1747851565262558086,-0.224
1747851565270244371,-0.337
1747851565277930656,-0.179
1747851565285616941,-0.17200000000000001
1747851565293303226,-0.221
1747851565300989511,-0.162
1747851565308675796,-0.125
1747851565316362081,-0.135
1747851565324048366,-0.11
1747851565331734651,-0.083
1747851565339420936,-0.07100000000000001
1747851565347107221,-0.046
1747851565354793506,-0.017
1747851565362479791,0.007
1747851565370166076,0.034
1747851565377852361,0.066
1747851565385538646,0.1
1747851565393224931,0.128
1747851565400911216,0.145
1747851565408597501,0.152
1747851565416283786,0.147
1747851565423970071,0.13
1747851565431656356,0.10300000000000001
1747851565439342641,0.076
1747851565447028926,0.046
1747851565454715211,0.009000000000000001
1747851565462401496,-0.034
1747851565470087781,-0.08600000000000001
1747851565477774066,-0.135
1747851565485460351,-0.17400000000000002
1747851565493146636,-0.20600000000000002
1747851565500832921,-0.233
1747851565508519206,-0.243
1747851565516205491,-0.243
1747851565523891776,-0.23800000000000002
1747851565531578061,-0.231
1747851565539264346,-0.224
1747851565546950631,-0.216
1747851565554636916,-0.209
1747851565562323201,-0.201
1747851565570009486,-0.194
1747851565577695771,-0.189
1747851565585382056,-0.189
1747851565593068341,-0.189
1747851565600754626,-0.184
1747851565608440911,-0.184
1747851565616127196,-0.187
1747851565623813481,-0.187
1747851565631499766,-0.184
1747851565639186051,-0.184
1747851565646872336,-0.184
1747851565654558621,-0.187
1747851565662244906,-0.187
1747851565669931191,-0.182
1747851565677617476,-0.179
1747851565685303761,-0.177
1747851565692990046,-0.177
1747851565700676331,-0.17400000000000002
1747851565708362616,-0.169
1747851565716048901,-0.167
1747851565723735186,-0.164
1747851565731421471,-0.162
1747851565739107756,-0.16
1747851565746794041,-0.155
1747851565754480382,-0.155,98,646
1747851565762166667,-0.155
1747851565769852952,-0.155
1747851565777539237,-0.14200000000000002
1747851565785225522,-0.12
1747851565792911807,-0.1
1747851565800598092,-0.093
1747851565808284377,-0.088
1747851565815970662,-0.091
1747851565823656947,-0.11800000000000001
1747851565831343232,-0.157
1747851565839029517,-0.162
1747851565846715802,-0.15
1747851565854402087,-0.14200000000000002
1747851565862088372,-0.137
1747851565869774657,-0.132
1747851565877460942,-0.135
1747851565885147227,-0.152
1747851565892833512,-0.201
1747851565900519797,-0.251
1747851565908206082,-0.10300000000000001
1747851565915892367,0.443
1747851565923578652,1.243
1747851565931264937,1.7890000000000001
1747851565938951222,1.196
1747851565946637507,-0.307
1747851565954323792,-0.8170000000000001
1747851565962010077,-0.241
1747851565969696362,-0.128
1747851565977382647,-0.334
1747851565985068932,-0.231
1747851565992755217,-0.152
1747851566000441502,-0.211
1747851566008127787,-0.184
1747851566015814072,-0.123
1747851566023500357,-0.123
1747851566031186642,-0.11
1747851566038872927,-0.081
1747851566046559212,-0.066
1747851566054245497,-0.051000000000000004
1747851566061931782,-0.022
1747851566069618067,0.007
1747851566077304352,0.041
1747851566084990637,0.07100000000000001
1747851566092676922,0.096
1747851566100363207,0.125
1747851566108049492,0.157
1747851566115735777,0.17200000000000001
1747851566123422062,0.167
1747851566131108347,0.147
1747851566138794632,0.125
1747851566146480917,0.10300000000000001
1747851566154167202,0.076
1747851566161853487,0.044
1747851566169539772,0.002
1747851566177226057,-0.046
1747851566184912342,-0.091
1747851566192598627,-0.135
1747851566200284912,-0.187
1747851566207971197,-0.226
1747851566215657482,-0.23600000000000002
1747851566223343767,-0.231
1747851566231030052,-0.226
1747851566238716337,-0.224
1747851566246402622,-0.216
1747851566254088907,-0.209
1747851566261775192,-0.201
1747851566269461477,-0.196
1747851566277147762,-0.192
1747851566284834047,-0.187
1747851566292520332,-0.179
1747851566300206617,-0.17200000000000001
1747851566307892902,-0.169
1747851566315579243,-0.169
1747851566323265110,-0.169
1747851566330950977,-0.17400000000000002
1747851566338636844,-0.17400000000000002
1747851566346322711,-0.179
1747851566354008578,-0.184
1747851566361694445,-0.182
1747851566369380312,-0.184
1747851566377066179,-0.184
1747851566384752046,-0.17400000000000002
1747851566392437913,-0.164
1747851566400123780,-0.167
1747851566407809647,-0.17200000000000001
1747851566415495514,-0.167
1747851566423181381,-0.164
1747851566430867248,-0.17200000000000001
1747851566438553115,-0.164
1747851566446238982,-0.155
1747851566453924849,-0.155
1747851566461610716,-0.155
1747851566469296583,-0.15
1747851566476982450,-0.15
1747851566484668317,-0.14200000000000002
1747851566492354184,-0.123
1747851566500040051,-0.105
1747851566507725918,-0.096
1747851566515411785,-0.083
1747851566523097652,-0.081
1747851566530783519,-0.10300000000000001
1747851566538469386,-0.14
1747851566546155253,-0.16
1747851566553841120,-0.15
1747851566561526987,-0.132
1747851566569212854,-0.125
1747851566576898721,-0.13
1747851566584584588,-0.137
1747851566592270455,-0.14200000000000002
1747851566599956322,-0.162
1747851566607642189,-0.219
1747851566615328056,-0.219
1747851566623013923,0.11800000000000001
1747851566630699790,0.866
1747851566638385657,1.605
1747851566646071524,1.602
1747851566653757391,0.401
1747851566661443258,-0.765
1747851566669129125,-0.5630000000000001
1747851566676814992,-0.113
1747851566684500859,-0.268
1747851566692186726,-0.295
1747851566699872593,-0.137
1747851566707558460,-0.169
1747851566715244327,-0.199
1747851566722930194,-0.128
1747851566730616061,-0.108
1747851566738301928,-0.123
1747851566745987795,-0.093
1747851566753673662,-0.059000000000000004
1747851566761359529,-0.039
1747851566769045396,-0.014
1747851566776731263,0.014
1747851566784417130,0.036000000000000004
1747851566792102997,0.064
1747851566799788864,0.10300000000000001
1747851566807474731,0.137
1747851566815160598,0.155
1747851566822846465,0.167
1747851566830532332,0.179
1747851566838218199,0.17400000000000002
1747851566845904066,0.15
1747851566853589933,0.12
1747851566861275800,0.091
1747851566868961667,0.059000000000000004
1747851566876647586,0.012,96,671
1747851566884333871,-0.039,,690
1747851566892020156,-0.088
1747851566899706441,-0.135
1747851566907392726,-0.17200000000000001
1747851566915079011,-0.209
1747851566922765296,-0.241
1747851566930451581,-0.251
1747851566938137866,-0.251
1747851566945824151,-0.251
1747851566953510436,-0.246
1747851566961196721,-0.231
1747851566968883006,-0.211
1747851566976569291,-0.20600000000000002
1747851566984255576,-0.201
1747851566991941861,-0.179
1747851566999628146,-0.169
1747851567007314431,-0.182
1747851567015000716,-0.179
1747851567022687001,-0.169
1747851567030373286,-0.17400000000000002
1747851567038059571,-0.177
1747851567045745856,-0.17200000000000001
1747851567053432141,-0.17200000000000001
1747851567061118426,-0.17400000000000002
1747851567068804711,-0.17200000000000001
1747851567076490996,-0.17400000000000002
1747851567084177281,-0.179
1747851567091863566,-0.177
1747851567099549851,-0.177
1747851567107236136,-0.177
1747851567114922421,-0.177
1747851567122608706,-0.17200000000000001
1747851567130294991,-0.167
1747851567137981276,-0.162
1747851567145667561,-0.164
1747851567153353846,-0.167
1747851567161040131,-0.164
1747851567168726416,-0.16
1747851567176412701,-0.15
1747851567184098986,-0.135
1747851567191785271,-0.123
1747851567199471556,-0.115
1747851567207157841,-0.10300000000000001
1747851567214844126,-0.11
1747851567222530411,-0.145
1747851567230216696,-0.17200000000000001
1747851567237902981,-0.157
1747851567245589266,-0.14
1747851567253275551,-0.145
1747851567260961836,-0.147
1747851567268648121,-0.135
1747851567276334406,-0.14200000000000002
1747851567284020691,-0.182
1747851567291706976,-0.241
1747851567299393261,-0.167
1747851567307079546,0.307
1747851567314765831,1.083
1747851567322452116,1.659
1747851567330138401,1.312
1747851567337824686,-0.041
1747851567345510971,-0.8290000000000001
1747851567353197256,-0.381
1747851567360883541,-0.11
1747851567368569826,-0.3
1747851567376256111,-0.248
1747851567383942396,-0.145
1747851567391628681,-0.189
1747851567399314966,-0.182
1747851567407001251,-0.125
1747851567414687536,-0.123
1747851567422373821,-0.115
1747851567430060106,-0.083
1747851567437746447,-0.064
1747851567445432314,-0.049
1747851567453118181,-0.024
1747851567460804048,0.0
1747851567468489915,0.027
1747851567476175782,0.059000000000000004
1747851567483861649,0.091
1747851567491547516,0.123
1747851567499233383,0.147
1747851567506919250,0.16
1747851567514605117,0.16
1747851567522290984,0.147
1747851567529976851,0.125
1747851567537662718,0.098
1747851567545348585,0.066
1747851567553034452,0.032
1747851567560720319,-0.009000000000000001
1747851567568406186,-0.061
1747851567576092053,-0.113
1747851567583777920,-0.155
1747851567591463787,-0.194
1747851567599149654,-0.224
1747851567606835521,-0.241
1747851567614521388,-0.248
1747851567622207255,-0.246
1747851567629893122,-0.233
1747851567637578989,-0.226
1747851567645264856,-0.221
1747851567652950723,-0.211
1747851567660636590,-0.199
1747851567668322457,-0.192
1747851567676008324,-0.189
1747851567683694191,-0.184
1747851567691380058,-0.177
1747851567699065925,-0.17200000000000001
1747851567706751792,-0.17200000000000001
1747851567714437659,-0.17200000000000001
1747851567722123526,-0.17200000000000001
1747851567729809393,-0.17200000000000001
1747851567737495260,-0.17200000000000001
1747851567745181127,-0.17400000000000002
1747851567752866994,-0.177
1747851567760552861,-0.17400000000000002
1747851567768238728,-0.17200000000000001
1747851567775924595,-0.17200000000000001
1747851567783610462,-0.17400000000000002
1747851567791296329,-0.17200000000000001
1747851567798982196,-0.167
1747851567806668063,-0.164
1747851567814353930,-0.162
1747851567822039797,-0.16
1747851567829725664,-0.157
1747851567837411531,-0.16
1747851567845097398,-0.162
1747851567852783265,-0.152
1747851567860469132,-0.14
1747851567868154999,-0.128
1747851567875840866,-0.113
1747851567883526733,-0.10300000000000001
1747851567891212600,-0.1
1747851567898898467,-0.108
1747851567906584334,-0.137
1747851567914270201,-0.157
1747851567921956068,-0.15
1747851567929641935,-0.14
1747851567937327802,-0.137
1747851567945013669,-0.132
1747851567952699536,-0.13
1747851567960385403,-0.14200000000000002
1747851567968071270,-0.177
1747851567975757137,-0.231
1747851567983443004,-0.177
1747851567991128871,0.246
1747851567998814794,1.014,95,710
1747851568006501079,1.701
1747851568014187364,1.518
1747851568021873649,0.15
1747851568029559934,-0.8240000000000001
1747851568037246219,-0.41300000000000003
1747851568044932504,-0.054
1747851568052618789,-0.28300000000000003
1747851568060305074,-0.28500000000000003
1747851568067991359,-0.145
1747851568075677644,-0.184
1747851568083363929,-0.196
1747851568091050214,-0.132
1747851568098736499,-0.12
1747851568106422784,-0.123
1747851568114109069,-0.091
1747851568121795354,-0.066
1747851568129481639,-0.051000000000000004
1747851568137167924,-0.027
1747851568144854209,0.002
1747851568152540494,0.029
1747851568160226779,0.061
1747851568167913064,0.093
1747851568175599349,0.125
1747851568183285634,0.155
1747851568190971919,0.17400000000000002
1747851568198658204,0.179
1747851568206344489,0.169
1747851568214030774,0.15
1747851568221717059,0.123
1747851568229403344,0.091
1747851568237089629,0.054
1747851568244775914,0.007
1747851568252462199,-0.049
1747851568260148484,-0.108
1747851568267834769,-0.16
1747851568275521054,-0.196
1747851568283207339,-0.228
1747851568290893624,-0.248
1747851568298579909,-0.253
1747851568306266194,-0.251
1747851568313952479,-0.243
1747851568321638764,-0.231
1747851568329325049,-0.221
1747851568337011334,-0.214
1747851568344697619,-0.20600000000000002
1747851568352383904,-0.201
1747851568360070189,-0.196
1747851568367756474,-0.189
1747851568375442759,-0.179
1747851568383129044,-0.17200000000000001
1747851568390815329,-0.177
1747851568398501614,-0.189
1747851568406187899,-0.192
1747851568413874184,-0.184
1747851568421560469,-0.177
1747851568429246754,-0.177
1747851568436933039,-0.179
1747851568444619324,-0.179
1747851568452305609,-0.179
1747851568459991894,-0.177
1747851568467678179,-0.17200000000000001
1747851568475364464,-0.17400000000000002
1747851568483050749,-0.192
1747851568490737034,-0.192
1747851568498423319,-0.17400000000000002
1747851568506109604,-0.182
1747851568513795889,-0.201
1747851568521482174,-0.192
1747851568529168459,-0.167
1747851568536854744,-0.177
1747851568544541029,-0.20400000000000001
1747851568552227314,-0.192
1747851568559913655,-0.162,92,711
1747851568567599731,-0.167,,682
1747851568575285807,-0.162
1747851568582971883,-0.145
1747851568590657959,-0.164
1747851568598344035,-0.187
1747851568606030111,-0.182
1747851568613716187,-0.192
1747851568621402263,-0.214
1747851568629088339,-0.20600000000000002
1747851568636774415,-0.192
1747851568644460491,-0.187
1747851568652146567,-0.184
1747851568659832643,-0.182
1747851568667518719,-0.20400000000000001
1747851568675204795,-0.23800000000000002
1747851568682890871,-0.248
1747851568690576947,-0.044
1747851568698263023,0.526
1747851568705949099,1.28
1747851568713635175,1.7570000000000001
1747851568721321251,1.12
1747851568729007327,-0.352
1747851568736693403,-0.79
1747851568744379479,-0.243
1747851568752065555,-0.189
1747851568759751631,-0.384
1747851568767437707,-0.27
1747851568775123783,-0.187
1747851568782809859,-0.233
1747851568790495935,-0.211
1747851568798182011,-0.167
1747851568805868087,-0.164
1747851568813554163,-0.157
1747851568821240239,-0.128
1747851568828926315,-0.105
1747851568836612391,-0.083
1747851568844298467,-0.061
1747851568851984543,-0.039
1747851568859670619,-0.004
1747851568867356695,0.039
1747851568875042771,0.07100000000000001
1747851568882728847,0.088
1747851568890414923,0.11
1747851568898100999,0.128
1747851568905787075,0.128
1747851568913473151,0.11
1747851568921159227,0.098
1747851568928845303,0.08600000000000001
1747851568936531379,0.059000000000000004
1747851568944217455,0.017
1747851568951903531,-0.022
1747851568959589607,-0.061
1747851568967275683,-0.113
1747851568974961759,-0.162
1747851568982647835,-0.194
1747851568990333911,-0.216
1747851568998019987,-0.23600000000000002
1747851569005706063,-0.243
1747851569013392139,-0.241
1747851569021078215,-0.233
1747851569028764291,-0.231
1747851569036450367,-0.224
1747851569044136443,-0.209
1747851569051822519,-0.201
1747851569059508595,-0.199
1747851569067194671,-0.196
1747851569074880747,-0.192
1747851569082566823,-0.189
1747851569090252899,-0.196
1747851569097938975,-0.201
1747851569105625051,-0.199
1747851569113311127,-0.194
1747851569120997259,-0.194
1747851569128683335,-0.196
1747851569136369411,-0.194
1747851569144055487,-0.194
1747851569151741563,-0.196
1747851569159427639,-0.196
1747851569167113715,-0.189
1747851569174799791,-0.182
1747851569182485867,-0.187
1747851569190171943,-0.189
1747851569197858019,-0.184
1747851569205544095,-0.177
1747851569213230171,-0.177
1747851569220916247,-0.182
1747851569228602323,-0.182
1747851569236288399,-0.17200000000000001
1747851569243974475,-0.147
1747851569251660551,-0.125
1747851569259346627,-0.11800000000000001
1747851569267032703,-0.11800000000000001
1747851569274718779,-0.115
1747851569282404855,-0.125
1747851569290090931,-0.155
1747851569297777007,-0.17400000000000002
1747851569305463083,-0.167
1747851569313149159,-0.152
1747851569320835235,-0.152
1747851569328521311,-0.152
1747851569336207387,-0.15
1747851569343893463,-0.152
1747851569351579539,-0.169
1747851569359265615,-0.231
1747851569366951691,-0.268
1747851569374637767,-0.049
1747851569382323843,0.558
1747851569390009919,1.346
1747851569397695995,1.747
1747851569405382071,0.9500000000000001
1747851569413068147,-0.448
1747851569420754223,-0.704
1747851569428440299,-0.226
1747851569436126375,-0.246
1747851569443812451,-0.352
1747851569451498527,-0.221
1747851569459184603,-0.194
1747851569466870679,-0.23600000000000002
1747851569474556755,-0.194
1747851569482242831,-0.157
1747851569489928907,-0.155
1747851569497614983,-0.13
1747851569505301059,-0.10300000000000001
1747851569512987135,-0.093
1747851569520673211,-0.078
1747851569528359287,-0.046
1747851569536045363,-0.017
1747851569543731439,0.004
1747851569551417515,0.032
1747851569559103591,0.066
1747851569566789667,0.093
1747851569574475743,0.115
1747851569582161819,0.132
1747851569589847895,0.137
1747851569597533971,0.128
1747851569605220047,0.105
1747851569612906123,0.081
1747851569620592199,0.056
1747851569628278275,0.017
1747851569635964351,-0.029
1747851569643650427,-0.081
1747851569651336503,-0.13
1747851569659022579,-0.179
1747851569666708655,-0.224
1747851569674394731,-0.253
1747851569682080859,-0.265,91,685
1747851569689767144,-0.26
1747851569697453429,-0.256
1747851569705139714,-0.253
1747851569712825999,-0.241
1747851569720512284,-0.226
1747851569728198569,-0.221
1747851569735884854,-0.211
1747851569743571139,-0.20400000000000001
1747851569751257424,-0.196
1747851569758943709,-0.184
1747851569766629994,-0.177
1747851569774316279,-0.182
1747851569782002564,-0.182
1747851569789688849,-0.169
1747851569797375134,-0.167
1747851569805061419,-0.17400000000000002
1747851569812747704,-0.17200000000000001
1747851569820433989,-0.169
1747851569828120274,-0.17200000000000001
1747851569835806559,-0.17200000000000001
1747851569843492844,-0.169
1747851569851179129,-0.164
1747851569858865414,-0.162
1747851569866551699,-0.16
1747851569874237984,-0.16
1747851569881924269,-0.155
1747851569889610554,-0.15
1747851569897296839,-0.16
1747851569904983124,-0.167
1747851569912669409,-0.15
1747851569920355694,-0.125
1747851569928041979,-0.108
1747851569935728264,-0.1
1747851569943414549,-0.093
1747851569951100834,-0.088
1747851569958787119,-0.108
1747851569966473404,-0.14
1747851569974159689,-0.155
1747851569981845974,-0.145
1747851569989532259,-0.135
1747851569997218544,-0.13
1747851570004904829,-0.125
1747851570012591114,-0.12
1747851570020277399,-0.125
1747851570027963684,-0.15
1747851570035649969,-0.219
1747851570043336254,-0.248
1747851570051022539,0.032
1747851570058708824,0.765
1747851570066395109,1.639
1747851570074081394,1.893
1747851570081767679,0.8270000000000001
1747851570089453964,-0.5680000000000001
1747851570097140249,-0.649
1747851570104826534,-0.162
1747851570112512819,-0.226
1747851570120199104,-0.305
1747851570127885389,-0.167
1747851570135571674,-0.16
1747851570143257959,-0.192
1747851570150944244,-0.137
1747851570158630529,-0.11
1747851570166316814,-0.115
1747851570174003099,-0.091
1747851570181689384,-0.061
1747851570189375669,-0.041
1747851570197061954,-0.019
1747851570204748239,0.002
1747851570212434524,0.029
1747851570220120809,0.064
1747851570227807094,0.10300000000000001
1747851570235493379,0.135
1747851570243179720,0.167
1747851570250865587,0.199
1747851570258551454,0.216
1747851570266237321,0.214
1747851570273923188,0.199
1747851570281609055,0.17400000000000002
1747851570289294922,0.145
1747851570296980789,0.113
1747851570304666656,0.07100000000000001
1747851570312352523,0.012
1747851570320038390,-0.049
1747851570327724257,-0.1
1747851570335410124,-0.152
1747851570343095991,-0.192
1747851570350781858,-0.211
1747851570358467725,-0.221
1747851570366153592,-0.233
1747851570373839459,-0.23800000000000002
1747851570381525326,-0.224
1747851570389211193,-0.20600000000000002
1747851570396897060,-0.196
1747851570404582927,-0.189
1747851570412268794,-0.182
1747851570419954661,-0.169
1747851570427640528,-0.16
1747851570435326395,-0.162
1747851570443012262,-0.162
1747851570450698129,-0.155
1747851570458383996,-0.147
1747851570466069863,-0.147
1747851570473755730,-0.147
1747851570481441597,-0.152
1747851570489127464,-0.155
1747851570496813331,-0.15
1747851570504499198,-0.15
1747851570512185065,-0.152
1747851570519870932,-0.155
1747851570527556799,-0.152
1747851570535242666,-0.15
1747851570542928533,-0.147
1747851570550614400,-0.145
1747851570558300267,-0.147
1747851570565986134,-0.152
1747851570573672001,-0.145
1747851570581357868,-0.128
1747851570589043735,-0.108
1747851570596729602,-0.096
1747851570604415469,-0.08600000000000001
1747851570612101336,-0.076
1747851570619787203,-0.081
1747851570627473070,-0.11800000000000001
1747851570635158937,-0.147
1747851570642844804,-0.14200000000000002
1747851570650530671,-0.128
1747851570658216538,-0.125
1747851570665902405,-0.128
1747851570673588272,-0.123
1747851570681274139,-0.11800000000000001
1747851570688960006,-0.13
1747851570696645873,-0.167
1747851570704331740,-0.23600000000000002
1747851570712017607,-0.184
1747851570719703474,0.26
1747851570727389341,1.061
1747851570735075208,1.7690000000000001
1747851570742761075,1.612
1747851570750446942,0.248
1747851570758132809,-0.797
1747851570765818676,-0.452
1747851570773504543,-0.076
1747851570781190410,-0.278
1747851570788876277,-0.28
1747851570796562144,-0.147
1747851570804248063,-0.192,90,704
1747851570811934348,-0.20400000000000001,,684
1747851570819620633,-0.132
1747851570827306918,-0.123
1747851570834993203,-0.123
1747851570842679488,-0.088
1747851570850365773,-0.066
1747851570858052058,-0.051000000000000004
1747851570865738343,-0.022
1747851570873424628,0.004
1747851570881110913,0.024
1747851570888797198,0.054
1747851570896483483,0.08600000000000001
1747851570904169768,0.115
1747851570911856053,0.15
1747851570919542338,0.179
1747851570927228623,0.187
1747851570934914908,0.17400000000000002
1747851570942601193,0.162
1747851570950287478,0.132
1747851570957973763,0.091
1747851570965660048,0.049
1747851570973346333,0.002
1747851570981032618,-0.056
1747851570988718903,-0.12
1747851570996405188,-0.17400000000000002
1747851571004091473,-0.221
1747851571011777758,-0.258
1747851571019464043,-0.273
1747851571027150328,-0.268
1747851571034836613,-0.265
1747851571042522898,-0.26
1747851571050209183,-0.241
1747851571057895468,-0.228
1747851571065581753,-0.231
1747851571073268038,-0.221
1747851571080954323,-0.201
1747851571088640608,-0.199
1747851571096326893,-0.199
1747851571104013178,-0.189
1747851571111699463,-0.187
1747851571119385748,-0.187
1747851571127072033,-0.182
1747851571134758318,-0.179
1747851571142444603,-0.182
1747851571150130888,-0.184
1747851571157817173,-0.182
1747851571165503458,-0.179
1747851571173189743,-0.182
1747851571180876028,-0.179
1747851571188562313,-0.17400000000000002
1747851571196248598,-0.177
1747851571203934883,-0.169
1747851571211621168,-0.155
1747851571219307453,-0.162
1747851571226993738,-0.17400000000000002
1747851571234680023,-0.17400000000000002
1747851571242366308,-0.17400000000000002
1747851571250052593,-0.167
1747851571257738878,-0.14200000000000002
1747851571265425163,-0.12
1747851571273111448,-0.108
1747851571280797733,-0.1
1747851571288484018,-0.1
1747851571296170303,-0.123
1747851571303856588,-0.16
1747851571311542873,-0.17200000000000001
1747851571319229158,-0.162
1747851571326915443,-0.152
1747851571334601728,-0.14200000000000002
1747851571342288013,-0.13
1747851571349974298,-0.14
1747851571357660583,-0.169
1747851571365346928,-0.199
1747851571373032795,-0.23600000000000002
1747851571380718662,-0.167
1747851571388404529,0.27
1747851571396090396,1.046
1747851571403776263,1.745
1747851571411462130,1.5310000000000001
1747851571419147997,0.105
1747851571426833864,-0.851
1747851571434519731,-0.42
1747851571442205598,-0.08600000000000001
1747851571449891465,-0.307
1747851571457577332,-0.295
1747851571465263199,-0.16
1747851571472949066,-0.201
1747851571480634933,-0.209
1747851571488320800,-0.15
1747851571496006667,-0.14200000000000002
1747851571503692534,-0.135
1747851571511378401,-0.096
1747851571519064268,-0.076
1747851571526750135,-0.064
1747851571534436002,-0.032
1747851571542121869,-0.002
1747851571549807736,0.024
1747851571557493603,0.059000000000000004
1747851571565179470,0.088
1747851571572865337,0.115
1747851571580551204,0.15
1747851571588237071,0.177
1747851571595922938,0.184
1747851571603608805,0.177
1747851571611294672,0.157
1747851571618980539,0.13
1747851571626666406,0.1
1747851571634352273,0.056
1747851571642038140,0.004
1747851571649724007,-0.051000000000000004
1747851571657409874,-0.11
1747851571665095741,-0.17200000000000001
1747851571672781608,-0.216
1747851571680467475,-0.23800000000000002
1747851571688153342,-0.256
1747851571695839209,-0.265
1747851571703525076,-0.263
1747851571711210943,-0.251
1747851571718896810,-0.241
1747851571726582677,-0.231
1747851571734268544,-0.221
1747851571741954411,-0.211
1747851571749640278,-0.199
1747851571757326145,-0.189
1747851571765012012,-0.192
1747851571772697879,-0.194
1747851571780383746,-0.189
1747851571788069613,-0.184
1747851571795755480,-0.187
1747851571803441347,-0.192
1747851571811127214,-0.187
1747851571818813081,-0.179
1747851571826498948,-0.182
1747851571834184815,-0.189
1747851571841870682,-0.189
1747851571849556549,-0.179
1747851571857242416,-0.177
1747851571864928283,-0.179
1747851571872614150,-0.182
1747851571880300017,-0.177
1747851571887985884,-0.169
1747851571895671751,-0.167
1747851571903357618,-0.167
1747851571911043485,-0.169
1747851571918729352,-0.164
1747851571926415271,-0.164,89,675
1747851571934101556,-0.162
1747851571941787841,-0.135
1747851571949474126,-0.105
1747851571957160411,-0.10300000000000001
1747851571964846696,-0.10300000000000001
1747851571972532981,-0.1
1747851571980219266,-0.125
1747851571987905551,-0.164
1747851571995591836,-0.169
1747851572003278121,-0.155
1747851572010964406,-0.145
1747851572018650691,-0.145
1747851572026336976,-0.145
1747851572034023261,-0.14
1747851572041709546,-0.14200000000000002
1747851572049395831,-0.17200000000000001
1747851572057082116,-0.23600000000000002
1747851572064768401,-0.221
1747851572072454686,0.128
1747851572080140971,0.861
1747851572087827256,1.651
1747851572095513541,1.737
1747851572103199826,0.499
1747851572110886111,-0.765
1747851572118572396,-0.583
1747851572126258681,-0.108
1747851572133944966,-0.273
1747851572141631251,-0.332
1747851572149317536,-0.182
1747851572157003821,-0.199
1747851572164690106,-0.228
1747851572172376391,-0.167
1747851572180062676,-0.14200000000000002
1747851572187748961,-0.145
1747851572195435246,-0.12
1747851572203121531,-0.096
1747851572210807816,-0.081
1747851572218494101,-0.054
1747851572226180386,-0.029
1747851572233866671,0.0
1747851572241552956,0.032
1747851572249239241,0.064
1747851572256925526,0.098
1747851572264611811,0.13
1747851572272298096,0.147
1747851572279984381,0.15
1747851572287670666,0.147
1747851572295356951,0.132
1747851572303043236,0.10300000000000001
1747851572310729521,0.076
1747851572318415806,0.046
1747851572326102091,-0.002
1747851572333788376,-0.059000000000000004
1747851572341474661,-0.115
1747851572349160946,-0.164
1747851572356847231,-0.20600000000000002
1747851572364533516,-0.243
1747851572372219801,-0.27
1747851572379906086,-0.278
1747851572387592371,-0.275
1747851572395278656,-0.273
1747851572402964941,-0.263
1747851572410651226,-0.251
1747851572418337511,-0.241
1747851572426023796,-0.23600000000000002
1747851572433710081,-0.228
1747851572441396366,-0.221
1747851572449082651,-0.216
1747851572456768936,-0.216
1747851572464455221,-0.216
1747851572472141506,-0.214
1747851572479827791,-0.216
1747851572487514132,-0.214
1747851572495199999,-0.209
1747851572502885866,-0.209
1747851572510571733,-0.211
1747851572518257600,-0.209
1747851572525943467,-0.20600000000000002
1747851572533629334,-0.209
1747851572541315201,-0.211
1747851572549001068,-0.20600000000000002
1747851572556686935,-0.201
1747851572564372802,-0.201
1747851572572058669,-0.199
1747851572579744536,-0.194
1747851572587430403,-0.189
1747851572595116270,-0.187
1747851572602802137,-0.187
1747851572610488004,-0.192
1747851572618173871,-0.187
1747851572625859738,-0.169
1747851572633545605,-0.147
1747851572641231472,-0.135
1747851572648917339,-0.125
1747851572656603206,-0.115
1747851572664289073,-0.123
1747851572671974940,-0.162
1747851572679660807,-0.189
1747851572687346674,-0.182
1747851572695032541,-0.169
1747851572702718408,-0.167
1747851572710404275,-0.167
1747851572718090142,-0.162
1747851572725776009,-0.157
1747851572733461876,-0.164
1747851572741147743,-0.199
1747851572748833610,-0.265
1747851572756519477,-0.233
1747851572764205344,0.16
1747851572771891211,0.918
1747851572779577078,1.676
1747851572787262945,1.6460000000000001
1747851572794948812,0.322
1747851572802634679,-0.8220000000000001
1747851572810320546,-0.531
1747851572818006413,-0.115
1747851572825692280,-0.305
1747851572833378147,-0.329
1747851572841064014,-0.187
1747851572848749881,-0.216
1747851572856435748,-0.233
1747851572864121615,-0.169
1747851572871807482,-0.152
1747851572879493349,-0.155
1747851572887179216,-0.123
1747851572894865083,-0.098
1747851572902550950,-0.083
1747851572910236817,-0.056
1747851572917922684,-0.029
1747851572925608551,-0.007
1747851572933294418,0.024
1747851572940980285,0.059000000000000004
1747851572948666152,0.088
1747851572956352019,0.11800000000000001
1747851572964037886,0.14
1747851572971723753,0.145
1747851572979409620,0.135
1747851572987095487,0.11800000000000001
1747851572994781354,0.096
1747851573002467221,0.066
1747851573010153088,0.029
1747851573017838955,-0.012
1747851573025524822,-0.061
1747851573033210689,-0.115
1747851573040896556,-0.167
1747851573048582475,-0.209,89,666
1747851573056268342,-0.241,,668
1747851573063954209,-0.26
1747851573071640076,-0.27
1747851573079325943,-0.273
1747851573087011810,-0.268
1747851573094697677,-0.258
1747851573102383544,-0.248
1747851573110069411,-0.241
1747851573117755278,-0.231
1747851573125441145,-0.224
1747851573133127012,-0.221
1747851573140812879,-0.219
1747851573148498746,-0.211
1747851573156184613,-0.20400000000000001
1747851573163870480,-0.20400000000000001
1747851573171556347,-0.209
1747851573179242214,-0.20600000000000002
1747851573186928081,-0.201
1747851573194613948,-0.201
1747851573202299815,-0.20400000000000001
1747851573209985682,-0.201
1747851573217671549,-0.201
1747851573225357416,-0.20600000000000002
1747851573233043283,-0.20600000000000002
1747851573240729150,-0.199
1747851573248415017,-0.194
1747851573256100884,-0.194
1747851573263786751,-0.189
1747851573271472618,-0.184
1747851573279158485,-0.177
1747851573286844352,-0.17400000000000002
1747851573294530219,-0.182
1747851573302216086,-0.184
1747851573309901953,-0.177
1747851573317587820,-0.164
1747851573325273687,-0.147
1747851573332959554,-0.128
1747851573340645421,-0.12
1747851573348331288,-0.115
1747851573356017155,-0.108
1747851573363703022,-0.128
1747851573371388889,-0.17400000000000002
1747851573379074756,-0.192
1747851573386760623,-0.169
1747851573394446490,-0.16
1747851573402132357,-0.16
1747851573409818224,-0.152
1747851573417504091,-0.152
1747851573425189958,-0.16
1747851573432875825,-0.17200000000000001
1747851573440561692,-0.224
1747851573448247559,-0.27
1747851573455933426,-0.07100000000000001
1747851573463619293,0.553
1747851573471305160,1.3780000000000001
1747851573478991027,1.809
1747851573486676894,1.004
1747851573494362761,-0.489
1747851573502048628,-0.78
1747851573509734495,-0.192
1747851573517420362,-0.189
1747851573525106229,-0.356
1747851573532792096,-0.214
1747851573540477963,-0.169
1747851573548163830,-0.233
1747851573555849697,-0.187
1747851573563535564,-0.14
1747851573571221431,-0.147
1747851573578907298,-0.123
1747851573586593165,-0.08600000000000001
1747851573594279032,-0.076
1747851573601964899,-0.054
1747851573609650818,-0.012,89,686
1747851573617337103,0.014
1747851573625023388,0.032
1747851573632709673,0.066
1747851573640395958,0.10300000000000001
1747851573648082243,0.135
1747851573655768528,0.16
1747851573663454813,0.167
1747851573671141098,0.167
1747851573678827383,0.16
1747851573686513668,0.135
1747851573694199953,0.105
1747851573701886238,0.076
1747851573709572523,0.029
1747851573717258808,-0.027
1747851573724945093,-0.076
1747851573732631378,-0.135
1747851573740317663,-0.196
1747851573748003948,-0.231
1747851573755690233,-0.248
1747851573763376518,-0.265
1747851573771062803,-0.27
1747851573778749088,-0.258
1747851573786435373,-0.251
1747851573794121658,-0.258
1747851573801807943,-0.253
1747851573809494228,-0.224
1747851573817180513,-0.211
1747851573824866798,-0.214
1747851573832553083,-0.211
1747851573840239368,-0.201
1747851573847925653,-0.192
1747851573855611938,-0.182
1747851573863298223,-0.187
1747851573870984508,-0.199
1747851573878670793,-0.194
1747851573886357078,-0.179
1747851573894043363,-0.189
1747851573901729648,-0.201
1747851573909415933,-0.189
1747851573917102218,-0.182
1747851573924788503,-0.189
1747851573932474788,-0.192
1747851573940161073,-0.187
1747851573947847358,-0.182
1747851573955533643,-0.17400000000000002
1747851573963219928,-0.179
1747851573970906213,-0.192
1747851573978592498,-0.17400000000000002
1747851573986278783,-0.152
1747851573993965068,-0.147
1747851574001651353,-0.14200000000000002
1747851574009337638,-0.125
1747851574017023923,-0.11
1747851574024710208,-0.123
1747851574032396493,-0.16
1747851574040082778,-0.17400000000000002
1747851574047769063,-0.16
1747851574055455348,-0.155
1747851574063141633,-0.155
1747851574070827918,-0.15
1747851574078514203,-0.145
1747851574086200488,-0.147
1747851574093886773,-0.164
1747851574101573058,-0.216
1747851574109259343,-0.26
1747851574116945628,-0.024
1747851574124631913,0.667
1747851574132318198,1.464
1747851574140004483,1.703
1747851574147690768,0.76
1747851574155377053,-0.598
1747851574163063338,-0.704
1747851574170749679,-0.157
1747851574178435546,-0.214
1747851574186121413,-0.334
1747851574193807280,-0.189
1747851574201493147,-0.167
1747851574209179014,-0.209
1747851574216864881,-0.157
1747851574224550748,-0.123
1747851574232236615,-0.128
1747851574239922482,-0.10300000000000001
1747851574247608349,-0.068
1747851574255294216,-0.054
1747851574262980083,-0.032
1747851574270665950,0.0
1747851574278351817,0.029
1747851574286037684,0.059000000000000004
1747851574293723551,0.093
1747851574301409418,0.125
1747851574309095285,0.155
1747851574316781152,0.177
1747851574324467019,0.187
1747851574332152886,0.179
1747851574339838753,0.16
1747851574347524620,0.132
1747851574355210487,0.096
1747851574362896354,0.059000000000000004
1747851574370582221,0.017
1747851574378268088,-0.039
1747851574385953955,-0.1
1747851574393639822,-0.157
1747851574401325689,-0.201
1747851574409011556,-0.228
1747851574416697423,-0.248
1747851574424383290,-0.258
1747851574432069157,-0.26
1747851574439755024,-0.253
1747851574447440891,-0.243
1747851574455126758,-0.23600000000000002
1747851574462812625,-0.226
1747851574470498492,-0.216
1747851574478184359,-0.20600000000000002
1747851574485870226,-0.196
1747851574493556093,-0.192
1747851574501241960,-0.187
1747851574508927827,-0.182
1747851574516613694,-0.177
1747851574524299561,-0.17400000000000002
1747851574531985428,-0.17400000000000002
1747851574539671295,-0.177
1747851574547357162,-0.177
1747851574555043029,-0.177
1747851574562728896,-0.177
1747851574570414763,-0.17400000000000002
1747851574578100630,-0.177
1747851574585786497,-0.177
1747851574593472364,-0.177
1747851574601158231,-0.177
1747851574608844098,-0.177
1747851574616529965,-0.17200000000000001
1747851574624215832,-0.169
1747851574631901699,-0.17400000000000002
1747851574639587566,-0.177
1747851574647273433,-0.169
1747851574654959300,-0.152
1747851574662645167,-0.14
1747851574670331034,-0.132
1747851574678016901,-0.12
1747851574685702768,-0.108
1747851574693388635,-0.115
1747851574701074502,-0.152
1747851574708760369,-0.169
1747851574716446236,-0.157
1747851574724132103,-0.15
1747851574731818026,-0.15,89,691
1747851574739503893,-0.14200000000000002,,695
1747851574747189760,-0.137
1747851574754875627,-0.145
1747851574762561494,-0.164
1747851574770247361,-0.214
1747851574777933228,-0.219
1747851574785619095,0.073
1747851574793304962,0.748
1747851574800990829,1.5110000000000001
1747851574808676696,1.708
1747851574816362563,0.649
1747851574824048430,-0.684
1747851574831734297,-0.637
1747851574839420164,-0.088
1747851574847106031,-0.214
1747851574854791898,-0.334
1747851574862477765,-0.179
1747851574870163632,-0.167
1747851574877849499,-0.216
1747851574885535366,-0.16
1747851574893221233,-0.125
1747851574900907100,-0.132
1747851574908592967,-0.108
1747851574916278834,-0.076
1747851574923964701,-0.064
1747851574931650568,-0.044
1747851574939336435,-0.014
1747851574947022302,0.014
1747851574954708169,0.041
1747851574962394036,0.073
1747851574970079903,0.105
1747851574977765770,0.13
1747851574985451637,0.152
1747851574993137504,0.167
1747851575000823371,0.162
1747851575008509238,0.145
1747851575016195105,0.12
1747851575023880972,0.093
1747851575031566839,0.056
1747851575039252706,0.012
1747851575046938573,-0.039
1747851575054624440,-0.098
1747851575062310307,-0.155
1747851575069996174,-0.201
1747851575077682041,-0.233
1747851575085367908,-0.253
1747851575093053775,-0.26
1747851575100739642,-0.26
1747851575108425509,-0.256
1747851575116111376,-0.246
1747851575123797243,-0.233
1747851575131483110,-0.226
1747851575139168977,-0.219
1747851575146854844,-0.211
1747851575154540711,-0.20400000000000001
1747851575162226578,-0.201
1747851575169912445,-0.196
1747851575177598312,-0.194
1747851575185284179,-0.192
1747851575192970046,-0.192
1747851575200655913,-0.189
1747851575208341780,-0.192
1747851575216027647,-0.192
1747851575223713514,-0.189
1747851575231399381,-0.189
1747851575239085248,-0.187
1747851575246771115,-0.187
1747851575254456982,-0.187
1747851575262142849,-0.184
1747851575269828716,-0.182
1747851575277514583,-0.177
1747851575285200450,-0.17200000000000001
1747851575292886369,-0.167
1747851575300572654,-0.169
1747851575308258939,-0.17400000000000002
1747851575315945224,-0.177
1747851575323631509,-0.167
1747851575331317794,-0.155
1747851575339004079,-0.14200000000000002
1747851575346690364,-0.135
1747851575354376649,-0.12
1747851575362062934,-0.105
1747851575369749219,-0.11800000000000001
1747851575377435504,-0.152
1747851575385121789,-0.169
1747851575392808074,-0.162
1747851575400494359,-0.152
1747851575408180644,-0.147
1747851575415866929,-0.14200000000000002
1747851575423553214,-0.137
1747851575431239499,-0.145
1747851575438925784,-0.167
1747851575446612069,-0.221
1747851575454298354,-0.224
1747851575461984639,0.076
1747851575469670924,0.772
1747851575477357209,1.56
1747851575485043494,1.735
1747851575492729779,0.608
1747851575500416064,-0.708
1747851575508102349,-0.61
1747851575515788634,-0.08600000000000001
1747851575523474919,-0.231
1747851575531161204,-0.334
1747851575538847489,-0.179
1747851575546533774,-0.177
1747851575554220059,-0.221
1747851575561906344,-0.164
1747851575569592629,-0.132
1747851575577278914,-0.137
1747851575584965199,-0.11
1747851575592651484,-0.081
1747851575600337769,-0.066
1747851575608024054,-0.044
1747851575615710339,-0.017
1747851575623396624,0.007
1747851575631082909,0.034
1747851575638769194,0.066
1747851575646455479,0.098
1747851575654141764,0.13
1747851575661828049,0.152
1747851575669514334,0.16
1747851575677200619,0.155
1747851575684886904,0.137
1747851575692573189,0.115
1747851575700259474,0.08600000000000001
1747851575707945759,0.054
1747851575715632044,0.009000000000000001
1747851575723318329,-0.044
1747851575731004614,-0.1
1747851575738690899,-0.155
1747851575746377184,-0.196
1747851575754063469,-0.226
1747851575761749754,-0.248
1747851575769436039,-0.258
1747851575777122324,-0.258
1747851575784808609,-0.251
1747851575792494894,-0.241
1747851575800181179,-0.231
1747851575807867464,-0.224
1747851575815553749,-0.214
1747851575823240034,-0.20600000000000002
1747851575830926319,-0.201
1747851575838612604,-0.196
1747851575846298889,-0.194
1747851575853985230,-0.192,89,660
1747851575861671097,-0.189
1747851575869356964,-0.189
1747851575877042831,-0.192
1747851575884728698,-0.189
1747851575892414565,-0.189
1747851575900100432,-0.192
1747851575907786299,-0.189
1747851575915472166,-0.187
1747851575923158033,-0.187
1747851575930843900,-0.184
1747851575938529767,-0.179
1747851575946215634,-0.182
1747851575953901501,-0.179
1747851575961587368,-0.17400000000000002
1747851575969273235,-0.17200000000000001
1747851575976959102,-0.177
1747851575984644969,-0.177
1747851575992330836,-0.169
1747851576000016703,-0.155
1747851576007702570,-0.14200000000000002
1747851576015388437,-0.13
1747851576023074304,-0.11800000000000001
1747851576030760171,-0.108
1747851576038446038,-0.12
1747851576046131905,-0.152
1747851576053817772,-0.169
1747851576061503639,-0.162
1747851576069189506,-0.152
1747851576076875373,-0.15
1747851576084561240,-0.145
1747851576092247107,-0.14
1747851576099932974,-0.145
1747851576107618841,-0.164
1747851576115304708,-0.211
1747851576122990575,-0.228
1747851576130676442,0.022
1747851576138362309,0.676
1747851576146048176,1.474
1747851576153734043,1.762
1747851576161419910,0.775
1747851576169105777,-0.627
1747851576176791644,-0.6910000000000001
1747851576184477511,-0.128
1747851576192163378,-0.209
1747851576199849245,-0.34400000000000003
1747851576207535112,-0.196
1747851576215220979,-0.177
1747851576222906846,-0.226
1747851576230592713,-0.17200000000000001
1747851576238278580,-0.132
1747851576245964447,-0.14200000000000002
1747851576253650314,-0.12
1747851576261336181,-0.088
1747851576269022048,-0.073
1747851576276707915,-0.051000000000000004
1747851576284393782,-0.022
1747851576292079649,0.002
1747851576299765516,0.029
1747851576307451383,0.061
1747851576315137250,0.093
1747851576322823117,0.12
1747851576330508984,0.14200000000000002
1747851576338194851,0.152
1747851576345880718,0.147
1747851576353566585,0.132
1747851576361252452,0.108
1747851576368938319,0.081
1747851576376624186,0.046
1747851576384310053,0.004
1747851576391995920,-0.046
1747851576399681787,-0.1
1747851576407367654,-0.152
1747851576415053573,-0.194
1747851576422739440,-0.228
1747851576430425307,-0.251
1747851576438111174,-0.258
1747851576445797041,-0.26
1747851576453482908,-0.258
1747851576461168775,-0.248
1747851576468854642,-0.23600000000000002
1747851576476540509,-0.228
1747851576484226376,-0.219
1747851576491912243,-0.211
1747851576499598110,-0.20600000000000002
1747851576507283977,-0.20400000000000001
1747851576514969844,-0.199
1747851576522655711,-0.196
1747851576530341578,-0.194
1747851576538027445,-0.192
1747851576545713312,-0.192
1747851576553399179,-0.194
1747851576561085046,-0.192
1747851576568770913,-0.189
1747851576576456780,-0.189
1747851576584142647,-0.192
1747851576591828514,-0.189
1747851576599514381,-0.184
1747851576607200248,-0.184
1747851576614886115,-0.184
1747851576622571982,-0.179
1747851576630257849,-0.177
1747851576637943716,-0.177
1747851576645629583,-0.182
1747851576653315450,-0.182
1747851576661001317,-0.17200000000000001
1747851576668687184,-0.157
1747851576676373051,-0.14200000000000002
1747851576684058918,-0.135
1747851576691744785,-0.125
1747851576699430652,-0.113
1747851576707116519,-0.12
1747851576714802386,-0.155
1747851576722488253,-0.169
1747851576730174120,-0.16
1747851576737859987,-0.152
1747851576745545854,-0.152
1747851576753231721,-0.145
1747851576760917588,-0.14
1747851576768603455,-0.145
1747851576776289322,-0.167
1747851576783975189,-0.214
1747851576791661056,-0.214
1747851576799346923,0.076
1747851576807032790,0.758
1747851576814718657,1.541
1747851576822404524,1.725
1747851576830090391,0.627
1747851576837776258,-0.6960000000000001
1747851576845462125,-0.632
1747851576853147992,-0.113
1747851576860833859,-0.23800000000000002
1747851576868519726,-0.337
1747851576876205593,-0.187
1747851576883891460,-0.184
1747851576891577327,-0.224
1747851576899263194,-0.167
1747851576906949061,-0.137
1747851576914634928,-0.14200000000000002
1747851576922320795,-0.115
1747851576930006662,-0.088
1747851576937692529,-0.07100000000000001
1747851576945378396,-0.049
1747851576953064263,-0.022
1747851576960750130,0.002
1747851576968435997,0.032
1747851576976121916,0.059000000000000004,89,668
1747851576983807783,0.088,,676
1747851576991493650,0.11800000000000001
1747851576999179517,0.137
1747851577006865384,0.145
1747851577014551251,0.14
1747851577022237118,0.12
1747851577029922985,0.096
1747851577037608852,0.07100000000000001
1747851577045294719,0.039
1747851577052980586,-0.004
1747851577060666453,-0.054
1747851577068352320,-0.108
1747851577076038187,-0.155
1747851577083724054,-0.194
1747851577091409921,-0.226
1747851577099095788,-0.248
1747851577106781655,-0.258
1747851577114467522,-0.26
1747851577122153389,-0.258
1747851577129839256,-0.251
1747851577137525123,-0.23600000000000002
1747851577145210990,-0.221
1747851577152896857,-0.214
1747851577160582724,-0.211
1747851577168268591,-0.20600000000000002
1747851577175954458,-0.196
1747851577183640325,-0.192
1747851577191326192,-0.192
1747851577199012059,-0.192
1747851577206697926,-0.189
1747851577214383793,-0.189
1747851577222069660,-0.192
1747851577229755527,-0.192
1747851577237441394,-0.189
1747851577245127261,-0.189
1747851577252813128,-0.187
1747851577260498995,-0.187
1747851577268184862,-0.189
1747851577275870729,-0.184
1747851577283556596,-0.177
1747851577291242463,-0.177
1747851577298928330,-0.179
1747851577306614197,-0.179
1747851577314300064,-0.182
1747851577321985931,-0.179
1747851577329671798,-0.169
1747851577337357665,-0.152
1747851577345043532,-0.132
1747851577352729399,-0.12
1747851577360415266,-0.115
1747851577368101133,-0.128
1747851577375787000,-0.155
1747851577383472867,-0.17200000000000001
1747851577391158734,-0.167
1747851577398844601,-0.157
1747851577406530468,-0.152
1747851577414216335,-0.15
1747851577421902202,-0.147
1747851577429588069,-0.152
1747851577437273936,-0.167
1747851577444959803,-0.209
1747851577452645670,-0.224
1747851577460331537,0.024
1747851577468017404,0.6890000000000001
1747851577475703271,1.481
1747851577483389138,1.747
1747851577491075005,0.75
1747851577498760872,-0.637
1747851577506446739,-0.686
1747851577514132606,-0.128
1747851577521818473,-0.216
1747851577529504340,-0.34400000000000003
1747851577537190259,-0.187,89,670
1747851577544876544,-0.162
1747851577552562829,-0.216
1747851577560249114,-0.169
1747851577567935399,-0.132
1747851577575621684,-0.135
1747851577583307969,-0.108
1747851577590994254,-0.073
1747851577598680539,-0.061
1747851577606366824,-0.044
1747851577614053109,-0.014
1747851577621739394,0.009000000000000001
1747851577629425679,0.034
1747851577637111964,0.073
1747851577644798249,0.113
1747851577652484534,0.132
1747851577660170819,0.145
1747851577667857104,0.16
1747851577675543389,0.169
1747851577683229674,0.15
1747851577690915959,0.113
1747851577698602244,0.081
1747851577706288529,0.056
1747851577713974814,0.017
1747851577721661099,-0.039
1747851577729347384,-0.093
1747851577737033669,-0.14200000000000002
1747851577744719954,-0.192
1747851577752406239,-0.226
1747851577760092524,-0.241
1747851577767778809,-0.256
1747851577775465094,-0.263
1747851577783151379,-0.246
1747851577790837664,-0.23600000000000002
1747851577798523949,-0.23800000000000002
1747851577806210234,-0.226
1747851577813896519,-0.209
1747851577821582804,-0.201
1747851577829269089,-0.199
1747851577836955374,-0.189
1747851577844641659,-0.182
1747851577852327944,-0.182
1747851577860014229,-0.184
1747851577867700514,-0.182
1747851577875386799,-0.179
1747851577883073084,-0.179
1747851577890759369,-0.184
1747851577898445654,-0.182
1747851577906131939,-0.184
1747851577913818224,-0.189
1747851577921504509,-0.184
1747851577929190794,-0.177
1747851577936877079,-0.177
1747851577944563364,-0.182
1747851577952249649,-0.184
1747851577959935934,-0.179
1747851577967622219,-0.17400000000000002
1747851577975308504,-0.169
1747851577982994789,-0.155
1747851577990681074,-0.135
1747851577998367359,-0.123
1747851578006053644,-0.12
1747851578013739929,-0.137
1747851578021426214,-0.17200000000000001
1747851578029112499,-0.184
1747851578036798784,-0.169
1747851578044485069,-0.16
1747851578052171354,-0.16
1747851578059857639,-0.15
1747851578067543924,-0.14200000000000002
1747851578075230209,-0.162
1747851578082916494,-0.192
1747851578090602779,-0.23600000000000002
1747851578098289124,-0.216
1747851578105974991,0.162
1747851578113660858,0.9400000000000001
1747851578121346725,1.637
1747851578129032592,1.5090000000000001
1747851578136718459,0.226
1747851578144404326,-0.8140000000000001
1747851578152090193,-0.494
1747851578159776060,-0.10300000000000001
1747851578167461927,-0.28500000000000003
1747851578175147794,-0.29
1747851578182833661,-0.155
1747851578190519528,-0.187
1747851578198205395,-0.20400000000000001
1747851578205891262,-0.14200000000000002
1747851578213577129,-0.125
1747851578221262996,-0.12
1747851578228948863,-0.088
1747851578236634730,-0.068
1747851578244320597,-0.051000000000000004
1747851578252006464,-0.022
1747851578259692331,0.009000000000000001
1747851578267378198,0.032
1747851578275064065,0.061
1747851578282749932,0.1
1747851578290435799,0.13
1747851578298121666,0.15
1747851578305807533,0.17200000000000001
1747851578313493400,0.17400000000000002
1747851578321179267,0.152
1747851578328865134,0.13
1747851578336551001,0.105
1747851578344236868,0.07100000000000001
1747851578351922735,0.034
1747851578359608602,-0.014
1747851578367294469,-0.073
1747851578374980336,-0.125
1747851578382666203,-0.169
1747851578390352070,-0.20400000000000001
1747851578398037937,-0.228
1747851578405723804,-0.246
1747851578413409671,-0.258
1747851578421095538,-0.256
1747851578428781405,-0.241
1747851578436467272,-0.231
1747851578444153139,-0.228
1747851578451839006,-0.219
1747851578459524873,-0.20600000000000002
1747851578467210740,-0.199
1747851578474896607,-0.194
1747851578482582474,-0.184
1747851578490268341,-0.179
1747851578497954208,-0.177
1747851578505640075,-0.17400000000000002
1747851578513325942,-0.17400000000000002
1747851578521011809,-0.179
1747851578528697676,-0.179
1747851578536383543,-0.179
1747851578544069410,-0.179
1747851578551755277,-0.184
1747851578559441144,-0.187
1747851578567127011,-0.184
1747851578574812878,-0.184
1747851578582498745,-0.182
1747851578590184612,-0.179
1747851578597870479,-0.189
1747851578605556346,-0.192
1747851578613242213,-0.179
1747851578620928080,-0.164
1747851578628613947,-0.155
1747851578636299814,-0.147
1747851578643985681,-0.132
1747851578651671548,-0.123
1747851578659357467,-0.14,89,668
1747851578667043752,-0.177,,661
1747851578674730037,-0.189
1747851578682416322,-0.17400000000000002
1747851578690102607,-0.164
1747851578697788892,-0.164
1747851578705475177,-0.162
1747851578713161462,-0.16
1747851578720847747,-0.164
1747851578728534032,-0.187
1747851578736220317,-0.233
1747851578743906602,-0.196
1747851578751592887,0.187
1747851578759279172,0.928
1747851578766965457,1.624
1747851578774651742,1.543
1747851578782338027,0.253
1747851578790024312,-0.8290000000000001
1747851578797710597,-0.512
1747851578805396882,-0.093
1747851578813083167,-0.292
1747851578820769452,-0.317
1747851578828455737,-0.17400000000000002
1747851578836142022,-0.20400000000000001
1747851578843828307,-0.226
1747851578851514592,-0.16
1747851578859200877,-0.14200000000000002
1747851578866887162,-0.145
1747851578874573447,-0.115
1747851578882259732,-0.088
1747851578889946017,-0.073
1747851578897632302,-0.049
1747851578905318587,-0.019
1747851578913004872,0.004
1747851578920691157,0.034
1747851578928377442,0.068
1747851578936063727,0.098
1747851578943750012,0.123
1747851578951436297,0.14200000000000002
1747851578959122582,0.147
1747851578966808867,0.137
1747851578974495152,0.115
1747851578982181437,0.091
1747851578989867722,0.061
1747851578997554007,0.027
1747851579005240292,-0.019
1747851579012926577,-0.073
1747851579020612862,-0.128
1747851579028299147,-0.177
1747851579035985432,-0.214
1747851579043671717,-0.23800000000000002
1747851579051358002,-0.253
1747851579059044287,-0.26
1747851579066730572,-0.258
1747851579074416857,-0.251
1747851579082103142,-0.243
1747851579089789427,-0.231
1747851579097475712,-0.221
1747851579105161997,-0.214
1747851579112848282,-0.20600000000000002
1747851579120534567,-0.20400000000000001
1747851579128220852,-0.201
1747851579135907137,-0.196
1747851579143593422,-0.192
1747851579151279707,-0.194
1747851579158965992,-0.194
1747851579166652277,-0.194
1747851579174338562,-0.194
1747851579182024847,-0.196
1747851579189711132,-0.196
1747851579197397417,-0.196
1747851579205083702,-0.194
1747851579212769987,-0.194
1747851579220456328,-0.192
1747851579228142195,-0.187
1747851579235828062,-0.184
1747851579243513929,-0.192
1747851579251199796,-0.196
1747851579258885663,-0.192
1747851579266571530,-0.177
1747851579274257397,-0.162
1747851579281943264,-0.152
1747851579289629131,-0.145
1747851579297314998,-0.132
1747851579305000865,-0.128
1747851579312686732,-0.157
1747851579320372599,-0.189
1747851579328058466,-0.184
1747851579335744333,-0.169
1747851579343430200,-0.167
1747851579351116067,-0.164
1747851579358801934,-0.157
1747851579366487801,-0.16
1747851579374173668,-0.17200000000000001
1747851579381859535,-0.211
1747851579389545402,-0.246
1747851579397231269,-0.064
1747851579404917136,0.526
1747851579412603003,1.339
1747851579420288870,1.792
1747851579427974737,1.046
1747851579435660604,-0.443
1747851579443346471,-0.797
1747851579451032338,-0.209
1747851579458718205,-0.167
1747851579466404072,-0.361
1747851579474089939,-0.241
1747851579481775806,-0.17400000000000002
1747851579489461673,-0.233
1747851579497147540,-0.199
1747851579504833407,-0.15
1747851579512519274,-0.152
1747851579520205141,-0.135
1747851579527891008,-0.1
1747851579535576875,-0.083
1747851579543262742,-0.066
1747851579550948609,-0.039
1747851579558634476,-0.009000000000000001
1747851579566320343,0.017
1747851579574006210,0.049
1747851579581692077,0.081
1747851579589377944,0.113
1747851579597063811,0.137
1747851579604749678,0.147
1747851579612435545,0.147
1747851579620121412,0.132
1747851579627807279,0.11
1747851579635493146,0.083
1747851579643179013,0.051000000000000004
1747851579650864880,0.009000000000000001
1747851579658550747,-0.041
1747851579666236614,-0.1
1747851579673922481,-0.152
1747851579681608348,-0.196
1747851579689294215,-0.228
1747851579696980082,-0.251
1747851579704665949,-0.26
1747851579712351816,-0.263
1747851579720037683,-0.26
1747851579727723550,-0.251
1747851579735409417,-0.241
1747851579743095284,-0.228
1747851579750781151,-0.221
1747851579758467018,-0.214
1747851579766152885,-0.209
1747851579773838752,-0.20400000000000001
1747851579781524671,-0.201,89,643
1747851579789210956,-0.196
1747851579796897241,-0.192
1747851579804583526,-0.194
1747851579812269811,-0.196
1747851579819956096,-0.196
1747851579827642381,-0.192
1747851579835328666,-0.192
1747851579843014951,-0.194
1747851579850701236,-0.194
1747851579858387521,-0.192
1747851579866073806,-0.192
1747851579873760091,-0.189
1747851579881446376,-0.189
1747851579889132661,-0.192
1747851579896818946,-0.194
1747851579904505231,-0.187
1747851579912191516,-0.17200000000000001
1747851579919877801,-0.157
1747851579927564086,-0.145
1747851579935250371,-0.135
1747851579942936656,-0.125
1747851579950622941,-0.13
1747851579958309226,-0.164
1747851579965995511,-0.182
1747851579973681796,-0.17200000000000001
1747851579981368081,-0.162
1747851579989054366,-0.16
1747851579996740651,-0.155
1747851580004426936,-0.152
1747851580012113221,-0.157
1747851580019799506,-0.177
1747851580027485791,-0.224
1747851580035172076,-0.219
1747851580042858361,0.076
1747851580050544646,0.758
1747851580058230931,1.55
1747851580065917216,1.772
1747851580073603501,0.6960000000000001
1747851580081289786,-0.676
1747851580088976071,-0.669
1747851580096662356,-0.132
1747851580104348641,-0.23800000000000002
1747851580112034926,-0.34900000000000003
1747851580119721211,-0.199
1747851580127407496,-0.189
1747851580135093781,-0.233
1747851580142780066,-0.179
1747851580150466351,-0.147
1747851580158152636,-0.152
1747851580165838921,-0.128
1747851580173525206,-0.098
1747851580181211491,-0.083
1747851580188897776,-0.059000000000000004
1747851580196584061,-0.029
1747851580204270346,-0.002
1747851580211956631,0.027
1747851580219642916,0.061
1747851580227329201,0.093
1747851580235015486,0.123
1747851580242701771,0.145
1747851580250388056,0.155
1747851580258074341,0.15
1747851580265760626,0.135
1747851580273446911,0.11
1747851580281133196,0.083
1747851580288819481,0.049
1747851580296505766,0.004
1747851580304192051,-0.049
1747851580311878336,-0.105
1747851580319564621,-0.16
1747851580327250906,-0.201
1747851580334937191,-0.233
1747851580342623532,-0.251
1747851580350309399,-0.26
1747851580357995266,-0.26
1747851580365681133,-0.253
1747851580373367000,-0.243
1747851580381052867,-0.23600000000000002
1747851580388738734,-0.226
1747851580396424601,-0.216
1747851580404110468,-0.209
1747851580411796335,-0.20400000000000001
1747851580419482202,-0.201
1747851580427168069,-0.194
1747851580434853936,-0.189
1747851580442539803,-0.189
1747851580450225670,-0.192
1747851580457911537,-0.189
1747851580465597404,-0.189
1747851580473283271,-0.189
1747851580480969138,-0.189
1747851580488655005,-0.187
1747851580496340872,-0.187
1747851580504026739,-0.184
1747851580511712606,-0.184
1747851580519398473,-0.182
1747851580527084340,-0.177
1747851580534770207,-0.177
1747851580542456074,-0.179
1747851580550141941,-0.182
1747851580557827808,-0.182
1747851580565513675,-0.17400000000000002
1747851580573199542,-0.152
1747851580580885409,-0.128
1747851580588571276,-0.11800000000000001
1747851580596257143,-0.113
1747851580603943010,-0.113
1747851580611628877,-0.132
1747851580619314744,-0.17400000000000002
1747851580627000611,-0.182
1747851580634686478,-0.16
1747851580642372345,-0.155
1747851580650058212,-0.162
1747851580657744079,-0.155
1747851580665429946,-0.14200000000000002
1747851580673115813,-0.147
1747851580680801680,-0.177
1747851580688487547,-0.231
1747851580696173414,-0.20600000000000002
1747851580703859281,0.147
1747851580711545148,0.883
1747851580719231015,1.649
1747851580726916882,1.676
1747851580734602749,0.42
1747851580742288616,-0.782
1747851580749974483,-0.561
1747851580757660350,-0.1
1747851580765346217,-0.27
1747851580773032084,-0.322
1747851580780717951,-0.182
1747851580788403818,-0.196
1747851580796089685,-0.224
1747851580803775552,-0.162
1747851580811461419,-0.132
1747851580819147286,-0.135
1747851580826833153,-0.115
1747851580834519020,-0.083
1747851580842204887,-0.061
1747851580849890754,-0.036000000000000004
1747851580857576621,-0.012
1747851580865262488,0.014
1747851580872948355,0.044
1747851580880634222,0.083
1747851580888320089,0.123
1747851580896005956,0.15
1747851580903691875,0.167,90,646
1747851580911378160,0.179,,649
1747851580919064445,0.169
1747851580926750730,0.15
1747851580934437015,0.128
1747851580942123300,0.096
1747851580949809585,0.056
1747851580957495870,0.014
1747851580965182155,-0.036000000000000004
1747851580972868440,-0.096
1747851580980554725,-0.155
1747851580988241010,-0.201
1747851580995927295,-0.228
1747851581003613580,-0.243
1747851581011299865,-0.251
1747851581018986150,-0.253
1747851581026672435,-0.251
1747851581034358720,-0.233
1747851581042045005,-0.221
1747851581049731290,-0.219
1747851581057417575,-0.211
1747851581065103860,-0.199
1747851581072790145,-0.194
1747851581080476430,-0.192
1747851581088162715,-0.187
1747851581095849000,-0.177
1747851581103535285,-0.17400000000000002
1747851581111221570,-0.182
1747851581118907855,-0.179
1747851581126594140,-0.17400000000000002
1747851581134280425,-0.184
1747851581141966710,-0.184
1747851581149652995,-0.177
1747851581157339280,-0.177
1747851581165025565,-0.182
1747851581172711850,-0.179
1747851581180398135,-0.177
1747851581188084420,-0.17400000000000002
1747851581195770705,-0.179
1747851581203456990,-0.189
1747851581211143275,-0.182
1747851581218829560,-0.162
1747851581226515845,-0.145
1747851581234202130,-0.13
1747851581241888415,-0.123
1747851581249574700,-0.12
1747851581257260985,-0.115
1747851581264947270,-0.132
1747851581272633555,-0.169
1747851581280319840,-0.179
1747851581288006125,-0.164
1747851581295692410,-0.16
1747851581303378695,-0.155
1747851581311064980,-0.147
1747851581318751265,-0.145
1747851581326437550,-0.15
1747851581334123835,-0.179
1747851581341810120,-0.241
1747851581349496405,-0.219
1747851581357182690,0.16
1747851581364868975,0.928
1747851581372555260,1.671
1747851581380241545,1.619
1747851581387927830,0.332
1747851581395614115,-0.802
1747851581403300400,-0.526
1747851581410986685,-0.098
1747851581418672970,-0.28300000000000003
1747851581426359255,-0.302
1747851581434045540,-0.16
1747851581441731825,-0.194
1747851581449418110,-0.214
1747851581457104395,-0.14200000000000002
1747851581464790740,-0.125
1747851581472476886,-0.128
1747851581480163032,-0.096
1747851581487849178,-0.07100000000000001
1747851581495535324,-0.054
1747851581503221470,-0.022
1747851581510907616,0.007
1747851581518593762,0.029
1747851581526279908,0.059000000000000004
1747851581533966054,0.098
1747851581541652200,0.137
1747851581549338346,0.162
1747851581557024492,0.179
1747851581564710638,0.187
1747851581572396784,0.184
1747851581580082930,0.162
1747851581587769076,0.13
1747851581595455222,0.098
1747851581603141368,0.061
1747851581610827514,0.009000000000000001
1747851581618513660,-0.054
1747851581626199806,-0.113
1747851581633885952,-0.164
1747851581641572098,-0.209
1747851581649258244,-0.23800000000000002
1747851581656944390,-0.251
1747851581664630536,-0.256
1747851581672316682,-0.256
1747851581680002828,-0.251
1747851581687688974,-0.241
1747851581695375120,-0.231
1747851581703061266,-0.221
1747851581710747412,-0.20600000000000002
1747851581718433558,-0.199
1747851581726119704,-0.196
1747851581733805850,-0.187
1747851581741491996,-0.177
1747851581749178142,-0.182
1747851581756864288,-0.184
1747851581764550434,-0.177
1747851581772236580,-0.17200000000000001
1747851581779922726,-0.179
1747851581787608872,-0.182
1747851581795295018,-0.177
1747851581802981164,-0.177
1747851581810667310,-0.179
1747851581818353456,-0.179
1747851581826039602,-0.179
1747851581833725748,-0.177
1747851581841411894,-0.177
1747851581849098040,-0.182
1747851581856784186,-0.184
1747851581864470332,-0.177
1747851581872156478,-0.162
1747851581879842624,-0.15
1747851581887528770,-0.14
1747851581895214916,-0.13
1747851581902901062,-0.11800000000000001
1747851581910587208,-0.128
1747851581918273354,-0.162
1747851581925959500,-0.179
1747851581933645646,-0.169
1747851581941331792,-0.162
1747851581949017938,-0.16
1747851581956704084,-0.152
1747851581964390230,-0.147
1747851581972076376,-0.155
1747851581979762522,-0.17200000000000001
1747851581987448668,-0.221
1747851581995134814,-0.231
1747851582002820960,0.068
1747851582010507106,0.782
1747851582018193252,1.565
1747851582025879429,1.701,91,644
1747851582033565436,0.5680000000000001
1747851582041251443,-0.733
1747851582048937450,-0.635
1747851582056623457,-0.11800000000000001
1747851582064309464,-0.251
1747851582071995471,-0.337
1747851582079681478,-0.187
1747851582087367485,-0.192
1747851582095053492,-0.233
1747851582102739499,-0.17200000000000001
1747851582110425506,-0.14
1747851582118111513,-0.147
1747851582125797520,-0.123
1747851582133483527,-0.093
1747851582141169534,-0.078
1747851582148855541,-0.054
1747851582156541548,-0.024
1747851582164227555,0.002
1747851582171913562,0.032
1747851582179599569,0.068
1747851582187285576,0.10300000000000001
1747851582194971583,0.13
1747851582202657590,0.155
1747851582210343597,0.164
1747851582218029604,0.157
1747851582225715611,0.14
1747851582233401618,0.115
1747851582241087625,0.083
1747851582248773632,0.046
1747851582256459639,0.0
1747851582264145646,-0.059000000000000004
1747851582271831653,-0.11800000000000001
1747851582279517660,-0.169
1747851582287203667,-0.211
1747851582294889674,-0.241
1747851582302575681,-0.26
1747851582310261688,-0.265
1747851582317947695,-0.263
1747851582325633702,-0.258
1747851582333319709,-0.248
1747851582341005716,-0.233
1747851582348691723,-0.226
1747851582356377730,-0.219
1747851582364063737,-0.211
1747851582371749744,-0.20400000000000001
1747851582379435751,-0.199
1747851582387121758,-0.192
1747851582394807765,-0.189
1747851582402493772,-0.189
1747851582410179779,-0.189
1747851582417865786,-0.189
1747851582425551793,-0.187
1747851582433237800,-0.187
1747851582440923807,-0.189
1747851582448609814,-0.189
1747851582456295821,-0.189
1747851582463981828,-0.187
1747851582471667835,-0.184
1747851582479353842,-0.184
1747851582487039849,-0.184
1747851582494725856,-0.182
1747851582502411863,-0.179
1747851582510097870,-0.182
1747851582517783877,-0.184
1747851582525469884,-0.182
1747851582533155891,-0.17200000000000001
1747851582540841898,-0.152
1747851582548527905,-0.137
1747851582556213912,-0.128
1747851582563899919,-0.12
1747851582571585926,-0.123
1747851582579271933,-0.15
1747851582586957944,-0.177,91,660
1747851582594643811,-0.17200000000000001,,653
1747851582602329678,-0.162
1747851582610015545,-0.16
1747851582617701412,-0.155
1747851582625387279,-0.15
1747851582633073146,-0.15
1747851582640759013,-0.164
1747851582648444880,-0.20400000000000001
1747851582656130747,-0.256
1747851582663816614,-0.13
1747851582671502481,0.398
1747851582679188348,1.213
1747851582686874215,1.804
1747851582694560082,1.292
1747851582702245949,-0.219
1747851582709931816,-0.846
1747851582717617683,-0.292
1747851582725303550,-0.128
1747851582732989417,-0.34900000000000003
1747851582740675284,-0.265
1747851582748361151,-0.169
1747851582756047018,-0.226
1747851582763732885,-0.209
1747851582771418752,-0.152
1747851582779104619,-0.152
1747851582786790486,-0.14
1747851582794476353,-0.105
1747851582802162220,-0.08600000000000001
1747851582809848087,-0.07100000000000001
1747851582817533954,-0.039
1747851582825219821,-0.009000000000000001
1747851582832905688,0.014
1747851582840591555,0.051000000000000004
1747851582848277422,0.088
1747851582855963289,0.12
1747851582863649156,0.147
1747851582871335023,0.167
1747851582879020890,0.169
1747851582886706757,0.16
1747851582894392624,0.14
1747851582902078491,0.115
1747851582909764358,0.083
1747851582917450225,0.041
1747851582925136092,-0.009000000000000001
1747851582932821959,-0.068
1747851582940507826,-0.132
1747851582948193693,-0.182
1747851582955879560,-0.219
1747851582963565427,-0.248
1747851582971251294,-0.263
1747851582978937161,-0.263
1747851582986623028,-0.258
1747851582994308895,-0.251
1747851583001994762,-0.241
1747851583009680629,-0.228
1747851583017366496,-0.219
1747851583025052363,-0.209
1747851583032738230,-0.20400000000000001
1747851583040424097,-0.199
1747851583048109964,-0.194
1747851583055795831,-0.189
1747851583063481698,-0.189
1747851583071167565,-0.187
1747851583078853432,-0.187
1747851583086539299,-0.187
1747851583094225166,-0.184
1747851583101911033,-0.184
1747851583109596900,-0.184
1747851583117282767,-0.184
1747851583124968634,-0.184
1747851583132654501,-0.184
1747851583140340368,-0.184
1747851583148026287,-0.182
1747851583155712572,-0.177
1747851583163398857,-0.17200000000000001
1747851583171085142,-0.17400000000000002
1747851583178771427,-0.182
1747851583186457712,-0.184
1747851583194143997,-0.179
1747851583201830282,-0.167
