time,ecg,hr,rr,marker
1748367087188116343,-0.24,96,619
1748367087195802977,-0.262,,625
1748367087203489611,-0.269
1748367087211176245,-0.264
1748367087218862879,-0.262
1748367087226549513,-0.257
1748367087234236147,-0.24
1748367087241922781,-0.222
1748367087249609415,-0.215
1748367087257296049,-0.20500000000000002
1748367087264982683,-0.195
1748367087272669317,-0.188
1748367087280355951,-0.191
1748367087288042585,-0.193
1748367087295729219,-0.181
1748367087303415853,-0.176
1748367087311102487,-0.17300000000000001
1748367087318789121,-0.166
1748367087326475755,-0.171
1748367087334162389,-0.178
1748367087341849023,-0.176
1748367087349535657,-0.181
1748367087357222291,-0.188
1748367087364908925,-0.176
1748367087372595559,-0.159
1748367087380282193,-0.151
1748367087387968827,-0.149
1748367087395655461,-0.14200000000000002
1748367087403342095,-0.129
1748367087411028729,-0.122
1748367087418715363,-0.137
1748367087426401997,-0.169
1748367087434088631,-0.17300000000000001
1748367087441775265,-0.164
1748367087449461899,-0.161
1748367087457148533,-0.159
1748367087464835167,-0.156
1748367087472521801,-0.149
1748367087480208435,-0.154
1748367087487895069,-0.178
1748367087495581703,-0.23500000000000001
1748367087503268337,-0.303
1748367087510954971,-0.107
1748367087518641605,0.5730000000000001
1748367087526328239,1.332
1748367087534014873,1.55
1748367087541701507,0.81
1748367087549388141,-0.404
1748367087557074775,-0.678
1748367087564761409,-0.166
1748367087572448043,-0.093
1748367087580134677,-0.23700000000000002
1748367087587821311,-0.137
1748367087595507945,-0.088
1748367087603194579,-0.137
1748367087610881213,-0.105
1748367087618567847,-0.066
1748367087626254481,-0.066
1748367087633941115,-0.041
1748367087641627749,-0.007
1748367087649314383,0.012
1748367087657001017,0.044
1748367087664687651,0.073
1748367087672374285,0.085
1748367087680060919,0.11
1748367087687747553,0.146
1748367087695434187,0.166
1748367087703120821,0.169
1748367087710807455,0.171
1748367087718494089,0.166
1748367087726180723,0.14400000000000002
1748367087733867357,0.115
1748367087741553991,0.09
1748367087749240639,0.068
1748367087756926994,0.034
1748367087764613349,-0.007
1748367087772299704,-0.058
1748367087779986059,-0.122
1748367087787672414,-0.183
1748367087795358769,-0.222
1748367087803045124,-0.252
1748367087810731479,-0.269
1748367087818417834,-0.279
1748367087826104189,-0.276
1748367087833790544,-0.267
1748367087841476899,-0.252
1748367087849163254,-0.242
1748367087856849609,-0.227
1748367087864535964,-0.22
1748367087872222319,-0.21
1748367087879908674,-0.2
1748367087887595029,-0.195
1748367087895281384,-0.195
1748367087902967739,-0.188
1748367087910654094,-0.181
1748367087918340449,-0.178
1748367087926026804,-0.183
1748367087933713159,-0.186
1748367087941399514,-0.183
1748367087949085869,-0.181
1748367087956772224,-0.181
1748367087964458579,-0.181
1748367087972144934,-0.183
1748367087979831289,-0.193
1748367087987517644,-0.191
1748367087995203999,-0.178
1748367088002890354,-0.166
1748367088010576709,-0.159
1748367088018263064,-0.151
1748367088025949419,-0.139
1748367088033635774,-0.127
1748367088041322129,-0.14200000000000002
1748367088049008484,-0.176
1748367088056694839,-0.186
1748367088064381194,-0.176
1748367088072067549,-0.171
1748367088079753904,-0.166
1748367088087440259,-0.159
1748367088095126614,-0.159
1748367088102812969,-0.166
1748367088110499324,-0.186
1748367088118185679,-0.244
1748367088125872034,-0.293
1748367088133558389,-0.048
1748367088141244744,0.639
1748367088148931099,1.366
1748367088156617454,1.582
1748367088164303809,0.788
1748367088171990164,-0.47700000000000004
1748367088179676519,-0.671
1748367088187362874,-0.11
1748367088195049229,-0.097
1748367088202735584,-0.276
1748367088210421939,-0.161
1748367088218108294,-0.107
1748367088225794649,-0.161
1748367088233481004,-0.127
1748367088241167359,-0.083
1748367088248853714,-0.083
1748367088256540069,-0.063
1748367088264226424,-0.026000000000000002
1748367088271912779,-0.007
1748367088279599134,0.012
1748367088287285489,0.041
1748367088294971844,0.068
1748367088302658199,0.093
1748367088310344583,0.12,96,629
1748367088318031286,0.139,,621
1748367088325717989,0.151
1748367088333404692,0.154
1748367088341091395,0.146
1748367088348778098,0.129
1748367088356464801,0.107
1748367088364151504,0.088
1748367088371838207,0.063
1748367088379524910,0.029
1748367088387211613,-0.017
1748367088394898316,-0.07100000000000001
1748367088402585019,-0.129
1748367088410271722,-0.188
1748367088417958425,-0.23700000000000002
1748367088425645128,-0.269
1748367088433331831,-0.28400000000000003
1748367088441018534,-0.289
1748367088448705237,-0.28600000000000003
1748367088456391940,-0.276
1748367088464078643,-0.262
1748367088471765346,-0.252
1748367088479452049,-0.242
1748367088487138752,-0.232
1748367088494825455,-0.222
1748367088502512158,-0.215
1748367088510198861,-0.21
1748367088517885564,-0.20500000000000002
1748367088525572267,-0.203
1748367088533258970,-0.2
1748367088540945673,-0.2
1748367088548632376,-0.203
1748367088556319079,-0.203
1748367088564005782,-0.203
1748367088571692485,-0.2
1748367088579379188,-0.198
1748367088587065891,-0.198
1748367088594752594,-0.195
1748367088602439297,-0.2
1748367088610126000,-0.203
1748367088617812703,-0.195
1748367088625499406,-0.178
1748367088633186109,-0.166
1748367088640872812,-0.156
1748367088648559515,-0.146
1748367088656246218,-0.132
1748367088663932921,-0.132
1748367088671619624,-0.159
1748367088679306327,-0.188
1748367088686993030,-0.186
1748367088694679733,-0.17300000000000001
1748367088702366436,-0.171
1748367088710053139,-0.166
1748367088717739842,-0.161
1748367088725426545,-0.161
1748367088733113248,-0.176
1748367088740799951,-0.20800000000000002
1748367088748486654,-0.279
1748367088756173357,-0.274
1748367088763860060,0.139
1748367088771546763,0.9500000000000001
1748367088779233466,1.6480000000000001
1748367088786920169,1.577
1748367088794606872,0.379
1748367088802293575,-0.734
1748367088809980278,-0.499
1748367088817666981,-0.026000000000000002
1748367088825353684,-0.2
1748367088833040387,-0.276
1748367088840727090,-0.132
1748367088848413793,-0.14200000000000002
1748367088856100496,-0.178
1748367088863787199,-0.117
1748367088871473966,-0.09
1748367088879160669,-0.09
1748367088886847372,-0.061
1748367088894534075,-0.029
1748367088902220778,-0.012
1748367088909907481,0.014
1748367088917594184,0.046
1748367088925280887,0.07100000000000001
1748367088932967590,0.093
1748367088940654293,0.12
1748367088948340996,0.139
1748367088956027699,0.149
1748367088963714402,0.149
1748367088971401105,0.139
1748367088979087808,0.12
1748367088986774511,0.1
1748367088994461214,0.078
1748367089002147917,0.053
1748367089009834620,0.014
1748367089017521323,-0.036000000000000004
1748367089025208026,-0.093
1748367089032894729,-0.151
1748367089040581432,-0.21
1748367089048268135,-0.257
1748367089055954838,-0.28400000000000003
1748367089063641541,-0.296
1748367089071328244,-0.296
1748367089079014947,-0.291
1748367089086701650,-0.281
1748367089094388353,-0.269
1748367089102075056,-0.254
1748367089109761759,-0.244
1748367089117448462,-0.23500000000000001
1748367089125135165,-0.225
1748367089132821868,-0.218
1748367089140508571,-0.215
1748367089148195274,-0.21
1748367089155881977,-0.20800000000000002
1748367089163568680,-0.20800000000000002
1748367089171255383,-0.20500000000000002
1748367089178942086,-0.203
1748367089186628789,-0.203
1748367089194315492,-0.20500000000000002
1748367089202002195,-0.203
1748367089209688898,-0.198
1748367089217375601,-0.198
1748367089225062304,-0.198
1748367089232749007,-0.203
1748367089240435710,-0.20800000000000002
1748367089248122413,-0.2
1748367089255809116,-0.183
1748367089263495819,-0.169
1748367089271182522,-0.159
1748367089278869225,-0.151
1748367089286555928,-0.134
1748367089294242631,-0.129
1748367089301929334,-0.159
1748367089309616037,-0.193
1748367089317302740,-0.188
1748367089324989443,-0.17300000000000001
1748367089332676146,-0.17300000000000001
1748367089340362849,-0.171
1748367089348049552,-0.164
1748367089355736255,-0.164
1748367089363422958,-0.17300000000000001
1748367089371109661,-0.20800000000000002
1748367089378796364,-0.281
1748367089386483067,-0.289
1748367089394169770,0.09
1748367089401856473,0.906
1748367089409543176,1.68
1748367089417229879,1.695
1748367089424916582,0.504
1748367089432603345,-0.715,96,613
1748367089440289839,-0.556
1748367089447976333,-0.053
1748367089455662827,-0.2
1748367089463349321,-0.289
1748367089471035815,-0.14400000000000002
1748367089478722309,-0.151
1748367089486408803,-0.191
1748367089494095297,-0.132
1748367089501781791,-0.1
1748367089509468285,-0.10200000000000001
1748367089517154779,-0.07100000000000001
1748367089524841273,-0.039
1748367089532527767,-0.022
1748367089540214261,0.002
1748367089547900755,0.034
1748367089555587249,0.058
1748367089563273743,0.085
1748367089570960237,0.11
1748367089578646731,0.127
1748367089586333225,0.139
1748367089594019719,0.14400000000000002
1748367089601706213,0.137
1748367089609392707,0.115
1748367089617079201,0.09
1748367089624765695,0.07100000000000001
1748367089632452189,0.046
1748367089640138683,0.017
1748367089647825177,-0.029
1748367089655511671,-0.085
1748367089663198165,-0.14400000000000002
1748367089670884659,-0.2
1748367089678571153,-0.24
1748367089686257647,-0.264
1748367089693944141,-0.281
1748367089701630635,-0.289
1748367089709317129,-0.28600000000000003
1748367089717003623,-0.276
1748367089724690117,-0.262
1748367089732376611,-0.249
1748367089740063105,-0.244
1748367089747749599,-0.23500000000000001
1748367089755436093,-0.218
1748367089763122587,-0.21
1748367089770809081,-0.215
1748367089778495575,-0.21
1748367089786182069,-0.203
1748367089793868563,-0.20500000000000002
1748367089801555057,-0.2
1748367089809241551,-0.195
1748367089816928045,-0.195
1748367089824614539,-0.2
1748367089832301033,-0.2
1748367089839987527,-0.198
1748367089847674021,-0.198
1748367089855360515,-0.195
1748367089863047009,-0.193
1748367089870733503,-0.193
1748367089878419997,-0.198
1748367089886106491,-0.188
1748367089893792985,-0.169
1748367089901479479,-0.149
1748367089909165973,-0.14200000000000002
1748367089916852467,-0.132
1748367089924538961,-0.122
1748367089932225455,-0.139
1748367089939911949,-0.176
1748367089947598443,-0.188
1748367089955284937,-0.181
1748367089962971431,-0.176
1748367089970657925,-0.169
1748367089978344419,-0.156
1748367089986030913,-0.156
1748367089993717467,-0.161,96,622
1748367090001403961,-0.17300000000000001,,628
1748367090009090455,-0.22
1748367090016776949,-0.303
1748367090024463443,-0.181
1748367090032149937,0.421
1748367090039836431,1.241
1748367090047522925,1.692
1748367090055209419,1.131
1748367090062895913,-0.23500000000000001
1748367090070582407,-0.769
1748367090078268901,-0.227
1748367090085955395,-0.056
1748367090093641889,-0.264
1748367090101328383,-0.193
1748367090109014877,-0.105
1748367090116701371,-0.149
1748367090124387865,-0.129
1748367090132074359,-0.083
1748367090139760853,-0.085
1748367090147447347,-0.068
1748367090155133841,-0.026000000000000002
1748367090162820335,-0.007
1748367090170506829,0.012
1748367090178193323,0.046
1748367090185879817,0.068
1748367090193566311,0.088
1748367090201252805,0.124
1748367090208939299,0.154
1748367090216625793,0.161
1748367090224312287,0.166
1748367090231998781,0.164
1748367090239685275,0.146
1748367090247371769,0.124
1748367090255058263,0.105
1748367090262744757,0.08
1748367090270431251,0.053
1748367090278117745,0.017
1748367090285804239,-0.036000000000000004
1748367090293490733,-0.095
1748367090301177227,-0.156
1748367090308863721,-0.215
1748367090316550215,-0.249
1748367090324236709,-0.262
1748367090331923203,-0.274
1748367090339609697,-0.28600000000000003
1748367090347296191,-0.279
1748367090354982685,-0.259
1748367090362669179,-0.254
1748367090370355673,-0.247
1748367090378042167,-0.227
1748367090385728661,-0.218
1748367090393415155,-0.213
1748367090401101649,-0.203
1748367090408788143,-0.198
1748367090416474637,-0.20500000000000002
1748367090424161131,-0.2
1748367090431847625,-0.191
1748367090439534119,-0.195
1748367090447220613,-0.198
1748367090454907107,-0.186
1748367090462593601,-0.188
1748367090470280095,-0.193
1748367090477966589,-0.186
1748367090485653083,-0.183
1748367090493339577,-0.193
1748367090501026071,-0.198
1748367090508712565,-0.198
1748367090516399059,-0.186
1748367090524085553,-0.161
1748367090531772047,-0.146
1748367090539458541,-0.14400000000000002
1748367090547145035,-0.127
1748367090554831585,-0.122
1748367090562518288,-0.156
1748367090570204991,-0.191
1748367090577891694,-0.181
1748367090585578397,-0.169
1748367090593265100,-0.176
1748367090600951803,-0.171
1748367090608638506,-0.154
1748367090616325209,-0.156
1748367090624011912,-0.166
1748367090631698615,-0.183
1748367090639385318,-0.252
1748367090647072021,-0.289
1748367090654758724,0.034
1748367090662445427,0.783
1748367090670132130,1.457
1748367090677818833,1.459
1748367090685505536,0.462
1748367090693192239,-0.644
1748367090700878942,-0.5630000000000001
1748367090708565645,-0.068
1748367090716252348,-0.14400000000000002
1748367090723939051,-0.232
1748367090731625754,-0.115
1748367090739312457,-0.11
1748367090746999160,-0.14200000000000002
1748367090754685863,-0.095
1748367090762372566,-0.068
1748367090770059269,-0.066
1748367090777745972,-0.034
1748367090785432675,-0.004
1748367090793119378,0.012
1748367090800806081,0.039
1748367090808492784,0.068
1748367090816179487,0.09
1748367090823866190,0.115
1748367090831552893,0.14400000000000002
1748367090839239596,0.161
1748367090846926299,0.164
1748367090854613002,0.156
1748367090862299705,0.151
1748367090869986408,0.132
1748367090877673111,0.105
1748367090885359814,0.075
1748367090893046517,0.051000000000000004
1748367090900733220,0.019
1748367090908419923,-0.026000000000000002
1748367090916106626,-0.083
1748367090923793329,-0.134
1748367090931480032,-0.183
1748367090939166735,-0.232
1748367090946853438,-0.264
1748367090954540141,-0.276
1748367090962226844,-0.279
1748367090969913547,-0.276
1748367090977600250,-0.267
1748367090985286953,-0.257
1748367090992973656,-0.247
1748367091000660359,-0.23700000000000002
1748367091008347062,-0.225
1748367091016033765,-0.215
1748367091023720468,-0.213
1748367091031407171,-0.20800000000000002
1748367091039093874,-0.198
1748367091046780577,-0.193
1748367091054467280,-0.193
1748367091062153983,-0.191
1748367091069840686,-0.191
1748367091077527389,-0.193
1748367091085214092,-0.193
1748367091092900795,-0.191
1748367091100587498,-0.191
1748367091108274201,-0.188
1748367091115960964,-0.195,96,631
1748367091123647249,-0.2
1748367091131333534,-0.195
1748367091139019819,-0.183
1748367091146706104,-0.171
1748367091154392389,-0.159
1748367091162078674,-0.151
1748367091169764959,-0.14200000000000002
1748367091177451244,-0.134
1748367091185137529,-0.156
1748367091192823814,-0.188
1748367091200510099,-0.188
1748367091208196384,-0.17300000000000001
1748367091215882669,-0.17300000000000001
1748367091223568954,-0.171
1748367091231255239,-0.161
1748367091238941524,-0.159
1748367091246627809,-0.171
1748367091254314094,-0.2
1748367091262000379,-0.267
1748367091269686664,-0.267
1748367091277372949,0.11
1748367091285059234,0.862
1748367091292745519,1.5010000000000001
1748367091300431804,1.457
1748367091308118089,0.387
1748367091315804374,-0.6880000000000001
1748367091323490659,-0.504
1748367091331176944,-0.026000000000000002
1748367091338863229,-0.169
1748367091346549514,-0.259
1748367091354235799,-0.122
1748367091361922084,-0.124
1748367091369608369,-0.159
1748367091377294654,-0.105
1748367091384980939,-0.078
1748367091392667224,-0.078
1748367091400353509,-0.048
1748367091408039794,-0.019
1748367091415726079,-0.004
1748367091423412364,0.019
1748367091431098649,0.048
1748367091438784934,0.073
1748367091446471219,0.097
1748367091454157504,0.12
1748367091461843789,0.132
1748367091469530074,0.14200000000000002
1748367091477216359,0.14200000000000002
1748367091484902644,0.132
1748367091492588929,0.115
1748367091500275214,0.093
1748367091507961499,0.07100000000000001
1748367091515647784,0.046
1748367091523334069,0.012
1748367091531020354,-0.034
1748367091538706639,-0.09
1748367091546392924,-0.151
1748367091554079209,-0.20500000000000002
1748367091561765494,-0.244
1748367091569451779,-0.269
1748367091577138064,-0.281
1748367091584824349,-0.28600000000000003
1748367091592510634,-0.281
1748367091600196919,-0.269
1748367091607883204,-0.257
1748367091615569489,-0.247
1748367091623255774,-0.23700000000000002
1748367091630942059,-0.227
1748367091638628344,-0.22
1748367091646314629,-0.213
1748367091654000914,-0.21
1748367091661687199,-0.20800000000000002
1748367091669373484,-0.2
1748367091677059825,-0.198
1748367091684746528,-0.2
1748367091692433231,-0.198
1748367091700119934,-0.198
1748367091707806637,-0.198
1748367091715493340,-0.2
1748367091723180043,-0.195
1748367091730866746,-0.191
1748367091738553449,-0.198
1748367091746240152,-0.203
1748367091753926855,-0.198
1748367091761613558,-0.186
1748367091769300261,-0.169
1748367091776986964,-0.159
1748367091784673667,-0.151
1748367091792360370,-0.137
1748367091800047073,-0.127
1748367091807733776,-0.14400000000000002
1748367091815420479,-0.181
1748367091823107182,-0.186
1748367091830793885,-0.17300000000000001
1748367091838480588,-0.171
1748367091846167291,-0.171
1748367091853853994,-0.164
1748367091861540697,-0.159
1748367091869227400,-0.166
1748367091876914103,-0.195
1748367091884600806,-0.267
1748367091892287509,-0.303
1748367091899974212,0.002
1748367091907660915,0.759
1748367091915347618,1.5330000000000001
1748367091923034321,1.682
1748367091930721024,0.6930000000000001
1748367091938407727,-0.597
1748367091946094430,-0.619
1748367091953781133,-0.063
1748367091961467836,-0.14400000000000002
1748367091969154539,-0.291
1748367091976841242,-0.156
1748367091984527945,-0.129
1748367091992214648,-0.181
1748367091999901351,-0.132
1748367092007588054,-0.093
1748367092015274757,-0.093
1748367092022961460,-0.068
1748367092030648163,-0.034
1748367092038334866,-0.017
1748367092046021569,0.004
1748367092053708272,0.034
1748367092061394975,0.061
1748367092069081678,0.088
1748367092076768381,0.112
1748367092084455084,0.129
1748367092092141787,0.139
1748367092099828490,0.14200000000000002
1748367092107515193,0.134
1748367092115201896,0.117
1748367092122888599,0.095
1748367092130575302,0.073
1748367092138262005,0.048
1748367092145948708,0.014
1748367092153635411,-0.029
1748367092161322114,-0.085
1748367092169008817,-0.146
1748367092176695520,-0.198
1748367092184382223,-0.242
1748367092192068926,-0.274
1748367092199755629,-0.289
1748367092207442332,-0.291
1748367092215129035,-0.289
1748367092222815738,-0.279
1748367092230502441,-0.267
1748367092238189208,-0.257,96,634
1748367092245875911,-0.244,,627
1748367092253562614,-0.23500000000000001
1748367092261249317,-0.227
1748367092268936020,-0.22
1748367092276622723,-0.213
1748367092284309426,-0.20800000000000002
1748367092291996129,-0.20800000000000002
1748367092299682832,-0.20500000000000002
1748367092307369535,-0.20500000000000002
1748367092315056238,-0.20500000000000002
1748367092322742941,-0.20500000000000002
1748367092330429644,-0.20500000000000002
1748367092338116347,-0.20800000000000002
1748367092345803050,-0.203
1748367092353489753,-0.2
1748367092361176456,-0.203
1748367092368863159,-0.20800000000000002
1748367092376549862,-0.2
1748367092384236565,-0.186
1748367092391923268,-0.169
1748367092399609971,-0.161
1748367092407296674,-0.154
1748367092414983377,-0.137
1748367092422670080,-0.134
1748367092430356783,-0.166
1748367092438043486,-0.193
1748367092445730189,-0.186
1748367092453416892,-0.17300000000000001
1748367092461103595,-0.17300000000000001
1748367092468790298,-0.171
1748367092476477001,-0.164
1748367092484163704,-0.164
1748367092491850407,-0.183
1748367092499537110,-0.23
1748367092507223813,-0.315
1748367092514910516,-0.267
1748367092522597219,0.23500000000000001
1748367092530283922,1.094
1748367092537970625,1.766
1748367092545657328,1.5130000000000001
1748367092553344031,0.154
1748367092561030734,-0.793
1748367092568717437,-0.399
1748367092576404140,-0.034
1748367092584090843,-0.247
1748367092591777546,-0.257
1748367092599464249,-0.127
1748367092607150952,-0.166
1748367092614837655,-0.183
1748367092622524358,-0.12
1748367092630211061,-0.097
1748367092637897764,-0.095
1748367092645584467,-0.061
1748367092653271170,-0.034
1748367092660957873,-0.017
1748367092668644576,0.014
1748367092676331279,0.044
1748367092684017982,0.068
1748367092691704685,0.093
1748367092699391388,0.115
1748367092707078091,0.132
1748367092714764794,0.14400000000000002
1748367092722451497,0.14200000000000002
1748367092730138200,0.122
1748367092737824903,0.10200000000000001
1748367092745511606,0.083
1748367092753198309,0.061
1748367092760885012,0.036000000000000004
1748367092768571715,0.002
1748367092776258418,-0.048
1748367092783945121,-0.107
1748367092791631824,-0.164
1748367092799318587,-0.218
1748367092807005081,-0.259
1748367092814691575,-0.279
1748367092822378069,-0.291
1748367092830064563,-0.293
1748367092837751057,-0.289
1748367092845437551,-0.279
1748367092853124045,-0.262
1748367092860810539,-0.249
1748367092868497033,-0.244
1748367092876183527,-0.23700000000000002
1748367092883870021,-0.227
1748367092891556515,-0.215
1748367092899243009,-0.21
1748367092906929503,-0.213
1748367092914615997,-0.215
1748367092922302491,-0.213
1748367092929988985,-0.20500000000000002
1748367092937675479,-0.20500000000000002
1748367092945361973,-0.21
1748367092953048467,-0.20500000000000002
1748367092960734961,-0.195
1748367092968421455,-0.198
1748367092976107949,-0.20500000000000002
1748367092983794443,-0.20500000000000002
1748367092991480937,-0.198
1748367092999167431,-0.191
1748367093006853925,-0.17300000000000001
1748367093014540419,-0.156
1748367093022226913,-0.14400000000000002
1748367093029913407,-0.134
1748367093037599901,-0.129
1748367093045286395,-0.149
1748367093052972889,-0.186
1748367093060659383,-0.193
1748367093068345877,-0.178
1748367093076032371,-0.178
1748367093083718865,-0.186
1748367093091405359,-0.17300000000000001
1748367093099091853,-0.154
1748367093106778347,-0.161
1748367093114464841,-0.191
1748367093122151335,-0.252
1748367093129837829,-0.325
1748367093137524323,-0.161
1748367093145210817,0.485
1748367093152897311,1.312
1748367093160583805,1.699
1748367093168270299,1.0010000000000001
1748367093175956793,-0.369
1748367093183643287,-0.734
1748367093191329781,-0.166
1748367093199016275,-0.078
1748367093206702769,-0.269
1748367093214389263,-0.171
1748367093222075757,-0.105
1748367093229762251,-0.166
1748367093237448745,-0.139
1748367093245135239,-0.075
1748367093252821733,-0.073
1748367093260508227,-0.068
1748367093268194721,-0.026000000000000002
1748367093275881215,0.004
1748367093283567709,0.022
1748367093291254203,0.044
1748367093298940697,0.078
1748367093306627191,0.105
1748367093314313685,0.124
1748367093322000179,0.146
1748367093329686673,0.166
1748367093337373167,0.169
1748367093345059661,0.159
1748367093352746155,0.146
1748367093360432709,0.124,96,622
1748367093368119203,0.095,,624
1748367093375805697,0.063
1748367093383492191,0.039
1748367093391178685,0.0
1748367093398865179,-0.053
1748367093406551673,-0.11
1748367093414238167,-0.171
1748367093421924661,-0.23
1748367093429611155,-0.262
1748367093437297649,-0.279
1748367093444984143,-0.289
1748367093452670637,-0.289
1748367093460357131,-0.279
1748367093468043625,-0.264
1748367093475730119,-0.244
1748367093483416613,-0.24
1748367093491103107,-0.23700000000000002
1748367093498789601,-0.225
1748367093506476095,-0.213
1748367093514162589,-0.20800000000000002
1748367093521849083,-0.203
1748367093529535577,-0.198
1748367093537222071,-0.198
1748367093544908565,-0.198
1748367093552595059,-0.198
1748367093560281553,-0.193
1748367093567968047,-0.188
1748367093575654541,-0.188
1748367093583341035,-0.188
1748367093591027529,-0.191
1748367093598714023,-0.198
1748367093606400517,-0.203
1748367093614087011,-0.191
1748367093621773505,-0.169
1748367093629459999,-0.159
1748367093637146493,-0.159
1748367093644832987,-0.149
1748367093652519481,-0.134
1748367093660205975,-0.154
1748367093667892469,-0.193
1748367093675578963,-0.195
1748367093683265457,-0.17300000000000001
1748367093690951951,-0.176
1748367093698638445,-0.181
1748367093706324939,-0.164
1748367093714011433,-0.159
1748367093721697927,-0.176
1748367093729384421,-0.2
1748367093737070915,-0.271
1748367093744757409,-0.323
1748367093752443903,-0.034
1748367093760130397,0.705
1748367093767816891,1.423
1748367093775503385,1.508
1748367093783189879,0.56
1748367093790876373,-0.605
1748367093798562867,-0.595
1748367093806249361,-0.08
1748367093813935855,-0.14200000000000002
1748367093821622349,-0.247
1748367093829308843,-0.122
1748367093836995337,-0.11
1748367093844681831,-0.151
1748367093852368325,-0.10200000000000001
1748367093860054819,-0.073
1748367093867741313,-0.075
1748367093875427807,-0.044
1748367093883114301,-0.007
1748367093890800795,0.004
1748367093898487289,0.024
1748367093906173783,0.058
1748367093913860277,0.088
1748367093921546827,0.115,96,620
1748367093929233530,0.14200000000000002
1748367093936920233,0.159
1748367093944606936,0.166
1748367093952293639,0.164
1748367093959980342,0.149
1748367093967667045,0.129
1748367093975353748,0.10200000000000001
1748367093983040451,0.075
1748367093990727154,0.048
1748367093998413857,0.014
1748367094006100560,-0.031
1748367094013787263,-0.085
1748367094021473966,-0.146
1748367094029160669,-0.20800000000000002
1748367094036847372,-0.252
1748367094044534075,-0.271
1748367094052220778,-0.28400000000000003
1748367094059907481,-0.28600000000000003
1748367094067594184,-0.28400000000000003
1748367094075280887,-0.28400000000000003
1748367094082967590,-0.271
1748367094090654293,-0.252
1748367094098340996,-0.242
1748367094106027699,-0.23500000000000001
1748367094113714402,-0.225
1748367094121401105,-0.215
1748367094129087808,-0.21
1748367094136774511,-0.20500000000000002
1748367094144461214,-0.203
1748367094152147917,-0.2
1748367094159834620,-0.195
1748367094167521323,-0.195
1748367094175208026,-0.193
1748367094182894729,-0.195
1748367094190581432,-0.198
1748367094198268135,-0.193
1748367094205954838,-0.195
1748367094213641541,-0.20500000000000002
1748367094221328244,-0.20500000000000002
1748367094229014947,-0.195
1748367094236701650,-0.181
1748367094244388353,-0.169
1748367094252075056,-0.161
1748367094259761759,-0.151
1748367094267448462,-0.137
1748367094275135165,-0.14200000000000002
1748367094282821868,-0.181
1748367094290508571,-0.203
1748367094298195274,-0.188
1748367094305881977,-0.176
1748367094313568680,-0.178
1748367094321255383,-0.17300000000000001
1748367094328942086,-0.164
1748367094336628789,-0.171
1748367094344315492,-0.195
1748367094352002195,-0.247
1748367094359688898,-0.318
1748367094367375601,-0.176
1748367094375062304,0.44
1748367094382749007,1.246
1748367094390435710,1.663
1748367094398122413,1.104
1748367094405809116,-0.232
1748367094413495819,-0.766
1748367094421182522,-0.23700000000000002
1748367094428869225,-0.063
1748367094436555928,-0.274
1748367094444242631,-0.21
1748367094451929334,-0.12
1748367094459616037,-0.171
1748367094467302740,-0.156
1748367094474989443,-0.10200000000000001
1748367094482676206,-0.1
1748367094490362909,-0.085
1748367094498049612,-0.048
1748367094505736315,-0.029
1748367094513423018,-0.012
1748367094521109721,0.014
1748367094528796424,0.041
1748367094536483127,0.068
1748367094544169830,0.095
1748367094551856533,0.115
1748367094559543236,0.129
1748367094567229939,0.134
1748367094574916642,0.129
1748367094582603345,0.115
1748367094590290048,0.095
1748367094597976751,0.07100000000000001
1748367094605663454,0.046
1748367094613350157,0.019
1748367094621036860,-0.022
1748367094628723563,-0.078
1748367094636410266,-0.139
1748367094644096969,-0.195
1748367094651783672,-0.247
1748367094659470375,-0.28400000000000003
1748367094667157078,-0.298
1748367094674843781,-0.303
1748367094682530484,-0.301
1748367094690217187,-0.293
1748367094697903890,-0.281
1748367094705590593,-0.269
1748367094713277296,-0.257
1748367094720963999,-0.244
1748367094728650702,-0.24
1748367094736337405,-0.232
1748367094744024108,-0.222
1748367094751710811,-0.218
1748367094759397514,-0.215
1748367094767084217,-0.213
1748367094774770920,-0.21
1748367094782457623,-0.21
1748367094790144326,-0.21
1748367094797831029,-0.21
1748367094805517732,-0.21
1748367094813204435,-0.20800000000000002
1748367094820891138,-0.203
1748367094828577841,-0.203
1748367094836264544,-0.21
1748367094843951247,-0.215
1748367094851637950,-0.20800000000000002
1748367094859324653,-0.193
1748367094867011356,-0.176
1748367094874698059,-0.166
1748367094882384762,-0.156
1748367094890071465,-0.14400000000000002
1748367094897758168,-0.14200000000000002
1748367094905444871,-0.171
1748367094913131574,-0.2
1748367094920818277,-0.195
1748367094928504980,-0.183
1748367094936191683,-0.181
1748367094943878386,-0.178
1748367094951565089,-0.171
1748367094959251792,-0.171
1748367094966938495,-0.186
1748367094974625198,-0.23
1748367094982311901,-0.313
1748367094989998604,-0.274
1748367094997685307,0.222
1748367095005372010,1.097
1748367095013058713,1.7750000000000001
1748367095020745416,1.543
1748367095028432119,0.20500000000000002
1748367095036118822,-0.783
1748367095043805585,-0.428,96,619
1748367095051492288,-0.044,,612
1748367095059178991,-0.252
1748367095066865694,-0.279
1748367095074552397,-0.14400000000000002
1748367095082239100,-0.17300000000000001
1748367095089925803,-0.191
1748367095097612506,-0.129
1748367095105299209,-0.112
1748367095112985912,-0.11
1748367095120672615,-0.073
1748367095128359318,-0.046
1748367095136046021,-0.029
1748367095143732724,0.0
1748367095151419427,0.031
1748367095159106130,0.056
1748367095166792833,0.085
1748367095174479536,0.115
1748367095182166239,0.132
1748367095189852942,0.139
1748367095197539645,0.139
1748367095205226348,0.129
1748367095212913051,0.112
1748367095220599754,0.09
1748367095228286457,0.068
1748367095235973160,0.041
1748367095243659863,-0.002
1748367095251346566,-0.058
1748367095259033269,-0.122
1748367095266719972,-0.181
1748367095274406675,-0.23700000000000002
1748367095282093378,-0.279
1748367095289780081,-0.303
1748367095297466784,-0.313
1748367095305153487,-0.313
1748367095312840190,-0.306
1748367095320526893,-0.291
1748367095328213596,-0.279
1748367095335900299,-0.267
1748367095343587002,-0.254
1748367095351273705,-0.244
1748367095358960408,-0.24
1748367095366647111,-0.23
1748367095374333814,-0.225
1748367095382020517,-0.225
1748367095389707220,-0.225
1748367095397393923,-0.22
1748367095405080626,-0.218
1748367095412767329,-0.218
1748367095420454032,-0.22
1748367095428140735,-0.218
1748367095435827438,-0.215
1748367095443514141,-0.213
1748367095451200844,-0.21
1748367095458887547,-0.21
1748367095466574250,-0.21
1748367095474260953,-0.215
1748367095481947656,-0.213
1748367095489634359,-0.195
1748367095497321062,-0.176
1748367095505007765,-0.159
1748367095512694468,-0.149
1748367095520381171,-0.14200000000000002
1748367095528067874,-0.14400000000000002
1748367095535754577,-0.171
1748367095543441280,-0.198
1748367095551127983,-0.195
1748367095558814686,-0.181
1748367095566501389,-0.178
1748367095574188092,-0.176
1748367095581874795,-0.169
1748367095589561498,-0.166
1748367095597248201,-0.178
1748367095604934968,-0.218
1748367095612621253,-0.296
1748367095620307538,-0.291
1748367095627993823,0.127
1748367095635680108,0.977
1748367095643366393,1.7530000000000001
1748367095651052678,1.719
1748367095658738963,0.462
1748367095666425248,-0.742
1748367095674111533,-0.546
1748367095681797818,-0.061
1748367095689484103,-0.22
1748367095697170388,-0.298
1748367095704856673,-0.156
1748367095712542958,-0.171
1748367095720229243,-0.20500000000000002
1748367095727915528,-0.137
1748367095735601813,-0.107
1748367095743288098,-0.11
1748367095750974383,-0.08
1748367095758660668,-0.048
1748367095766346953,-0.029
1748367095774033238,0.0
1748367095781719523,0.031
1748367095789405808,0.053
1748367095797092093,0.078
1748367095804778378,0.11
1748367095812464663,0.124
1748367095820150948,0.132
1748367095827837233,0.139
1748367095835523518,0.127
1748367095843209803,0.10200000000000001
1748367095850896088,0.078
1748367095858582373,0.041
1748367095866268658,0.012
1748367095873954943,-0.022
1748367095881641228,-0.08
1748367095889327513,-0.154
1748367095897013798,-0.215
1748367095904700083,-0.269
1748367095912386368,-0.328
1748367095920072653,-0.374
1748367095927758938,-0.374
1748367095935445223,-0.369
1748367095943131508,-0.379
1748367095950817793,-0.369
1748367095958504078,-0.36
1748367095966190363,-0.372
1748367095973876648,-0.362
1748367095981562933,-0.32
1748367095989249218,-0.291
1748367095996935503,-0.301
1748367096004621788,-0.33
1748367096012308073,-0.328
1748367096019994358,-0.32
1748367096027680643,-0.303
1748367096035366928,-0.259
1748367096043053213,-0.289
1748367096050739498,-0.333
1748367096058425783,-0.301
1748367096066112068,-0.289
1748367096073798353,-0.293
1748367096081484638,-0.269
1748367096089170923,-0.271
1748367096096857208,-0.281
1748367096104543493,-0.274
1748367096112229778,-0.291
1748367096119916063,-0.311
1748367096127602348,-0.28400000000000003
1748367096135288633,-0.249
1748367096142974918,-0.23
1748367096150661203,-0.218
1748367096158347488,-0.21
1748367096166033829,-0.21,96,618
1748367096173720532,-0.23700000000000002
1748367096181407235,-0.274
1748367096189093938,-0.279
1748367096196780641,-0.281
1748367096204467344,-0.28600000000000003
1748367096212154047,-0.279
1748367096219840750,-0.271
1748367096227527453,-0.267
1748367096235214156,-0.252
1748367096242900859,-0.259
1748367096250587562,-0.306
1748367096258274265,-0.372
1748367096265960968,-0.369
1748367096273647671,-0.034
1748367096281334374,0.722
1748367096289021077,1.516
1748367096296707780,1.67
1748367096304394483,0.592
1748367096312081186,-0.742
1748367096319767889,-0.725
1748367096327454592,-0.203
1748367096335141295,-0.303
1748367096342827998,-0.382
1748367096350514701,-0.225
1748367096358201404,-0.225
1748367096365888107,-0.257
1748367096373574810,-0.198
1748367096381261513,-0.171
1748367096388948216,-0.169
1748367096396634919,-0.129
1748367096404321622,-0.09
1748367096412008325,-0.066
1748367096419695028,-0.029
1748367096427381731,0.009000000000000001
1748367096435068434,0.044
1748367096442755137,0.085
1748367096450441840,0.115
1748367096458128543,0.137
1748367096465815246,0.166
1748367096473501949,0.181
1748367096481188652,0.171
1748367096488875355,0.149
1748367096496562058,0.122
1748367096504248761,0.10200000000000001
1748367096511935464,0.085
1748367096519622167,0.053
1748367096527308870,-0.002
1748367096534995573,-0.063
1748367096542682276,-0.122
1748367096550368979,-0.183
1748367096558055682,-0.244
1748367096565742385,-0.28600000000000003
1748367096573429088,-0.306
1748367096581115791,-0.311
1748367096588802494,-0.311
1748367096596489197,-0.301
1748367096604175900,-0.279
1748367096611862603,-0.269
1748367096619549306,-0.264
1748367096627236009,-0.244
1748367096634922712,-0.222
1748367096642609415,-0.213
1748367096650296118,-0.20800000000000002
1748367096657982821,-0.20500000000000002
1748367096665669524,-0.215
1748367096673356227,-0.215
1748367096681042930,-0.2
1748367096688729633,-0.203
1748367096696416336,-0.213
1748367096704103039,-0.213
1748367096711789742,-0.21
1748367096719476445,-0.20500000000000002
1748367096727163208,-0.20500000000000002
1748367096734849772,-0.215
1748367096742536336,-0.22
1748367096750222900,-0.20800000000000002
1748367096757909464,-0.186
1748367096765596028,-0.171
1748367096773282592,-0.166
1748367096780969156,-0.154
1748367096788655720,-0.137
1748367096796342284,-0.154
1748367096804028848,-0.195
1748367096811715412,-0.21
1748367096819401976,-0.198
1748367096827088540,-0.193
1748367096834775104,-0.191
1748367096842461668,-0.186
1748367096850148232,-0.178
1748367096857834796,-0.169
1748367096865521360,-0.171
1748367096873207924,-0.2
1748367096880894488,-0.269
1748367096888581052,-0.318
1748367096896267616,-0.036000000000000004
1748367096903954180,0.754
1748367096911640744,1.582
1748367096919327308,1.729
1748367096927013872,0.771
1748367096934700436,-0.514
1748367096942387000,-0.678
1748367096950073564,-0.183
1748367096957760128,-0.166
1748367096965446692,-0.264
1748367096973133256,-0.156
1748367096980819820,-0.124
1748367096988506384,-0.149
1748367096996192948,-0.107
1748367097003879512,-0.083
1748367097011566076,-0.078
1748367097019252640,-0.039
1748367097026939204,0.002
1748367097034625768,0.017
1748367097042312332,0.039
1748367097049998896,0.088
1748367097057685460,0.124
1748367097065372024,0.149
1748367097073058588,0.191
1748367097080745152,0.23
1748367097088431716,0.249
1748367097096118280,0.252
1748367097103804844,0.242
1748367097111491408,0.227
1748367097119177972,0.203
1748367097126864536,0.176
1748367097134551100,0.14200000000000002
1748367097142237664,0.093
1748367097149924228,0.029
1748367097157610792,-0.039
1748367097165297356,-0.112
1748367097172983920,-0.178
1748367097180670484,-0.227
1748367097188357048,-0.269
1748367097196043612,-0.291
1748367097203730176,-0.28600000000000003
1748367097211416740,-0.281
1748367097219103304,-0.281
1748367097226789868,-0.271
1748367097234476432,-0.257
1748367097242162996,-0.242
1748367097249849560,-0.23
1748367097257536124,-0.215
1748367097265222688,-0.2
1748367097272909252,-0.193
1748367097280595816,-0.178
1748367097288282417,-0.166,97,625
1748367097295968842,-0.161,,632
1748367097303655267,-0.156
1748367097311341692,-0.149
1748367097319028117,-0.14400000000000002
1748367097326714542,-0.139
1748367097334400967,-0.137
1748367097342087392,-0.129
1748367097349773817,-0.127
1748367097357460242,-0.137
1748367097365146667,-0.137
1748367097372833092,-0.122
1748367097380519517,-0.10200000000000001
1748367097388205942,-0.093
1748367097395892367,-0.08
1748367097403578792,-0.063
1748367097411265217,-0.058
1748367097418951642,-0.088
1748367097426638067,-0.117
1748367097434324492,-0.117
1748367097442010917,-0.10200000000000001
1748367097449697342,-0.097
1748367097457383767,-0.095
1748367097465070192,-0.093
1748367097472756617,-0.088
1748367097480443042,-0.095
1748367097488129467,-0.127
1748367097495815892,-0.198
1748367097503502317,-0.24
1748367097511188742,0.075
1748367097518875167,0.874
1748367097526561592,1.619
1748367097534248017,1.709
1748367097541934442,0.805
1748367097549620867,-0.421
1748367097557307292,-0.582
1748367097564993717,-0.085
1748367097572680142,-0.08
1748367097580366567,-0.21
1748367097588052992,-0.1
1748367097595739417,-0.063
1748367097603425842,-0.11
1748367097611112267,-0.07100000000000001
1748367097618798692,-0.026000000000000002
1748367097626485117,-0.026000000000000002
1748367097634171542,-0.009000000000000001
1748367097641857967,0.024
1748367097649544392,0.041
1748367097657230817,0.061
1748367097664917242,0.093
1748367097672603667,0.12
1748367097680290092,0.146
1748367097687976517,0.178
1748367097695662942,0.198
1748367097703349367,0.213
1748367097711035792,0.22
1748367097718722217,0.215
1748367097726408642,0.2
1748367097734095067,0.181
1748367097741781492,0.156
1748367097749467917,0.127
1748367097757154342,0.088
1748367097764840767,0.031
1748367097772527192,-0.039
1748367097780213617,-0.105
1748367097787900042,-0.166
1748367097795586467,-0.215
1748367097803272892,-0.247
1748367097810959317,-0.264
1748367097818645742,-0.264
1748367097826332167,-0.259
1748367097834018592,-0.254
1748367097841705017,-0.244
1748367097849391448,-0.23
1748367097857078151,-0.218
1748367097864764854,-0.20800000000000002
1748367097872451557,-0.198
1748367097880138260,-0.193
1748367097887824963,-0.188
1748367097895511666,-0.183
1748367097903198369,-0.181
1748367097910885072,-0.181
1748367097918571775,-0.176
1748367097926258478,-0.176
1748367097933945181,-0.178
1748367097941631884,-0.176
1748367097949318587,-0.17300000000000001
1748367097957005290,-0.17300000000000001
1748367097964691993,-0.178
1748367097972378696,-0.183
1748367097980065399,-0.183
1748367097987752102,-0.178
1748367097995438805,-0.164
1748367098003125508,-0.151
1748367098010812211,-0.14200000000000002
1748367098018498914,-0.129
1748367098026185617,-0.117
1748367098033872320,-0.12
1748367098041559023,-0.151
1748367098049245726,-0.178
1748367098056932429,-0.171
1748367098064619132,-0.159
1748367098072305835,-0.159
1748367098079992538,-0.154
1748367098087679241,-0.146
1748367098095365944,-0.149
1748367098103052647,-0.164
1748367098110739350,-0.213
1748367098118426053,-0.298
1748367098126112756,-0.23700000000000002
1748367098133799459,0.303
1748367098141486162,1.214
1748367098149172865,1.903
1748367098156859568,1.641
1748367098164546271,0.259
1748367098172232974,-0.756
1748367098179919677,-0.418
1748367098187606380,-0.046
1748367098195293083,-0.252
1748367098202979786,-0.279
1748367098210666489,-0.139
1748367098218353192,-0.171
1748367098226039895,-0.193
1748367098233726598,-0.127
1748367098241413301,-0.107
1748367098249100004,-0.105
1748367098256786707,-0.066
1748367098264473410,-0.034
1748367098272160113,-0.014
1748367098279846816,0.014
1748367098287533519,0.051000000000000004
1748367098295220222,0.083
1748367098302906925,0.115
1748367098310593628,0.14400000000000002
1748367098318280331,0.171
1748367098325967034,0.191
1748367098333653737,0.195
1748367098341340440,0.186
1748367098349027143,0.169
1748367098356713846,0.154
1748367098364400549,0.132
1748367098372087252,0.095
1748367098379773955,0.039
1748367098387460658,-0.026000000000000002
1748367098395147361,-0.1
1748367098402834064,-0.17300000000000001
1748367098410520827,-0.23500000000000001,96,646
1748367098418207530,-0.281,,623
1748367098425894233,-0.308
1748367098433580936,-0.318
1748367098441267639,-0.315
1748367098448954342,-0.308
1748367098456641045,-0.296
1748367098464327748,-0.28400000000000003
1748367098472014451,-0.271
1748367098479701154,-0.257
1748367098487387857,-0.247
1748367098495074560,-0.23700000000000002
1748367098502761263,-0.23
1748367098510447966,-0.222
1748367098518134669,-0.222
1748367098525821372,-0.22
1748367098533508075,-0.218
1748367098541194778,-0.218
1748367098548881481,-0.215
1748367098556568184,-0.215
1748367098564254887,-0.215
1748367098571941590,-0.215
1748367098579628293,-0.213
1748367098587314996,-0.21
1748367098595001699,-0.20800000000000002
1748367098602688402,-0.20800000000000002
1748367098610375105,-0.21
1748367098618061808,-0.213
1748367098625748511,-0.203
1748367098633435214,-0.178
1748367098641121917,-0.161
1748367098648808620,-0.151
1748367098656495323,-0.14200000000000002
1748367098664182026,-0.132
1748367098671868729,-0.14400000000000002
1748367098679555432,-0.178
1748367098687242135,-0.198
1748367098694928838,-0.188
1748367098702615541,-0.176
1748367098710302244,-0.17300000000000001
1748367098717988947,-0.171
1748367098725675650,-0.166
1748367098733362353,-0.171
1748367098741049056,-0.186
1748367098748735759,-0.23700000000000002
1748367098756422462,-0.311
1748367098764109165,-0.181
1748367098771795868,0.44
1748367098779482571,1.349
1748367098787169274,1.944
1748367098794855977,1.44
1748367098802542680,-0.075
1748367098810229383,-0.8200000000000001
1748367098817916086,-0.311
1748367098825602789,-0.08
1748367098833289492,-0.303
1748367098840976195,-0.252
1748367098848662898,-0.14400000000000002
1748367098856349601,-0.193
1748367098864036304,-0.183
1748367098871723007,-0.122
1748367098879409710,-0.115
1748367098887096413,-0.1
1748367098894783116,-0.056
1748367098902469819,-0.034
1748367098910156522,-0.017
1748367098917843225,0.014
1748367098925529928,0.053
1748367098933216631,0.09
1748367098940903334,0.12
1748367098948590037,0.149
1748367098956276740,0.178
1748367098963963443,0.193
1748367098971650210,0.188,96,614
1748367098979336495,0.178
1748367098987022780,0.17300000000000001
1748367098994709065,0.154
1748367099002395350,0.129
1748367099010081635,0.1
1748367099017767920,0.051000000000000004
1748367099025454205,-0.024
1748367099033140490,-0.105
1748367099040826775,-0.178
1748367099048513060,-0.23700000000000002
1748367099056199345,-0.28600000000000003
1748367099063885630,-0.311
1748367099071571915,-0.315
1748367099079258200,-0.313
1748367099086944485,-0.301
1748367099094630770,-0.28600000000000003
1748367099102317055,-0.281
1748367099110003340,-0.267
1748367099117689625,-0.249
1748367099125375910,-0.244
1748367099133062195,-0.242
1748367099140748480,-0.23
1748367099148434765,-0.222
1748367099156121050,-0.22
1748367099163807335,-0.218
1748367099171493620,-0.213
1748367099179179905,-0.20800000000000002
1748367099186866190,-0.21
1748367099194552475,-0.218
1748367099202238760,-0.218
1748367099209925045,-0.21
1748367099217611330,-0.21
1748367099225297615,-0.20800000000000002
1748367099232983900,-0.203
1748367099240670185,-0.203
1748367099248356470,-0.198
1748367099256042755,-0.195
1748367099263729040,-0.20500000000000002
1748367099271415325,-0.198
1748367099279101610,-0.166
1748367099286787895,-0.14400000000000002
1748367099294474180,-0.134
1748367099302160465,-0.129
1748367099309846750,-0.14400000000000002
1748367099317533035,-0.169
1748367099325219320,-0.183
1748367099332905605,-0.186
1748367099340591890,-0.188
1748367099348278175,-0.178
1748367099355964460,-0.166
1748367099363650745,-0.164
1748367099371337030,-0.169
1748367099379023315,-0.17300000000000001
1748367099386709600,-0.198
1748367099394395885,-0.264
1748367099402082170,-0.296
1748367099409768455,0.014
1748367099417454740,0.776
1748367099425141025,1.545
1748367099432827310,1.665
1748367099440513595,0.654
1748367099448199880,-0.612
1748367099455886165,-0.619
1748367099463572450,-0.088
1748367099471258735,-0.166
1748367099478945020,-0.28400000000000003
1748367099486631305,-0.149
1748367099494317590,-0.132
1748367099502003875,-0.178
1748367099509690160,-0.122
1748367099517376445,-0.08
1748367099525062730,-0.088
1748367099532749071,-0.058
1748367099540435774,-0.024
1748367099548122477,-0.007
1748367099555809180,0.024
1748367099563495883,0.058
1748367099571182586,0.08
1748367099578869289,0.112
1748367099586555992,0.151
1748367099594242695,0.178
1748367099601929398,0.195
1748367099609616101,0.2
1748367099617302804,0.198
1748367099624989507,0.178
1748367099632676210,0.159
1748367099640362913,0.139
1748367099648049616,0.107
1748367099655736319,0.063
1748367099663423022,0.007
1748367099671109725,-0.058
1748367099678796428,-0.132
1748367099686483131,-0.2
1748367099694169834,-0.249
1748367099701856537,-0.28600000000000003
1748367099709543240,-0.308
1748367099717229943,-0.313
1748367099724916646,-0.308
1748367099732603349,-0.296
1748367099740290052,-0.28600000000000003
1748367099747976755,-0.276
1748367099755663458,-0.262
1748367099763350161,-0.244
1748367099771036864,-0.23700000000000002
1748367099778723567,-0.23500000000000001
1748367099786410270,-0.225
1748367099794096973,-0.22
1748367099801783676,-0.218
1748367099809470379,-0.22
1748367099817157082,-0.215
1748367099824843785,-0.21
1748367099832530488,-0.213
1748367099840217191,-0.213
1748367099847903894,-0.21
1748367099855590597,-0.213
1748367099863277300,-0.20800000000000002
1748367099870964003,-0.2
1748367099878650706,-0.203
1748367099886337409,-0.20800000000000002
1748367099894024112,-0.20800000000000002
1748367099901710815,-0.198
1748367099909397518,-0.183
1748367099917084221,-0.166
1748367099924770924,-0.154
1748367099932457627,-0.14200000000000002
1748367099940144330,-0.137
1748367099947831033,-0.149
1748367099955517736,-0.178
1748367099963204439,-0.198
1748367099970891142,-0.186
1748367099978577845,-0.171
1748367099986264548,-0.171
1748367099993951251,-0.166
1748367100001637954,-0.156
1748367100009324657,-0.161
1748367100017011360,-0.176
1748367100024698063,-0.215
1748367100032384766,-0.293
1748367100040071469,-0.227
1748367100047758172,0.296
1748367100055444875,1.129
1748367100063131578,1.699
1748367100070818281,1.369
1748367100078504984,0.061
1748367100086191687,-0.786
1748367100093878450,-0.382,96,620
1748367100101564735,-0.051000000000000004,,637
1748367100109251020,-0.242
1748367100116937305,-0.23500000000000001
1748367100124623590,-0.115
1748367100132309875,-0.156
1748367100139996160,-0.169
1748367100147682445,-0.105
1748367100155368730,-0.088
1748367100163055015,-0.085
1748367100170741300,-0.053
1748367100178427585,-0.024
1748367100186113870,-0.004
1748367100193800155,0.024
1748367100201486440,0.058
1748367100209172725,0.09
1748367100216859010,0.117
1748367100224545295,0.14400000000000002
1748367100232231580,0.169
1748367100239917865,0.181
1748367100247604150,0.183
1748367100255290435,0.171
1748367100262976720,0.154
1748367100270663005,0.134
1748367100278349290,0.11
1748367100286035575,0.078
1748367100293721860,0.026000000000000002
1748367100301408145,-0.034
1748367100309094430,-0.1
1748367100316780715,-0.166
1748367100324467000,-0.227
1748367100332153285,-0.271
1748367100339839570,-0.293
1748367100347525855,-0.303
1748367100355212140,-0.303
1748367100362898425,-0.298
1748367100370584710,-0.28600000000000003
1748367100378270995,-0.274
1748367100385957280,-0.262
1748367100393643565,-0.249
1748367100401329850,-0.23500000000000001
1748367100409016135,-0.227
1748367100416702420,-0.225
1748367100424388705,-0.22
1748367100432074990,-0.215
1748367100439761275,-0.213
1748367100447447560,-0.213
1748367100455133845,-0.213
1748367100462820130,-0.21
1748367100470506415,-0.21
1748367100478192700,-0.21
1748367100485878985,-0.213
1748367100493565270,-0.213
1748367100501251555,-0.20800000000000002
1748367100508937840,-0.203
1748367100516624125,-0.203
1748367100524310410,-0.20500000000000002
1748367100531996695,-0.21
1748367100539682980,-0.2
1748367100547369265,-0.183
1748367100555055550,-0.164
1748367100562741835,-0.151
1748367100570428120,-0.14200000000000002
1748367100578114405,-0.137
1748367100585800690,-0.146
1748367100593486975,-0.17300000000000001
1748367100601173260,-0.195
1748367100608859545,-0.188
1748367100616545830,-0.181
1748367100624232115,-0.178
1748367100631918400,-0.17300000000000001
1748367100639604685,-0.169
1748367100647290970,-0.169
1748367100654977311,-0.181
1748367100662664014,-0.218
1748367100670350717,-0.289
1748367100678037420,-0.23700000000000002
1748367100685724123,0.23500000000000001
1748367100693410826,1.06
1748367100701097529,1.722
1748367100708784232,1.526
1748367100716470935,0.227
1748367100724157638,-0.776
1748367100731844341,-0.44
1748367100739531044,-0.044
1748367100747217747,-0.247
1748367100754904450,-0.281
1748367100762591153,-0.14200000000000002
1748367100770277856,-0.166
1748367100777964559,-0.188
1748367100785651262,-0.124
1748367100793337965,-0.105
1748367100801024668,-0.10200000000000001
1748367100808711371,-0.063
1748367100816398074,-0.034
1748367100824084777,-0.017
1748367100831771480,0.009000000000000001
1748367100839458183,0.041
1748367100847144886,0.07100000000000001
1748367100854831589,0.1
1748367100862518292,0.132
1748367100870204995,0.154
1748367100877891698,0.166
1748367100885578401,0.17300000000000001
1748367100893265104,0.169
1748367100900951807,0.154
1748367100908638510,0.132
1748367100916325213,0.11
1748367100924011916,0.08
1748367100931698619,0.036000000000000004
1748367100939385322,-0.026000000000000002
1748367100947072025,-0.097
1748367100954758728,-0.164
1748367100962445431,-0.227
1748367100970132134,-0.279
1748367100977818837,-0.306
1748367100985505540,-0.315
1748367100993192243,-0.318
1748367101000878946,-0.313
1748367101008565649,-0.298
1748367101016252352,-0.28400000000000003
1748367101023939055,-0.271
1748367101031625758,-0.259
1748367101039312461,-0.249
1748367101046999164,-0.242
1748367101054685867,-0.232
1748367101062372570,-0.227
1748367101070059273,-0.225
1748367101077745976,-0.222
1748367101085432679,-0.22
1748367101093119382,-0.22
1748367101100806085,-0.22
1748367101108492788,-0.22
1748367101116179491,-0.218
1748367101123866194,-0.218
1748367101131552897,-0.218
1748367101139239600,-0.21
1748367101146926303,-0.203
1748367101154613006,-0.20500000000000002
1748367101162299709,-0.213
1748367101169986412,-0.21
1748367101177673115,-0.2
1748367101185359818,-0.178
1748367101193046521,-0.156
1748367101200733224,-0.14400000000000002
1748367101208419927,-0.137
1748367101216106690,-0.132,96,642
1748367101223793393,-0.146
1748367101231480096,-0.186
1748367101239166799,-0.198
1748367101246853502,-0.183
1748367101254540205,-0.178
1748367101262226908,-0.181
1748367101269913611,-0.17300000000000001
1748367101277600314,-0.164
1748367101285287017,-0.166
1748367101292973720,-0.186
1748367101300660423,-0.227
1748367101308347126,-0.298
1748367101316033829,-0.21
1748367101323720532,0.34
1748367101331407235,1.21
1748367101339093938,1.832
1748367101346780641,1.474
1748367101354467344,0.056
1748367101362154047,-0.803
1748367101369840750,-0.36
1748367101377527453,-0.051000000000000004
1748367101385214156,-0.274
1748367101392900859,-0.262
1748367101400587562,-0.134
1748367101408274265,-0.178
1748367101415960968,-0.186
1748367101423647671,-0.124
1748367101431334374,-0.11
1748367101439021077,-0.10200000000000001
1748367101446707780,-0.066
1748367101454394483,-0.036000000000000004
1748367101462081186,-0.014
1748367101469767889,0.014
1748367101477454592,0.044
1748367101485141295,0.07100000000000001
1748367101492827998,0.107
1748367101500514701,0.139
1748367101508201404,0.159
1748367101515888107,0.171
1748367101523574810,0.17300000000000001
1748367101531261513,0.161
1748367101538948216,0.146
1748367101546634919,0.129
1748367101554321622,0.105
1748367101562008325,0.07100000000000001
1748367101569695028,0.029
1748367101577381731,-0.031
1748367101585068434,-0.10200000000000001
1748367101592755137,-0.171
1748367101600441840,-0.23500000000000001
1748367101608128543,-0.281
1748367101615815246,-0.303
1748367101623501949,-0.313
1748367101631188652,-0.318
1748367101638875355,-0.308
1748367101646562058,-0.291
1748367101654248761,-0.281
1748367101661935464,-0.271
1748367101669622167,-0.257
1748367101677308870,-0.244
1748367101684995573,-0.23500000000000001
1748367101692682276,-0.232
1748367101700368979,-0.227
1748367101708055682,-0.225
1748367101715742385,-0.222
1748367101723429088,-0.222
1748367101731115791,-0.222
1748367101738802494,-0.218
1748367101746489197,-0.213
1748367101754175900,-0.213
1748367101761862603,-0.213
1748367101769549306,-0.213
1748367101777236069,-0.213
1748367101784922772,-0.21
1748367101792609475,-0.20500000000000002
1748367101800296178,-0.2
1748367101807982881,-0.198
1748367101815669584,-0.198
1748367101823356287,-0.188
1748367101831042990,-0.166
1748367101838729693,-0.146
1748367101846416396,-0.137
1748367101854103099,-0.132
1748367101861789802,-0.129
1748367101869476505,-0.149
1748367101877163208,-0.188
1748367101884849911,-0.203
1748367101892536614,-0.193
1748367101900223317,-0.181
1748367101907910020,-0.17300000000000001
1748367101915596723,-0.171
1748367101923283426,-0.171
1748367101930970129,-0.171
1748367101938656832,-0.183
1748367101946343535,-0.218
1748367101954030238,-0.28400000000000003
1748367101961716941,-0.242
1748367101969403644,0.203
1748367101977090347,1.0210000000000001
1748367101984777050,1.731
1748367101992463753,1.597
1748367102000150456,0.293
1748367102007837159,-0.781
1748367102015523862,-0.47200000000000003
1748367102023210565,-0.041
1748367102030897268,-0.23
1748367102038583971,-0.274
1748367102046270674,-0.134
1748367102053957377,-0.164
1748367102061644080,-0.186
1748367102069330783,-0.115
1748367102077017486,-0.1
1748367102084704189,-0.1
1748367102092390892,-0.051000000000000004
1748367102100077595,-0.024
1748367102107764298,-0.017
1748367102115451001,0.017
1748367102123137704,0.058
1748367102130824407,0.083
1748367102138511110,0.10200000000000001
1748367102146197813,0.132
1748367102153884516,0.161
1748367102161571219,0.176
1748367102169257922,0.181
1748367102176944625,0.176
1748367102184631328,0.161
1748367102192318031,0.14200000000000002
1748367102200004734,0.117
1748367102207691437,0.09
1748367102215378140,0.051000000000000004
1748367102223064843,-0.007
1748367102230751546,-0.068
1748367102238438249,-0.132
1748367102246124952,-0.2
1748367102253811655,-0.254
1748367102261498358,-0.289
1748367102269185061,-0.303
1748367102276871764,-0.301
1748367102284558467,-0.301
1748367102292245170,-0.296
1748367102299931873,-0.279
1748367102307618576,-0.259
1748367102315305279,-0.247
1748367102322991982,-0.23700000000000002
1748367102330678685,-0.227
1748367102338365452,-0.218,95,635
1748367102346051737,-0.218,,639
1748367102353738022,-0.218
1748367102361424307,-0.215
1748367102369110592,-0.218
1748367102376796877,-0.215
1748367102384483162,-0.21
1748367102392169447,-0.20800000000000002
1748367102399855732,-0.203
1748367102407542017,-0.193
1748367102415228302,-0.198
1748367102422914587,-0.215
1748367102430600872,-0.203
1748367102438287157,-0.186
1748367102445973442,-0.198
1748367102453659727,-0.20500000000000002
1748367102461346012,-0.186
1748367102469032297,-0.171
1748367102476718582,-0.156
1748367102484404867,-0.139
1748367102492091152,-0.134
1748367102499777437,-0.134
1748367102507463722,-0.14400000000000002
1748367102515150007,-0.178
1748367102522836292,-0.2
1748367102530522577,-0.193
1748367102538208862,-0.178
1748367102545895147,-0.17300000000000001
1748367102553581432,-0.17300000000000001
1748367102561267717,-0.166
1748367102568954002,-0.164
1748367102576640287,-0.176
1748367102584326572,-0.21
1748367102592012857,-0.281
1748367102599699142,-0.274
1748367102607385427,0.124
1748367102615071712,0.908
1748367102622757997,1.575
1748367102630444282,1.479
1748367102638130567,0.315
1748367102645816852,-0.734
1748367102653503137,-0.494
1748367102661189422,-0.056
1748367102668875707,-0.20800000000000002
1748367102676561992,-0.244
1748367102684248277,-0.11
1748367102691934562,-0.139
1748367102699620847,-0.164
1748367102707307132,-0.10200000000000001
1748367102714993417,-0.085
1748367102722679702,-0.085
1748367102730365987,-0.051000000000000004
1748367102738052272,-0.019
1748367102745738557,0.002
1748367102753424842,0.034
1748367102761111127,0.063
1748367102768797412,0.093
1748367102776483697,0.122
1748367102784169982,0.149
1748367102791856267,0.171
1748367102799542552,0.183
1748367102807228837,0.181
1748367102814915122,0.169
1748367102822601407,0.156
1748367102830287692,0.137
1748367102837973977,0.11
1748367102845660262,0.08
1748367102853346547,0.044
1748367102861032832,-0.019
1748367102868719117,-0.085
1748367102876405402,-0.139
1748367102884091687,-0.2
1748367102891777972,-0.254
1748367102899464313,-0.28400000000000003,95,637
1748367102907151016,-0.298
1748367102914837719,-0.301
1748367102922524422,-0.291
1748367102930211125,-0.28600000000000003
1748367102937897828,-0.276
1748367102945584531,-0.262
1748367102953271234,-0.249
1748367102960957937,-0.247
1748367102968644640,-0.24
1748367102976331343,-0.23
1748367102984018046,-0.22
1748367102991704749,-0.215
1748367102999391452,-0.215
1748367103007078155,-0.215
1748367103014764858,-0.215
1748367103022451561,-0.21
1748367103030138264,-0.20500000000000002
1748367103037824967,-0.20800000000000002
1748367103045511670,-0.21
1748367103053198373,-0.21
1748367103060885076,-0.20500000000000002
1748367103068571779,-0.198
1748367103076258482,-0.20500000000000002
1748367103083945185,-0.213
1748367103091631888,-0.20800000000000002
1748367103099318591,-0.2
1748367103107005294,-0.186
1748367103114691997,-0.161
1748367103122378700,-0.149
1748367103130065403,-0.14200000000000002
1748367103137752106,-0.129
1748367103145438809,-0.14400000000000002
1748367103153125512,-0.183
1748367103160812215,-0.195
1748367103168498918,-0.183
1748367103176185621,-0.183
1748367103183872324,-0.181
1748367103191559027,-0.166
1748367103199245730,-0.161
1748367103206932433,-0.169
1748367103214619136,-0.178
1748367103222305839,-0.213
1748367103229992542,-0.289
1748367103237679245,-0.23
1748367103245365948,0.259
1748367103253052651,1.055
1748367103260739354,1.6280000000000001
1748367103268426057,1.352
1748367103276112760,0.083
1748367103283799463,-0.774
1748367103291486166,-0.379
1748367103299172869,-0.044
1748367103306859572,-0.24
1748367103314546275,-0.232
1748367103322232978,-0.11
1748367103329919681,-0.151
1748367103337606384,-0.166
1748367103345293087,-0.10200000000000001
1748367103352979790,-0.085
1748367103360666493,-0.08
1748367103368353196,-0.046
1748367103376039899,-0.022
1748367103383726602,0.0
1748367103391413305,0.029
1748367103399100008,0.056
1748367103406786711,0.08
1748367103414473414,0.107
1748367103422160117,0.134
1748367103429846820,0.156
1748367103437533523,0.166
1748367103445220226,0.166
1748367103452906929,0.154
1748367103460593692,0.134
1748367103468280256,0.112
1748367103475966820,0.09
1748367103483653384,0.063
1748367103491339948,0.024
1748367103499026512,-0.031
1748367103506713076,-0.095
1748367103514399640,-0.159
1748367103522086204,-0.218
1748367103529772768,-0.262
1748367103537459332,-0.28600000000000003
1748367103545145896,-0.296
1748367103552832460,-0.301
1748367103560519024,-0.291
1748367103568205588,-0.279
1748367103575892152,-0.267
1748367103583578716,-0.252
1748367103591265280,-0.24
1748367103598951844,-0.232
1748367103606638408,-0.227
1748367103614324972,-0.22
1748367103622011536,-0.215
1748367103629698100,-0.21
1748367103637384664,-0.20800000000000002
1748367103645071228,-0.20800000000000002
1748367103652757792,-0.20800000000000002
1748367103660444356,-0.20800000000000002
1748367103668130920,-0.20500000000000002
1748367103675817484,-0.203
1748367103683504048,-0.203
1748367103691190612,-0.203
1748367103698877176,-0.2
1748367103706563740,-0.198
1748367103714250304,-0.195
1748367103721936868,-0.195
1748367103729623432,-0.195
1748367103737309996,-0.198
1748367103744996560,-0.195
1748367103752683124,-0.181
1748367103760369688,-0.156
1748367103768056252,-0.139
1748367103775742816,-0.132
1748367103783429380,-0.127
1748367103791115944,-0.134
1748367103798802508,-0.164
1748367103806489072,-0.193
1748367103814175636,-0.188
1748367103821862200,-0.17300000000000001
1748367103829548764,-0.17300000000000001
1748367103837235328,-0.171
1748367103844921892,-0.161
1748367103852608456,-0.159
1748367103860295020,-0.171
1748367103867981584,-0.191
1748367103875668148,-0.244
1748367103883354712,-0.279
1748367103891041276,-0.026000000000000002
1748367103898727840,0.673
1748367103906414404,1.467
1748367103914100968,1.731
1748367103921787532,0.854
1748367103929474096,-0.504
1748367103937160660,-0.685
1748367103944847224,-0.115
1748367103952533788,-0.127
1748367103960220352,-0.301
1748367103967906916,-0.176
1748367103975593480,-0.132
1748367103983280044,-0.186
1748367103990966608,-0.14400000000000002
1748367103998653172,-0.1
1748367104006339736,-0.10200000000000001
1748367104014026300,-0.083
1748367104021712901,-0.044,95,647
1748367104029399326,-0.024,,639
1748367104037085751,-0.004
1748367104044772176,0.024
1748367104052458601,0.051000000000000004
1748367104060145026,0.078
1748367104067831451,0.107
1748367104075517876,0.129
1748367104083204301,0.146
1748367104090890726,0.151
1748367104098577151,0.149
1748367104106263576,0.137
1748367104113950001,0.117
1748367104121636426,0.095
1748367104129322851,0.07100000000000001
1748367104137009276,0.041
1748367104144695701,-0.004
1748367104152382126,-0.066
1748367104160068551,-0.132
1748367104167754976,-0.193
1748367104175441401,-0.244
1748367104183127826,-0.281
1748367104190814251,-0.303
1748367104198500676,-0.308
1748367104206187101,-0.303
1748367104213873526,-0.293
1748367104221559951,-0.28400000000000003
1748367104229246376,-0.271
1748367104236932801,-0.259
1748367104244619226,-0.247
1748367104252305651,-0.24
1748367104259992076,-0.23500000000000001
1748367104267678501,-0.23
1748367104275364926,-0.222
1748367104283051351,-0.22
1748367104290737776,-0.22
1748367104298424201,-0.215
1748367104306110626,-0.213
1748367104313797051,-0.213
1748367104321483476,-0.213
1748367104329169901,-0.213
1748367104336856326,-0.213
1748367104344542751,-0.20800000000000002
1748367104352229176,-0.203
1748367104359915601,-0.2
1748367104367602026,-0.203
1748367104375288451,-0.20500000000000002
1748367104382974876,-0.203
1748367104390661301,-0.195
1748367104398347726,-0.176
1748367104406034151,-0.156
1748367104413720576,-0.14400000000000002
1748367104421407001,-0.137
1748367104429093426,-0.132
1748367104436779851,-0.149
1748367104444466276,-0.186
1748367104452152701,-0.198
1748367104459839126,-0.183
1748367104467525551,-0.178
1748367104475211976,-0.178
1748367104482898401,-0.17300000000000001
1748367104490584826,-0.169
1748367104498271251,-0.169
1748367104505957676,-0.181
1748367104513644101,-0.222
1748367104521330526,-0.296
1748367104529016951,-0.227
1748367104536703376,0.28600000000000003
1748367104544389801,1.1360000000000001
1748367104552076226,1.7750000000000001
1748367104559762651,1.479
1748367104567449076,0.112
1748367104575135501,-0.793
1748367104582821932,-0.382
1748367104590508635,-0.044
1748367104598195338,-0.259
1748367104605882041,-0.262
1748367104613568744,-0.137
1748367104621255447,-0.176
1748367104628942150,-0.186
1748367104636628853,-0.124
1748367104644315556,-0.11
1748367104652002259,-0.107
1748367104659688962,-0.068
1748367104667375665,-0.039
1748367104675062368,-0.022
1748367104682749071,0.007
1748367104690435774,0.036000000000000004
1748367104698122477,0.063
1748367104705809180,0.095
1748367104713495883,0.12
1748367104721182586,0.137
1748367104728869289,0.151
1748367104736555992,0.151
1748367104744242695,0.14200000000000002
1748367104751929398,0.124
1748367104759616101,0.105
1748367104767302804,0.083
1748367104774989507,0.056
1748367104782676210,0.017
1748367104790362913,-0.036000000000000004
1748367104798049616,-0.1
1748367104805736319,-0.164
1748367104813423022,-0.22
1748367104821109725,-0.267
1748367104828796428,-0.293
1748367104836483131,-0.306
1748367104844169834,-0.306
1748367104851856537,-0.303
1748367104859543240,-0.291
1748367104867229943,-0.276
1748367104874916646,-0.264
1748367104882603349,-0.257
1748367104890290052,-0.247
1748367104897976755,-0.23700000000000002
1748367104905663458,-0.23
1748367104913350161,-0.225
1748367104921036864,-0.222
1748367104928723567,-0.22
1748367104936410270,-0.218
1748367104944096973,-0.215
1748367104951783676,-0.215
1748367104959470379,-0.215
1748367104967157082,-0.215
1748367104974843785,-0.215
1748367104982530488,-0.215
1748367104990217191,-0.21
1748367104997903894,-0.20800000000000002
1748367105005590597,-0.20800000000000002
1748367105013277300,-0.213
1748367105020964003,-0.213
1748367105028650706,-0.195
1748367105036337409,-0.169
1748367105044024112,-0.154
1748367105051710815,-0.149
1748367105059397518,-0.139
1748367105067084221,-0.139
1748367105074770924,-0.166
1748367105082457627,-0.2
1748367105090144330,-0.20500000000000002
1748367105097831033,-0.191
1748367105105517736,-0.186
1748367105113204439,-0.183
1748367105120891142,-0.178
1748367105128577845,-0.176
1748367105136264548,-0.181
1748367105143951311,-0.198,94,637
1748367105151638014,-0.257
1748367105159324717,-0.32
1748367105167011420,-0.124
1748367105174698123,0.553
1748367105182384826,1.41
1748367105190071529,1.817
1748367105197758232,1.085
1748367105205444935,-0.364
1748367105213131638,-0.769
1748367105220818341,-0.193
1748367105228505044,-0.107
1748367105236191747,-0.308
1748367105243878450,-0.213
1748367105251565153,-0.14400000000000002
1748367105259251856,-0.2
1748367105266938559,-0.171
1748367105274625262,-0.115
1748367105282311965,-0.112
1748367105289998668,-0.095
1748367105297685371,-0.061
1748367105305372074,-0.041
1748367105313058777,-0.017
1748367105320745480,0.017
1748367105328432183,0.044
1748367105336118886,0.066
1748367105343805589,0.093
1748367105351492292,0.124
1748367105359178995,0.146
1748367105366865698,0.151
1748367105374552401,0.14200000000000002
1748367105382239104,0.129
1748367105389925807,0.115
1748367105397612510,0.09
1748367105405299213,0.068
1748367105412985916,0.039
1748367105420672619,0.0
1748367105428359322,-0.053
1748367105436046025,-0.12
1748367105443732728,-0.183
1748367105451419431,-0.232
1748367105459106134,-0.269
1748367105466792837,-0.296
1748367105474479540,-0.303
1748367105482166243,-0.301
1748367105489852946,-0.293
1748367105497539649,-0.281
1748367105505226352,-0.269
1748367105512913055,-0.262
1748367105520599758,-0.254
1748367105528286461,-0.244
1748367105535973164,-0.23
1748367105543659867,-0.218
1748367105551346570,-0.218
1748367105559033273,-0.22
1748367105566719976,-0.218
1748367105574406679,-0.22
1748367105582093382,-0.213
1748367105589780085,-0.203
1748367105597466788,-0.203
1748367105605153491,-0.20500000000000002
1748367105612840194,-0.20500000000000002
1748367105620526897,-0.198
1748367105628213600,-0.188
1748367105635900303,-0.191
1748367105643587006,-0.20800000000000002
1748367105651273709,-0.213
1748367105658960412,-0.191
1748367105666647115,-0.166
1748367105674333818,-0.159
1748367105682020521,-0.149
1748367105689707224,-0.132
1748367105697393927,-0.122
1748367105705080694,-0.132
1748367105712766979,-0.17300000000000001
1748367105720453264,-0.195
1748367105728139549,-0.181
1748367105735825834,-0.171
1748367105743512119,-0.171
1748367105751198404,-0.164
1748367105758884689,-0.156
1748367105766570974,-0.159
1748367105774257259,-0.17300000000000001
1748367105781943544,-0.20500000000000002
1748367105789629829,-0.274
1748367105797316114,-0.264
1748367105805002399,0.134
1748367105812688684,0.923
1748367105820374969,1.594
1748367105828061254,1.506
1748367105835747539,0.34700000000000003
1748367105843433824,-0.717
1748367105851120109,-0.494
1748367105858806394,-0.046
1748367105866492679,-0.188
1748367105874178964,-0.23500000000000001
1748367105881865249,-0.11
1748367105889551534,-0.139
1748367105897237819,-0.161
1748367105904924104,-0.095
1748367105912610389,-0.075
1748367105920296674,-0.075
1748367105927982959,-0.039
1748367105935669244,-0.007
1748367105943355529,0.009000000000000001
1748367105951041814,0.029
1748367105958728099,0.061
1748367105966414384,0.095
1748367105974100669,0.122
1748367105981786954,0.149
1748367105989473239,0.166
1748367105997159524,0.171
1748367106004845809,0.176
1748367106012532094,0.169
1748367106020218379,0.146
1748367106027904664,0.127
1748367106035590949,0.115
1748367106043277234,0.09
1748367106050963519,0.044
1748367106058649804,-0.012
1748367106066336089,-0.073
1748367106074022374,-0.137
1748367106081708659,-0.195
1748367106089394944,-0.244
1748367106097081229,-0.271
1748367106104767514,-0.274
1748367106112453799,-0.281
1748367106120140084,-0.28600000000000003
1748367106127826369,-0.274
1748367106135512654,-0.269
1748367106143198939,-0.259
1748367106150885224,-0.23500000000000001
1748367106158571509,-0.222
1748367106166257794,-0.22
1748367106173944079,-0.213
1748367106181630364,-0.20500000000000002
1748367106189316649,-0.20800000000000002
1748367106197002934,-0.20800000000000002
1748367106204689219,-0.203
1748367106212375504,-0.198
1748367106220061789,-0.195
1748367106227748074,-0.198
1748367106235434359,-0.198
1748367106243120644,-0.188
1748367106250806929,-0.183
1748367106258493214,-0.186
1748367106266179555,-0.198,94,649
1748367106273866258,-0.2,,642
1748367106281552961,-0.191
1748367106289239664,-0.186
1748367106296926367,-0.178
1748367106304613070,-0.164
1748367106312299773,-0.151
1748367106319986476,-0.14200000000000002
1748367106327673179,-0.124
1748367106335359882,-0.134
1748367106343046585,-0.169
1748367106350733288,-0.186
1748367106358419991,-0.178
1748367106366106694,-0.176
1748367106373793397,-0.176
1748367106381480100,-0.171
1748367106389166803,-0.161
1748367106396853506,-0.159
1748367106404540209,-0.176
1748367106412226912,-0.22
1748367106419913615,-0.293
1748367106427600318,-0.215
1748367106435287021,0.313
1748367106442973724,1.114
1748367106450660427,1.616
1748367106458347130,1.227
1748367106466033833,-0.048
1748367106473720536,-0.776
1748367106481407239,-0.33
1748367106489093942,-0.051000000000000004
1748367106496780645,-0.244
1748367106504467348,-0.215
1748367106512154051,-0.107
1748367106519840754,-0.151
1748367106527527457,-0.154
1748367106535214160,-0.095
1748367106542900863,-0.088
1748367106550587566,-0.08
1748367106558274269,-0.044
1748367106565960972,-0.019
1748367106573647675,-0.007
1748367106581334378,0.022
1748367106589021081,0.056
1748367106596707784,0.078
1748367106604394487,0.10200000000000001
1748367106612081190,0.127
1748367106619767893,0.14400000000000002
1748367106627454596,0.149
1748367106635141299,0.14400000000000002
1748367106642828002,0.132
1748367106650514705,0.112
1748367106658201408,0.088
1748367106665888111,0.061
1748367106673574814,0.031
1748367106681261517,-0.002
1748367106688948220,-0.051000000000000004
1748367106696634923,-0.11
1748367106704321626,-0.166
1748367106712008329,-0.218
1748367106719695032,-0.257
1748367106727381735,-0.279
1748367106735068438,-0.28600000000000003
1748367106742755141,-0.289
1748367106750441844,-0.28400000000000003
1748367106758128547,-0.271
1748367106765815250,-0.259
1748367106773501953,-0.252
1748367106781188656,-0.242
1748367106788875359,-0.23
1748367106796562062,-0.222
1748367106804248765,-0.22
1748367106811935468,-0.213
1748367106819622171,-0.20800000000000002
1748367106827308934,-0.20500000000000002
1748367106834995637,-0.20500000000000002
1748367106842682340,-0.203
1748367106850369043,-0.198
1748367106858055746,-0.198
1748367106865742449,-0.203
1748367106873429152,-0.2
1748367106881115855,-0.198
1748367106888802558,-0.198
1748367106896489261,-0.203
1748367106904175964,-0.20800000000000002
1748367106911862667,-0.20800000000000002
1748367106919549370,-0.198
1748367106927236073,-0.181
1748367106934922776,-0.171
1748367106942609479,-0.161
1748367106950296182,-0.149
1748367106957982885,-0.137
1748367106965669588,-0.151
1748367106973356291,-0.186
1748367106981042994,-0.2
1748367106988729697,-0.188
1748367106996416400,-0.181
1748367107004103103,-0.181
1748367107011789806,-0.178
1748367107019476509,-0.171
1748367107027163212,-0.176
1748367107034849915,-0.198
1748367107042536618,-0.257
1748367107050223321,-0.308
1748367107057910024,-0.088
1748367107065596727,0.592
1748367107073283430,1.3980000000000001
1748367107080970133,1.729
1748367107088656836,0.97
1748367107096343539,-0.406
1748367107104030242,-0.72
1748367107111716945,-0.149
1748367107119403648,-0.105
1748367107127090351,-0.306
1748367107134777054,-0.198
1748367107142463757,-0.134
1748367107150150460,-0.193
1748367107157837163,-0.161
1748367107165523866,-0.107
1748367107173210569,-0.105
1748367107180897272,-0.088
1748367107188583975,-0.053
1748367107196270678,-0.034
1748367107203957381,-0.012
1748367107211644084,0.017
1748367107219330787,0.044
1748367107227017490,0.068
1748367107234704193,0.095
1748367107242390896,0.12
1748367107250077599,0.132
1748367107257764302,0.137
1748367107265451005,0.134
1748367107273137708,0.12
1748367107280824411,0.1
1748367107288511114,0.08
1748367107296197817,0.056
1748367107303884520,0.024
1748367107311571223,-0.019
1748367107319257926,-0.075
1748367107326944629,-0.137
1748367107334631332,-0.195
1748367107342318035,-0.244
1748367107350004738,-0.279
1748367107357691441,-0.298
1748367107365378144,-0.306
1748367107373064847,-0.303
1748367107380751550,-0.293
1748367107388438313,-0.281,94,635
1748367107396124598,-0.269,,635
1748367107403810883,-0.259
1748367107411497168,-0.247
1748367107419183453,-0.23700000000000002
1748367107426869738,-0.23
1748367107434556023,-0.227
1748367107442242308,-0.222
1748367107449928593,-0.218
1748367107457614878,-0.215
1748367107465301163,-0.218
1748367107472987448,-0.22
1748367107480673733,-0.218
1748367107488360018,-0.213
1748367107496046303,-0.215
1748367107503732588,-0.215
1748367107511418873,-0.21
1748367107519105158,-0.20800000000000002
1748367107526791443,-0.20800000000000002
1748367107534477728,-0.213
1748367107542164013,-0.21
1748367107549850298,-0.2
1748367107557536583,-0.181
1748367107565222868,-0.166
1748367107572909153,-0.156
1748367107580595438,-0.14400000000000002
1748367107588281723,-0.137
1748367107595968008,-0.151
1748367107603654293,-0.183
1748367107611340578,-0.193
1748367107619026863,-0.183
1748367107626713148,-0.178
1748367107634399433,-0.176
1748367107642085718,-0.171
1748367107649772003,-0.166
1748367107657458288,-0.171
1748367107665144573,-0.188
1748367107672830858,-0.244
1748367107680517143,-0.313
1748367107688203428,-0.14400000000000002
1748367107695889713,0.511
1748367107703575998,1.379
1748367107711262283,1.827
1748367107718948568,1.173
1748367107726634853,-0.269
1748367107734321138,-0.769
1748367107742007423,-0.21
1748367107749693708,-0.08
1748367107757379993,-0.298
1748367107765066278,-0.218
1748367107772752563,-0.129
1748367107780438848,-0.186
1748367107788125133,-0.166
1748367107795811418,-0.11
1748367107803497703,-0.11
1748367107811183988,-0.093
1748367107818870273,-0.051000000000000004
1748367107826556558,-0.034
1748367107834242843,-0.014
1748367107841929128,0.022
1748367107849615413,0.051000000000000004
1748367107857301698,0.075
1748367107864987983,0.10200000000000001
1748367107872674268,0.124
1748367107880360553,0.139
1748367107888046838,0.149
1748367107895733123,0.146
1748367107903419408,0.132
1748367107911105693,0.115
1748367107918791978,0.095
1748367107926478263,0.073
1748367107934164548,0.041
1748367107941850833,-0.002
1748367107949537174,-0.056,94,628
1748367107957223877,-0.117
1748367107964910580,-0.178
1748367107972597283,-0.232
1748367107980283986,-0.271
1748367107987970689,-0.293
1748367107995657392,-0.301
1748367108003344095,-0.301
1748367108011030798,-0.293
1748367108018717501,-0.279
1748367108026404204,-0.264
1748367108034090907,-0.254
1748367108041777610,-0.247
1748367108049464313,-0.23500000000000001
1748367108057151016,-0.225
1748367108064837719,-0.22
1748367108072524422,-0.215
1748367108080211125,-0.213
1748367108087897828,-0.21
1748367108095584531,-0.20800000000000002
1748367108103271234,-0.20800000000000002
1748367108110957937,-0.20800000000000002
1748367108118644640,-0.20800000000000002
1748367108126331343,-0.20800000000000002
1748367108134018046,-0.20500000000000002
1748367108141704749,-0.203
1748367108149391452,-0.203
1748367108157078155,-0.203
1748367108164764858,-0.20800000000000002
1748367108172451561,-0.203
1748367108180138264,-0.191
1748367108187824967,-0.17300000000000001
1748367108195511670,-0.154
1748367108203198373,-0.139
1748367108210885076,-0.134
1748367108218571779,-0.137
1748367108226258482,-0.159
1748367108233945185,-0.188
1748367108241631888,-0.191
1748367108249318591,-0.176
1748367108257005294,-0.171
1748367108264691997,-0.171
1748367108272378700,-0.166
1748367108280065403,-0.161
1748367108287752106,-0.164
1748367108295438809,-0.191
1748367108303125512,-0.264
1748367108310812215,-0.32
1748367108318498918,-0.053
1748367108326185621,0.6950000000000001
1748367108333872324,1.53
1748367108341559027,1.802
1748367108349245730,0.889
1748367108356932433,-0.511
1748367108364619136,-0.6900000000000001
1748367108372305839,-0.11
1748367108379992542,-0.124
1748367108387679245,-0.296
1748367108395365948,-0.17300000000000001
1748367108403052651,-0.132
1748367108410739354,-0.181
1748367108418426057,-0.137
1748367108426112760,-0.095
1748367108433799463,-0.097
1748367108441486166,-0.068
1748367108449172869,-0.031
1748367108456859572,-0.017
1748367108464546275,0.004
1748367108472232978,0.041
1748367108479919681,0.073
1748367108487606384,0.095
1748367108495293087,0.12
1748367108502979790,0.151
1748367108510666553,0.171
1748367108518353256,0.171
1748367108526039959,0.166
1748367108533726662,0.14400000000000002
1748367108541413365,0.122
1748367108549100068,0.107
1748367108556786771,0.088
1748367108564473474,0.053
1748367108572160177,0.004
1748367108579846880,-0.058
1748367108587533583,-0.12
1748367108595220286,-0.17300000000000001
1748367108602906989,-0.225
1748367108610593692,-0.262
1748367108618280395,-0.28400000000000003
1748367108625967098,-0.289
1748367108633653801,-0.289
1748367108641340504,-0.28400000000000003
1748367108649027207,-0.269
1748367108656713910,-0.249
1748367108664400613,-0.23700000000000002
1748367108672087316,-0.23
1748367108679774019,-0.22
1748367108687460722,-0.213
1748367108695147425,-0.203
1748367108702834128,-0.203
1748367108710520831,-0.203
1748367108718207534,-0.2
1748367108725894237,-0.198
1748367108733580940,-0.195
1748367108741267643,-0.198
1748367108748954346,-0.198
1748367108756641049,-0.191
1748367108764327752,-0.191
1748367108772014455,-0.195
1748367108779701158,-0.195
1748367108787387861,-0.191
1748367108795074564,-0.188
1748367108802761267,-0.188
1748367108810447970,-0.178
1748367108818134673,-0.154
1748367108825821376,-0.137
1748367108833508079,-0.137
1748367108841194782,-0.134
1748367108848881485,-0.132
1748367108856568188,-0.151
1748367108864254891,-0.183
1748367108871941594,-0.188
1748367108879628297,-0.161
1748367108887315000,-0.154
1748367108895001703,-0.164
1748367108902688406,-0.156
1748367108910375109,-0.151
1748367108918061812,-0.169
1748367108925748515,-0.191
1748367108933435218,-0.247
1748367108941121921,-0.303
1748367108948808624,-0.048
1748367108956495327,0.671
1748367108964182030,1.425
1748367108971868733,1.594
1748367108979555436,0.707
1748367108987242139,-0.536
1748367108994928842,-0.629
1748367109002615545,-0.093
1748367109010302248,-0.129
1748367109017988951,-0.269
1748367109025675654,-0.14200000000000002
1748367109033362357,-0.1
1748367109041049060,-0.139
1748367109048735763,-0.10200000000000001
1748367109056422466,-0.075
1748367109064109169,-0.078
1748367109071795936,-0.056,94,628
1748367109079482361,-0.012,,631
1748367109087168786,0.014
1748367109094855211,0.034
1748367109102541636,0.061
1748367109110228061,0.093
1748367109117914486,0.117
1748367109125600911,0.14200000000000002
1748367109133287336,0.166
1748367109140973761,0.181
1748367109148660186,0.183
1748367109156346611,0.178
1748367109164033036,0.159
1748367109171719461,0.132
1748367109179405886,0.11
1748367109187092311,0.083
1748367109194778736,0.044
1748367109202465161,0.004
1748367109210151586,-0.046
1748367109217838011,-0.115
1748367109225524436,-0.181
1748367109233210861,-0.227
1748367109240897286,-0.259
1748367109248583711,-0.276
1748367109256270136,-0.281
1748367109263956561,-0.28600000000000003
1748367109271642986,-0.279
1748367109279329411,-0.262
1748367109287015836,-0.247
1748367109294702261,-0.24
1748367109302388686,-0.232
1748367109310075111,-0.22
1748367109317761536,-0.20800000000000002
1748367109325447961,-0.20500000000000002
1748367109333134386,-0.203
1748367109340820811,-0.195
1748367109348507236,-0.193
1748367109356193661,-0.195
1748367109363880086,-0.195
1748367109371566511,-0.195
1748367109379252936,-0.195
1748367109386939361,-0.195
1748367109394625786,-0.193
1748367109402312211,-0.195
1748367109409998636,-0.193
1748367109417685061,-0.195
1748367109425371486,-0.198
1748367109433057911,-0.186
1748367109440744336,-0.171
1748367109448430761,-0.166
1748367109456117186,-0.161
1748367109463803611,-0.14400000000000002
1748367109471490036,-0.132
1748367109479176461,-0.156
1748367109486862886,-0.191
1748367109494549311,-0.195
1748367109502235736,-0.186
1748367109509922161,-0.178
1748367109517608586,-0.17300000000000001
1748367109525295011,-0.166
1748367109532981436,-0.164
1748367109540667861,-0.171
1748367109548354286,-0.198
1748367109556040711,-0.259
1748367109563727136,-0.313
1748367109571413561,-0.07100000000000001
1748367109579099986,0.627
1748367109586786411,1.3760000000000001
1748367109594472836,1.589
1748367109602159261,0.769
1748367109609845686,-0.499
1748367109617532111,-0.678
1748367109625218536,-0.129
1748367109632904971,-0.122
1748367109640591535,-0.271
1748367109648278099,-0.154
1748367109655964663,-0.12
1748367109663651227,-0.169
1748367109671337791,-0.129
1748367109679024355,-0.088
1748367109686710919,-0.09
1748367109694397483,-0.068
1748367109702084047,-0.034
1748367109709770611,-0.014
1748367109717457175,0.007
1748367109725143739,0.036000000000000004
1748367109732830303,0.058
1748367109740516867,0.085
1748367109748203431,0.112
1748367109755889995,0.134
1748367109763576559,0.146
1748367109771263123,0.154
1748367109778949687,0.146
1748367109786636251,0.127
1748367109794322815,0.105
1748367109802009379,0.083
1748367109809695943,0.056
1748367109817382507,0.024
1748367109825069071,-0.019
1748367109832755635,-0.073
1748367109840442199,-0.132
1748367109848128763,-0.188
1748367109855815327,-0.24
1748367109863501891,-0.274
1748367109871188455,-0.289
1748367109878875019,-0.289
1748367109886561583,-0.28600000000000003
1748367109894248147,-0.276
1748367109901934711,-0.267
1748367109909621275,-0.257
1748367109917307839,-0.244
1748367109924994403,-0.23500000000000001
1748367109932680967,-0.225
1748367109940367531,-0.215
1748367109948054095,-0.20800000000000002
1748367109955740659,-0.20800000000000002
1748367109963427223,-0.20800000000000002
1748367109971113787,-0.203
1748367109978800351,-0.2
1748367109986486915,-0.2
1748367109994173479,-0.2
1748367110001860043,-0.2
1748367110009546607,-0.2
1748367110017233171,-0.198
1748367110024919735,-0.195
1748367110032606299,-0.195
1748367110040292863,-0.198
1748367110047979427,-0.203
1748367110055665991,-0.203
1748367110063352555,-0.195
1748367110071039119,-0.178
1748367110078725683,-0.161
1748367110086412247,-0.154
1748367110094098811,-0.149
1748367110101785375,-0.137
1748367110109471939,-0.14400000000000002
1748367110117158503,-0.181
1748367110124845067,-0.195
1748367110132531631,-0.181
1748367110140218195,-0.17300000000000001
1748367110147904759,-0.176
1748367110155591323,-0.166
1748367110163277887,-0.159
1748367110170964451,-0.166
1748367110178651015,-0.188
1748367110186337579,-0.242
1748367110194024176,-0.306,95,629
1748367110201710740,-0.129
1748367110209397304,0.519
1748367110217083868,1.339
1748367110224770432,1.736
1748367110232456996,1.09
1748367110240143560,-0.291
1748367110247830124,-0.756
1748367110255516688,-0.20500000000000002
1748367110263203252,-0.08
1748367110270889816,-0.291
1748367110278576380,-0.21
1748367110286262944,-0.127
1748367110293949508,-0.181
1748367110301636072,-0.159
1748367110309322636,-0.105
1748367110317009200,-0.10200000000000001
1748367110324695764,-0.088
1748367110332382328,-0.051000000000000004
1748367110340068892,-0.026000000000000002
1748367110347755456,-0.009000000000000001
1748367110355442020,0.019
1748367110363128584,0.048
1748367110370815148,0.073
1748367110378501712,0.1
1748367110386188276,0.124
1748367110393874840,0.14200000000000002
1748367110401561404,0.149
1748367110409247968,0.146
1748367110416934532,0.134
1748367110424621096,0.117
1748367110432307660,0.097
1748367110439994224,0.073
1748367110447680788,0.039
1748367110455367352,-0.004
1748367110463053916,-0.058
1748367110470740480,-0.124
1748367110478427044,-0.186
1748367110486113608,-0.24
1748367110493800172,-0.279
1748367110501486736,-0.298
1748367110509173300,-0.308
1748367110516859864,-0.306
1748367110524546428,-0.296
1748367110532232992,-0.28600000000000003
1748367110539919556,-0.274
1748367110547606120,-0.262
1748367110555292684,-0.249
1748367110562979248,-0.242
1748367110570665812,-0.232
1748367110578352376,-0.225
1748367110586038940,-0.222
1748367110593725504,-0.22
1748367110601412068,-0.215
1748367110609098632,-0.215
1748367110616785196,-0.215
1748367110624471760,-0.215
1748367110632158324,-0.215
1748367110639844888,-0.215
1748367110647531452,-0.213
1748367110655218016,-0.21
1748367110662904580,-0.20800000000000002
1748367110670591144,-0.21
1748367110678277708,-0.215
1748367110685964272,-0.213
1748367110693650836,-0.2
1748367110701337400,-0.183
1748367110709023964,-0.171
1748367110716710528,-0.164
1748367110724397092,-0.149
1748367110732083656,-0.139
1748367110739770220,-0.166
1748367110747456784,-0.2
1748367110755143385,-0.198
1748367110762829810,-0.183
1748367110770516235,-0.181
1748367110778202660,-0.181
1748367110785889085,-0.17300000000000001
1748367110793575510,-0.17300000000000001
1748367110801261935,-0.183
1748367110808948360,-0.213
1748367110816634785,-0.28400000000000003
1748367110824321210,-0.325
1748367110832007635,-0.019
1748367110839694060,0.756
1748367110847380485,1.557
1748367110855066910,1.719
1748367110862753335,0.722
1748367110870439760,-0.592
1748367110878126185,-0.646
1748367110885812610,-0.09
1748367110893499035,-0.159
1748367110901185460,-0.306
1748367110908871885,-0.171
1748367110916558310,-0.14200000000000002
1748367110924244735,-0.193
1748367110931931160,-0.146
1748367110939617585,-0.107
1748367110947304010,-0.11
1748367110954990435,-0.083
1748367110962676860,-0.046
1748367110970363285,-0.026000000000000002
1748367110978049710,-0.004
1748367110985736135,0.024
1748367110993422560,0.051000000000000004
1748367111001108985,0.078
1748367111008795410,0.107
1748367111016481835,0.127
1748367111024168260,0.14200000000000002
1748367111031854685,0.146
1748367111039541110,0.14200000000000002
1748367111047227535,0.124
1748367111054913960,0.105
1748367111062600385,0.085
1748367111070286810,0.058
1748367111077973235,0.024
1748367111085659660,-0.026000000000000002
1748367111093346085,-0.085
1748367111101032510,-0.149
1748367111108718935,-0.21
1748367111116405360,-0.259
1748367111124091785,-0.289
1748367111131778210,-0.303
1748367111139464635,-0.308
1748367111147151060,-0.303
1748367111154837485,-0.293
1748367111162523910,-0.28400000000000003
1748367111170210335,-0.271
1748367111177896760,-0.259
1748367111185583185,-0.249
1748367111193269610,-0.24
1748367111200956035,-0.232
1748367111208642460,-0.227
1748367111216328885,-0.222
1748367111224015310,-0.218
1748367111231701735,-0.218
1748367111239388160,-0.218
1748367111247074585,-0.215
1748367111254761010,-0.215
1748367111262447435,-0.215
1748367111270133860,-0.218
1748367111277820285,-0.215
1748367111285506710,-0.213
1748367111293193135,-0.20800000000000002
1748367111300879560,-0.21
1748367111308565985,-0.215
1748367111316252416,-0.215,95,630
1748367111323938701,-0.203,,623
1748367111331624986,-0.186
1748367111339311271,-0.169
1748367111346997556,-0.161
1748367111354683841,-0.151
1748367111362370126,-0.14400000000000002
1748367111370056411,-0.166
1748367111377742696,-0.2
1748367111385428981,-0.20500000000000002
1748367111393115266,-0.191
1748367111400801551,-0.186
1748367111408487836,-0.186
1748367111416174121,-0.181
1748367111423860406,-0.176
1748367111431546691,-0.181
1748367111439232976,-0.2
1748367111446919261,-0.257
1748367111454605546,-0.33
1748367111462291831,-0.161
1748367111469978116,0.507
1748367111477664401,1.369
1748367111485350686,1.795
1748367111493036971,1.121
1748367111500723256,-0.313
1748367111508409541,-0.781
1748367111516095826,-0.218
1748367111523782111,-0.097
1748367111531468396,-0.308
1748367111539154681,-0.222
1748367111546840966,-0.139
1748367111554527251,-0.195
1748367111562213536,-0.17300000000000001
1748367111569899821,-0.12
1748367111577586106,-0.115
1748367111585272391,-0.10200000000000001
1748367111592958676,-0.066
1748367111600644961,-0.044
1748367111608331246,-0.022
1748367111616017531,0.009000000000000001
1748367111623703816,0.036000000000000004
1748367111631390101,0.063
1748367111639076386,0.093
1748367111646762671,0.117
1748367111654448956,0.132
1748367111662135241,0.139
1748367111669821526,0.134
1748367111677507811,0.122
1748367111685194096,0.10200000000000001
1748367111692880381,0.083
1748367111700566666,0.058
1748367111708252951,0.029
1748367111715939236,-0.012
1748367111723625521,-0.068
1748367111731311806,-0.129
1748367111738998091,-0.186
1748367111746684376,-0.23700000000000002
1748367111754370661,-0.276
1748367111762056946,-0.296
1748367111769743231,-0.301
1748367111777429516,-0.303
1748367111785115801,-0.301
1748367111792802086,-0.289
1748367111800488371,-0.274
1748367111808174656,-0.262
1748367111815860941,-0.254
1748367111823547226,-0.247
1748367111831233511,-0.23500000000000001
1748367111838919796,-0.225
1748367111846606081,-0.218
1748367111854292366,-0.215
1748367111861978651,-0.215
1748367111869664936,-0.213
1748367111877351277,-0.213,95,632
1748367111885037980,-0.22,,628
1748367111892724683,-0.222
1748367111900411386,-0.215
1748367111908098089,-0.20800000000000002
1748367111915784792,-0.20800000000000002
1748367111923471495,-0.21
1748367111931158198,-0.20800000000000002
1748367111938844901,-0.20500000000000002
1748367111946531604,-0.20800000000000002
1748367111954218307,-0.203
1748367111961905010,-0.181
1748367111969591713,-0.161
1748367111977278416,-0.154
1748367111984965119,-0.14400000000000002
1748367111992651822,-0.134
1748367112000338525,-0.14400000000000002
1748367112008025228,-0.181
1748367112015711931,-0.203
1748367112023398634,-0.193
1748367112031085337,-0.183
1748367112038772040,-0.181
1748367112046458743,-0.17300000000000001
1748367112054145446,-0.166
1748367112061832149,-0.169
1748367112069518852,-0.176
1748367112077205555,-0.21
1748367112084892258,-0.293
1748367112092578961,-0.301
1748367112100265664,0.09
1748367112107952367,0.894
1748367112115639070,1.606
1748367112123325773,1.579
1748367112131012476,0.426
1748367112138699179,-0.725
1748367112146385882,-0.538
1748367112154072585,-0.044
1748367112161759288,-0.193
1748367112169445991,-0.279
1748367112177132694,-0.137
1748367112184819397,-0.14400000000000002
1748367112192506100,-0.186
1748367112200192803,-0.124
1748367112207879506,-0.09
1748367112215566209,-0.093
1748367112223252912,-0.058
1748367112230939615,-0.019
1748367112238626318,-0.007
1748367112246313021,0.012
1748367112253999724,0.044
1748367112261686427,0.068
1748367112269373130,0.095
1748367112277059833,0.124
1748367112284746536,0.146
1748367112292433239,0.161
1748367112300119942,0.166
1748367112307806645,0.159
1748367112315493348,0.14200000000000002
1748367112323180051,0.112
1748367112330866754,0.083
1748367112338553457,0.066
1748367112346240160,0.036000000000000004
1748367112353926863,-0.019
1748367112361613566,-0.08
1748367112369300269,-0.146
1748367112376986972,-0.21
1748367112384673675,-0.252
1748367112392360378,-0.276
1748367112400047081,-0.293
1748367112407733784,-0.303
1748367112415420487,-0.303
1748367112423107190,-0.293
1748367112430793893,-0.276
1748367112438480660,-0.259
1748367112446166945,-0.247
1748367112453853230,-0.24
1748367112461539515,-0.23500000000000001
1748367112469225800,-0.227
1748367112476912085,-0.222
1748367112484598370,-0.215
1748367112492284655,-0.20800000000000002
1748367112499970940,-0.21
1748367112507657225,-0.213
1748367112515343510,-0.20800000000000002
1748367112523029795,-0.20500000000000002
1748367112530716080,-0.20800000000000002
1748367112538402365,-0.20800000000000002
1748367112546088650,-0.20500000000000002
1748367112553774935,-0.20500000000000002
1748367112561461220,-0.2
1748367112569147505,-0.198
1748367112576833790,-0.20800000000000002
1748367112584520075,-0.20800000000000002
1748367112592206360,-0.186
1748367112599892645,-0.161
1748367112607578930,-0.156
1748367112615265215,-0.151
1748367112622951500,-0.139
1748367112630637785,-0.14200000000000002
1748367112638324070,-0.171
1748367112646010355,-0.191
1748367112653696640,-0.188
1748367112661382925,-0.186
1748367112669069210,-0.178
1748367112676755495,-0.171
1748367112684441780,-0.171
1748367112692128065,-0.171
1748367112699814350,-0.178
1748367112707500635,-0.213
1748367112715186920,-0.293
1748367112722873205,-0.264
1748367112730559490,0.195
1748367112738245775,0.979
1748367112745932060,1.5350000000000001
1748367112753618345,1.3
1748367112761304630,0.124
1748367112768990915,-0.744
1748367112776677200,-0.40900000000000003
1748367112784363485,-0.046
1748367112792049770,-0.218
1748367112799736055,-0.222
1748367112807422340,-0.10200000000000001
1748367112815108625,-0.137
1748367112822794910,-0.151
1748367112830481195,-0.097
1748367112838167480,-0.083
1748367112845853765,-0.078
1748367112853540050,-0.041
1748367112861226335,-0.012
1748367112868912620,0.007
1748367112876598905,0.031
1748367112884285190,0.061
1748367112891971475,0.088
1748367112899657760,0.115
1748367112907344045,0.14200000000000002
1748367112915030330,0.156
1748367112922716615,0.166
1748367112930402900,0.164
1748367112938089185,0.146
1748367112945775470,0.124
1748367112953461755,0.105
1748367112961148040,0.083
1748367112968834325,0.053
1748367112976520610,0.012
1748367112984206895,-0.036000000000000004
1748367112991893180,-0.093
1748367112999579521,-0.151,95,632
1748367113007266015,-0.21
1748367113014952509,-0.259
1748367113022639003,-0.28600000000000003
1748367113030325497,-0.293
1748367113038011991,-0.293
1748367113045698485,-0.291
1748367113053384979,-0.28400000000000003
1748367113061071473,-0.271
1748367113068757967,-0.257
1748367113076444461,-0.244
1748367113084130955,-0.24
1748367113091817449,-0.232
1748367113099503943,-0.222
1748367113107190437,-0.215
1748367113114876931,-0.213
1748367113122563425,-0.20800000000000002
1748367113130249919,-0.203
1748367113137936413,-0.2
1748367113145622907,-0.203
1748367113153309401,-0.20500000000000002
1748367113160995895,-0.20500000000000002
1748367113168682389,-0.203
1748367113176368883,-0.203
1748367113184055377,-0.2
1748367113191741871,-0.2
1748367113199428365,-0.20500000000000002
1748367113207114859,-0.20800000000000002
1748367113214801353,-0.2
1748367113222487847,-0.191
1748367113230174341,-0.178
1748367113237860835,-0.166
1748367113245547329,-0.154
1748367113253233823,-0.139
1748367113260920317,-0.14200000000000002
1748367113268606811,-0.17300000000000001
1748367113276293305,-0.2
1748367113283979799,-0.193
1748367113291666293,-0.181
1748367113299352787,-0.181
1748367113307039281,-0.176
1748367113314725775,-0.166
1748367113322412269,-0.169
1748367113330098763,-0.181
1748367113337785257,-0.215
1748367113345471751,-0.289
1748367113353158245,-0.262
1748367113360844739,0.181
1748367113368531233,0.972
1748367113376217727,1.587
1748367113383904221,1.415
1748367113391590715,0.22
1748367113399277209,-0.756
1748367113406963703,-0.453
1748367113414650197,-0.044
1748367113422336691,-0.225
1748367113430023185,-0.262
1748367113437709679,-0.129
1748367113445396173,-0.156
1748367113453082667,-0.178
1748367113460769161,-0.117
1748367113468455655,-0.097
1748367113476142149,-0.1
1748367113483828643,-0.068
1748367113491515137,-0.034
1748367113499201631,-0.019
1748367113506888125,0.004
1748367113514574619,0.031
1748367113522261113,0.056
1748367113529947607,0.08
1748367113537634101,0.105
1748367113545320595,0.122
1748367113553007089,0.134
1748367113560693643,0.134
1748367113568380137,0.122
1748367113576066631,0.105
1748367113583753125,0.085
1748367113591439619,0.063
1748367113599126113,0.036000000000000004
1748367113606812607,-0.002
1748367113614499101,-0.051000000000000004
1748367113622185595,-0.11
1748367113629872089,-0.169
1748367113637558583,-0.222
1748367113645245077,-0.267
1748367113652931571,-0.293
1748367113660618065,-0.303
1748367113668304559,-0.306
1748367113675991053,-0.301
1748367113683677547,-0.289
1748367113691364041,-0.276
1748367113699050535,-0.267
1748367113706737029,-0.257
1748367113714423523,-0.244
1748367113722110017,-0.23700000000000002
1748367113729796511,-0.23
1748367113737483005,-0.225
1748367113745169499,-0.222
1748367113752855993,-0.218
1748367113760542487,-0.215
1748367113768228981,-0.215
1748367113775915475,-0.215
1748367113783601969,-0.215
1748367113791288463,-0.215
1748367113798974957,-0.215
1748367113806661451,-0.213
1748367113814347945,-0.20800000000000002
1748367113822034439,-0.20500000000000002
1748367113829720933,-0.21
1748367113837407427,-0.215
1748367113845093921,-0.213
1748367113852780415,-0.198
1748367113860466909,-0.183
1748367113868153403,-0.17300000000000001
1748367113875839897,-0.166
1748367113883526391,-0.151
1748367113891212885,-0.139
1748367113898899379,-0.159
1748367113906585873,-0.193
1748367113914272367,-0.198
1748367113921958861,-0.183
1748367113929645355,-0.181
1748367113937331849,-0.178
1748367113945018343,-0.171
1748367113952704837,-0.169
1748367113960391331,-0.181
1748367113968077825,-0.20500000000000002
1748367113975764319,-0.269
1748367113983450813,-0.311
1748367113991137307,-0.034
1748367113998823801,0.707
1748367114006510295,1.499
1748367114014196789,1.712
1748367114021883283,0.793
1748367114029569777,-0.543
1748367114037256271,-0.678
1748367114044942765,-0.115
1748367114052629259,-0.146
1748367114060315753,-0.308
1748367114068002247,-0.181
1748367114075688741,-0.14400000000000002
1748367114083375235,-0.198
1748367114091061729,-0.154
1748367114098748223,-0.11
1748367114106434717,-0.11
1748367114114121211,-0.088
1748367114121807761,-0.051000000000000004,95,635
1748367114129494046,-0.031,,629
1748367114137180331,-0.009000000000000001
1748367114144866616,0.022
1748367114152552901,0.046
1748367114160239186,0.073
1748367114167925471,0.10200000000000001
1748367114175611756,0.124
1748367114183298041,0.137
1748367114190984326,0.14200000000000002
1748367114198670611,0.137
1748367114206356896,0.122
1748367114214043181,0.10200000000000001
1748367114221729466,0.08
1748367114229415751,0.056
1748367114237102036,0.024
1748367114244788321,-0.022
1748367114252474606,-0.078
1748367114260160891,-0.139
1748367114267847176,-0.2
1748367114275533461,-0.252
1748367114283219746,-0.28600000000000003
1748367114290906031,-0.303
1748367114298592316,-0.311
1748367114306278601,-0.306
1748367114313964886,-0.296
1748367114321651171,-0.28400000000000003
1748367114329337456,-0.271
1748367114337023741,-0.262
1748367114344710026,-0.249
1748367114352396311,-0.24
1748367114360082596,-0.232
1748367114367768881,-0.23
1748367114375455166,-0.225
1748367114383141451,-0.22
1748367114390827736,-0.218
1748367114398514021,-0.218
1748367114406200306,-0.218
1748367114413886591,-0.215
1748367114421572876,-0.215
1748367114429259161,-0.215
1748367114436945446,-0.213
1748367114444631731,-0.21
1748367114452318016,-0.20500000000000002
1748367114460004301,-0.203
1748367114467690586,-0.20800000000000002
1748367114475376871,-0.21
1748367114483063156,-0.20500000000000002
1748367114490749441,-0.188
1748367114498435726,-0.17300000000000001
1748367114506122011,-0.164
1748367114513808296,-0.154
1748367114521494581,-0.139
1748367114529180866,-0.14400000000000002
1748367114536867151,-0.178
1748367114544553436,-0.2
1748367114552239721,-0.188
1748367114559926006,-0.178
1748367114567612291,-0.178
1748367114575298576,-0.176
1748367114582984861,-0.169
1748367114590671146,-0.171
1748367114598357431,-0.188
1748367114606043716,-0.23
1748367114613730001,-0.306
1748367114621416286,-0.24
1748367114629102571,0.279
1748367114636788856,1.1340000000000001
1748367114644475141,1.7530000000000001
1748367114652161426,1.44
1748367114659847711,0.088
1748367114667533996,-0.793
1748367114675220281,-0.379
1748367114682906622,-0.044
1748367114690593325,-0.257
1748367114698280028,-0.257
1748367114705966731,-0.132
1748367114713653434,-0.171
1748367114721340137,-0.181
1748367114729026840,-0.12
1748367114736713543,-0.105
1748367114744400246,-0.1
1748367114752086949,-0.063
1748367114759773652,-0.039
1748367114767460355,-0.022
1748367114775147058,0.007
1748367114782833761,0.036000000000000004
1748367114790520464,0.061
1748367114798207167,0.088
1748367114805893870,0.112
1748367114813580573,0.132
1748367114821267276,0.139
1748367114828953979,0.139
1748367114836640682,0.129
1748367114844327385,0.112
1748367114852014088,0.09
1748367114859700791,0.068
1748367114867387494,0.041
1748367114875074197,0.002
1748367114882760900,-0.046
1748367114890447603,-0.105
1748367114898134306,-0.166
1748367114905821009,-0.222
1748367114913507712,-0.264
1748367114921194415,-0.291
1748367114928881118,-0.301
1748367114936567821,-0.303
1748367114944254524,-0.298
1748367114951941227,-0.289
1748367114959627930,-0.274
1748367114967314633,-0.262
1748367114975001336,-0.252
1748367114982688039,-0.242
1748367114990374742,-0.232
1748367114998061445,-0.23
1748367115005748148,-0.222
1748367115013434851,-0.218
1748367115021121554,-0.215
1748367115028808257,-0.218
1748367115036494960,-0.218
1748367115044181663,-0.215
1748367115051868366,-0.213
1748367115059555069,-0.213
1748367115067241772,-0.213
1748367115074928475,-0.21
1748367115082615178,-0.20800000000000002
1748367115090301881,-0.20500000000000002
1748367115097988584,-0.20500000000000002
1748367115105675287,-0.21
1748367115113361990,-0.21
1748367115121048693,-0.198
1748367115128735396,-0.178
1748367115136422099,-0.161
1748367115144108802,-0.151
1748367115151795505,-0.14200000000000002
1748367115159482208,-0.134
1748367115167168911,-0.154
1748367115174855614,-0.191
1748367115182542317,-0.195
1748367115190229020,-0.178
1748367115197915723,-0.176
1748367115205602426,-0.176
1748367115213289129,-0.171
1748367115220975832,-0.166
1748367115228662535,-0.17300000000000001
1748367115236349238,-0.195
1748367115244036001,-0.257,95,631
1748367115251722286,-0.318
1748367115259408571,-0.112
1748367115267094856,0.578
1748367115274781141,1.425
1748367115282467426,1.793
1748367115290153711,1.0210000000000001
1748367115297839996,-0.404
1748367115305526281,-0.747
1748367115313212566,-0.171
1748367115320898851,-0.11
1748367115328585136,-0.303
1748367115336271421,-0.198
1748367115343957706,-0.134
1748367115351643991,-0.191
1748367115359330276,-0.159
1748367115367016561,-0.107
1748367115374702846,-0.107
1748367115382389131,-0.09
1748367115390075416,-0.051000000000000004
1748367115397761701,-0.031
1748367115405447986,-0.009000000000000001
1748367115413134271,0.019
1748367115420820556,0.048
1748367115428506841,0.073
1748367115436193126,0.1
1748367115443879411,0.12
1748367115451565696,0.132
1748367115459251981,0.139
1748367115466938266,0.134
1748367115474624551,0.12
1748367115482310836,0.097
1748367115489997121,0.078
1748367115497683406,0.056
1748367115505369691,0.026000000000000002
1748367115513055976,-0.012
1748367115520742261,-0.068
1748367115528428546,-0.127
1748367115536114831,-0.183
1748367115543801116,-0.23700000000000002
1748367115551487401,-0.274
1748367115559173686,-0.291
1748367115566859971,-0.301
1748367115574546256,-0.301
1748367115582232541,-0.291
1748367115589918826,-0.279
1748367115597605111,-0.267
1748367115605291396,-0.254
1748367115612977681,-0.244
1748367115620663966,-0.23700000000000002
1748367115628350251,-0.227
1748367115636036536,-0.22
1748367115643722821,-0.213
1748367115651409106,-0.20800000000000002
1748367115659095391,-0.20800000000000002
1748367115666781676,-0.21
1748367115674467961,-0.20800000000000002
1748367115682154246,-0.20500000000000002
1748367115689840531,-0.20500000000000002
1748367115697526816,-0.20500000000000002
1748367115705213101,-0.203
1748367115712899386,-0.195
1748367115720585671,-0.195
1748367115728271956,-0.203
1748367115735958241,-0.20500000000000002
1748367115743644526,-0.203
1748367115751330811,-0.195
1748367115759017096,-0.181
1748367115766703381,-0.166
1748367115774389666,-0.154
1748367115782075951,-0.14400000000000002
1748367115789762236,-0.132
1748367115797448521,-0.14400000000000002
1748367115805134866,-0.178
1748367115812821569,-0.193
1748367115820508272,-0.181
1748367115828194975,-0.176
1748367115835881678,-0.17300000000000001
1748367115843568381,-0.169
1748367115851255084,-0.161
1748367115858941787,-0.166
1748367115866628490,-0.188
1748367115874315193,-0.23500000000000001
1748367115882001896,-0.308
1748367115889688599,-0.183
1748367115897375302,0.418
1748367115905062005,1.2590000000000001
1748367115912748708,1.758
1748367115920435411,1.229
1748367115928122114,-0.178
1748367115935808817,-0.793
1748367115943495520,-0.264
1748367115951182223,-0.061
1748367115958868926,-0.274
1748367115966555629,-0.215
1748367115974242332,-0.115
1748367115981929035,-0.161
1748367115989615738,-0.151
1748367115997302441,-0.10200000000000001
1748367116004989144,-0.1
1748367116012675847,-0.083
1748367116020362550,-0.044
1748367116028049253,-0.022
1748367116035735956,0.0
1748367116043422659,0.031
1748367116051109362,0.056
1748367116058796065,0.08
1748367116066482768,0.107
1748367116074169471,0.127
1748367116081856174,0.146
1748367116089542877,0.161
1748367116097229580,0.156
1748367116104916283,0.137
1748367116112602986,0.117
1748367116120289689,0.10200000000000001
1748367116127976392,0.08
1748367116135663095,0.051000000000000004
1748367116143349798,0.012
1748367116151036501,-0.039
1748367116158723204,-0.1
1748367116166409907,-0.161
1748367116174096610,-0.213
1748367116181783313,-0.252
1748367116189470016,-0.274
1748367116197156719,-0.28600000000000003
1748367116204843422,-0.28600000000000003
1748367116212530125,-0.279
1748367116220216828,-0.274
1748367116227903531,-0.267
1748367116235590234,-0.249
1748367116243276937,-0.23500000000000001
1748367116250963640,-0.227
1748367116258650343,-0.225
1748367116266337046,-0.218
1748367116274023749,-0.20800000000000002
1748367116281710452,-0.203
1748367116289397155,-0.198
1748367116297083858,-0.188
1748367116304770561,-0.191
1748367116312457264,-0.20500000000000002
1748367116320143967,-0.2
1748367116327830670,-0.188
1748367116335517373,-0.198
1748367116343204076,-0.203
1748367116350890779,-0.193
1748367116358577482,-0.193
1748367116366264245,-0.2,95,633
1748367116373950530,-0.188,,634
1748367116381636815,-0.171
1748367116389323100,-0.161
1748367116397009385,-0.154
1748367116404695670,-0.146
1748367116412381955,-0.129
1748367116420068240,-0.132
1748367116427754525,-0.169
1748367116435440810,-0.195
1748367116443127095,-0.183
1748367116450813380,-0.171
1748367116458499665,-0.17300000000000001
1748367116466185950,-0.171
1748367116473872235,-0.156
1748367116481558520,-0.154
1748367116489244805,-0.176
1748367116496931090,-0.21
1748367116504617375,-0.28600000000000003
1748367116512303660,-0.274
1748367116519989945,0.14200000000000002
1748367116527676230,0.923
1748367116535362515,1.548
1748367116543048800,1.401
1748367116550735085,0.232
1748367116558421370,-0.742
1748367116566107655,-0.45
1748367116573793940,-0.039
1748367116581480225,-0.203
1748367116589166510,-0.232
1748367116596852795,-0.11
1748367116604539080,-0.137
1748367116612225365,-0.151
1748367116619911650,-0.093
1748367116627597935,-0.075
1748367116635284220,-0.073
1748367116642970505,-0.046
1748367116650656790,-0.019
1748367116658343075,0.004
1748367116666029360,0.036000000000000004
1748367116673715645,0.061
1748367116681401930,0.083
1748367116689088215,0.112
1748367116696774500,0.137
1748367116704460785,0.156
1748367116712147070,0.169
1748367116719833355,0.164
1748367116727519640,0.149
1748367116735205925,0.132
1748367116742892210,0.107
1748367116750578495,0.083
1748367116758264780,0.061
1748367116765951065,0.026000000000000002
1748367116773637350,-0.029
1748367116781323635,-0.088
1748367116789009920,-0.14400000000000002
1748367116796696205,-0.198
1748367116804382490,-0.247
1748367116812068775,-0.274
1748367116819755060,-0.28600000000000003
1748367116827441345,-0.291
1748367116835127630,-0.289
1748367116842813915,-0.276
1748367116850500200,-0.264
1748367116858186485,-0.254
1748367116865872770,-0.242
1748367116873559055,-0.232
1748367116881245340,-0.227
1748367116888931625,-0.22
1748367116896617910,-0.215
1748367116904304195,-0.21
1748367116911990480,-0.20500000000000002
1748367116919676765,-0.2
1748367116927363106,-0.198,95,635
1748367116935049391,-0.2,,632
1748367116942735676,-0.198
1748367116950421961,-0.198
1748367116958108246,-0.198
1748367116965794531,-0.195
1748367116973480816,-0.195
1748367116981167101,-0.203
1748367116988853386,-0.20500000000000002
1748367116996539671,-0.2
1748367117004225956,-0.188
1748367117011912241,-0.178
1748367117019598526,-0.171
1748367117027284811,-0.161
1748367117034971096,-0.14400000000000002
1748367117042657381,-0.14200000000000002
1748367117050343666,-0.171
1748367117058029951,-0.198
1748367117065716236,-0.195
1748367117073402521,-0.186
1748367117081088806,-0.176
1748367117088775091,-0.171
1748367117096461376,-0.169
1748367117104147661,-0.17300000000000001
1748367117111833946,-0.186
1748367117119520231,-0.218
1748367117127206516,-0.296
1748367117134892801,-0.28600000000000003
1748367117142579086,0.14200000000000002
1748367117150265371,0.935
1748367117157951656,1.57
1748367117165637941,1.435
1748367117173324226,0.262
1748367117181010511,-0.744
1748367117188696796,-0.465
1748367117196383081,-0.044
1748367117204069366,-0.215
1748367117211755651,-0.257
1748367117219441936,-0.122
1748367117227128221,-0.149
1748367117234814506,-0.176
1748367117242500791,-0.115
1748367117250187076,-0.093
1748367117257873361,-0.095
1748367117265559646,-0.061
1748367117273245931,-0.034
1748367117280932216,-0.019
1748367117288618501,0.007
1748367117296304786,0.039
1748367117303991071,0.061
1748367117311677356,0.085
1748367117319363641,0.11
1748367117327049926,0.129
1748367117334736211,0.134
1748367117342422496,0.134
1748367117350108781,0.122
1748367117357795066,0.107
1748367117365481351,0.088
1748367117373167636,0.063
1748367117380853921,0.039
1748367117388540206,0.004
1748367117396226491,-0.044
1748367117403912776,-0.1
1748367117411599061,-0.156
1748367117419285346,-0.21
1748367117426971631,-0.252
1748367117434657916,-0.281
1748367117442344201,-0.293
1748367117450030486,-0.296
1748367117457716771,-0.291
1748367117465403056,-0.279
1748367117473089341,-0.267
1748367117480775626,-0.257
1748367117488461967,-0.249
1748367117496148670,-0.24
1748367117503835373,-0.23
1748367117511522076,-0.22
1748367117519208779,-0.213
1748367117526895482,-0.20800000000000002
1748367117534582185,-0.20500000000000002
1748367117542268888,-0.20800000000000002
1748367117549955591,-0.20800000000000002
1748367117557642294,-0.20500000000000002
1748367117565328997,-0.20500000000000002
1748367117573015700,-0.20800000000000002
1748367117580702403,-0.20800000000000002
1748367117588389106,-0.203
1748367117596075809,-0.203
1748367117603762512,-0.20500000000000002
1748367117611449215,-0.21
1748367117619135918,-0.21
1748367117626822621,-0.198
1748367117634509324,-0.181
1748367117642196027,-0.171
1748367117649882730,-0.164
1748367117657569433,-0.151
1748367117665256136,-0.134
1748367117672942839,-0.14200000000000002
1748367117680629542,-0.178
1748367117688316245,-0.195
1748367117696002948,-0.183
1748367117703689651,-0.176
1748367117711376354,-0.17300000000000001
1748367117719063057,-0.166
1748367117726749760,-0.161
1748367117734436463,-0.169
1748367117742123166,-0.188
1748367117749809869,-0.24
1748367117757496572,-0.315
1748367117765183275,-0.17300000000000001
1748367117772869978,0.458
1748367117780556681,1.315
1748367117788243384,1.7850000000000001
1748367117795930087,1.21
1748367117803616790,-0.198
1748367117811303493,-0.771
1748367117818990196,-0.244
1748367117826676899,-0.07100000000000001
1748367117834363602,-0.289
1748367117842050305,-0.22
1748367117849737008,-0.127
1748367117857423711,-0.183
1748367117865110414,-0.169
1748367117872797117,-0.112
1748367117880483820,-0.105
1748367117888170523,-0.09
1748367117895857226,-0.056
1748367117903543929,-0.034
1748367117911230632,-0.014
1748367117918917335,0.017
1748367117926604038,0.044
1748367117934290741,0.068
1748367117941977444,0.093
1748367117949664147,0.117
1748367117957350850,0.132
1748367117965037553,0.14200000000000002
1748367117972724256,0.137
1748367117980410959,0.122
1748367117988097662,0.105
1748367117995784365,0.083
1748367118003471068,0.061
1748367118011157771,0.034
1748367118018844474,-0.004
1748367118026531177,-0.058
1748367118034217880,-0.12
1748367118041904583,-0.181
1748367118049591346,-0.232,95,625
1748367118057277631,-0.269
1748367118064963916,-0.293
1748367118072650201,-0.306
1748367118080336486,-0.306
1748367118088022771,-0.296
1748367118095709056,-0.28600000000000003
1748367118103395341,-0.274
1748367118111081626,-0.262
1748367118118767911,-0.249
1748367118126454196,-0.242
1748367118134140481,-0.232
1748367118141826766,-0.225
1748367118149513051,-0.222
1748367118157199336,-0.218
1748367118164885621,-0.215
1748367118172571906,-0.213
1748367118180258191,-0.213
1748367118187944476,-0.21
1748367118195630761,-0.213
1748367118203317046,-0.21
1748367118211003331,-0.20800000000000002
1748367118218689616,-0.20500000000000002
1748367118226375901,-0.20500000000000002
1748367118234062186,-0.21
1748367118241748471,-0.213
1748367118249434756,-0.20500000000000002
1748367118257121041,-0.191
1748367118264807326,-0.176
1748367118272493611,-0.169
1748367118280179896,-0.159
1748367118287866181,-0.14400000000000002
1748367118295552466,-0.139
1748367118303238751,-0.171
1748367118310925036,-0.198
1748367118318611321,-0.188
1748367118326297606,-0.178
1748367118333983891,-0.178
1748367118341670176,-0.171
1748367118349356461,-0.164
1748367118357042746,-0.166
1748367118364729031,-0.181
1748367118372415316,-0.222
1748367118380101601,-0.311
1748367118387787886,-0.289
1748367118395474171,0.178
1748367118403160456,1.041
1748367118410846741,1.746
1748367118418533026,1.579
1748367118426219311,0.281
1748367118433905596,-0.766
1748367118441591881,-0.458
1748367118449278166,-0.044
1748367118456964451,-0.23500000000000001
1748367118464650736,-0.274
1748367118472337021,-0.139
1748367118480023306,-0.169
1748367118487709591,-0.193
1748367118495395876,-0.129
1748367118503082161,-0.107
1748367118510768446,-0.105
1748367118518454731,-0.073
1748367118526141016,-0.041
1748367118533827301,-0.024
1748367118541513586,0.002
1748367118549199871,0.029
1748367118556886156,0.056
1748367118564572441,0.083
1748367118572258726,0.107
1748367118579945011,0.124
1748367118587631296,0.134
1748367118595317581,0.137
1748367118603003866,0.124
1748367118610690207,0.107
1748367118618376562,0.085
1748367118626062917,0.066
1748367118633749272,0.039
1748367118641435627,0.004
1748367118649121982,-0.046
1748367118656808337,-0.105
1748367118664494692,-0.164
1748367118672181047,-0.218
1748367118679867402,-0.262
1748367118687553757,-0.291
1748367118695240112,-0.303
1748367118702926467,-0.306
1748367118710612822,-0.298
1748367118718299177,-0.289
1748367118725985532,-0.279
1748367118733671887,-0.267
1748367118741358242,-0.254
1748367118749044597,-0.244
1748367118756730952,-0.23700000000000002
1748367118764417307,-0.23
1748367118772103662,-0.225
1748367118779790017,-0.22
1748367118787476372,-0.218
1748367118795162727,-0.218
1748367118802849082,-0.213
1748367118810535437,-0.21
1748367118818221792,-0.213
1748367118825908147,-0.21
1748367118833594502,-0.21
1748367118841280857,-0.21
1748367118848967212,-0.20800000000000002
1748367118856653567,-0.21
1748367118864339922,-0.215
1748367118872026277,-0.213
1748367118879712632,-0.198
1748367118887398987,-0.181
1748367118895085342,-0.169
1748367118902771697,-0.161
1748367118910458052,-0.149
1748367118918144407,-0.139
1748367118925830762,-0.156
1748367118933517117,-0.193
1748367118941203472,-0.198
1748367118948889827,-0.183
1748367118956576182,-0.178
1748367118964262537,-0.176
1748367118971948892,-0.171
1748367118979635247,-0.169
1748367118987321602,-0.176
1748367118995007957,-0.2
1748367119002694312,-0.271
1748367119010380667,-0.33
1748367119018067022,-0.085
1748367119025753377,0.646
1748367119033439732,1.499
1748367119041126087,1.807
1748367119048812442,0.933
1748367119056498797,-0.48
1748367119064185152,-0.712
1748367119071871507,-0.139
1748367119079557862,-0.134
1748367119087244217,-0.311
1748367119094930572,-0.191
1748367119102616927,-0.14400000000000002
1748367119110303282,-0.198
1748367119117989637,-0.159
1748367119125675992,-0.112
1748367119133362347,-0.115
1748367119141048702,-0.09
1748367119148735057,-0.056
1748367119156421412,-0.036000000000000004
1748367119164107767,-0.012
1748367119171794159,0.017,95,623
1748367119179480793,0.044,,627
1748367119187167427,0.07100000000000001
1748367119194854061,0.095
1748367119202540695,0.117
1748367119210227329,0.129
1748367119217913963,0.132
1748367119225600597,0.129
1748367119233287231,0.112
1748367119240973865,0.093
1748367119248660499,0.07100000000000001
1748367119256347133,0.048
1748367119264033767,0.017
1748367119271720401,-0.026000000000000002
1748367119279407035,-0.078
1748367119287093669,-0.137
1748367119294780303,-0.193
1748367119302466937,-0.242
1748367119310153571,-0.276
1748367119317840205,-0.296
1748367119325526839,-0.303
1748367119333213473,-0.301
1748367119340900107,-0.291
1748367119348586741,-0.281
1748367119356273375,-0.269
1748367119363960009,-0.257
1748367119371646643,-0.247
1748367119379333277,-0.23700000000000002
1748367119387019911,-0.227
1748367119394706545,-0.222
1748367119402393179,-0.218
1748367119410079813,-0.215
1748367119417766447,-0.213
1748367119425453081,-0.21
1748367119433139715,-0.21
1748367119440826349,-0.20800000000000002
1748367119448512983,-0.20800000000000002
1748367119456199617,-0.20800000000000002
1748367119463886251,-0.20500000000000002
1748367119471572885,-0.203
1748367119479259519,-0.20500000000000002
1748367119486946153,-0.21
1748367119494632787,-0.21
1748367119502319421,-0.203
