time,ecg,hr,rr,marker
1746649519112355086,-0.059000000000000004
1746649519120043043,-0.08600000000000001
1746649519127731000,-0.091
1746649519135418957,-0.044
1746649519143106914,-0.051000000000000004
1746649519150794871,-0.076
1746649519158482828,-0.066
1746649519166170785,-0.08600000000000001
1746649519173858742,-0.081
1746649519181546699,-0.024
1746649519189234656,-0.049
1746649519196922613,-0.093
1746649519204610570,-0.054
1746649519212298527,-0.039
1746649519219986484,-0.046
1746649519227674441,-0.017
1746649519235362398,0.002
1746649519243050355,-0.012
1746649519250738312,-0.034
1746649519258426269,-0.051000000000000004
1746649519266114226,-0.049
1746649519273802183,-0.039
1746649519281490140,-0.051000000000000004
1746649519289178097,-0.056
1746649519296866054,-0.036000000000000004
1746649519304554011,-0.041
1746649519312241968,-0.078
1746649519319929925,-0.098
1746649519327617882,-0.027
1746649519335305839,0.221
1746649519342993796,0.663
1746649519350681753,0.85
1746649519358369710,0.315
1746649519366057667,-0.392
1746649519373745624,-0.5
1746649519381433581,-0.278
1746649519389121538,-0.20700000000000002
1746649519396809495,-0.17
1746649519404497452,-0.054
1746649519412185409,0.007
1746649519419873366,-0.024
1746649519427561323,-0.054
1746649519435249280,-0.009000000000000001
1746649519442937237,0.022
1746649519450625194,0.002
1746649519458313151,0.007
1746649519466001108,0.054
1746649519473689065,0.036000000000000004
1746649519481377022,-0.007
1746649519489064979,0.036000000000000004
1746649519496752936,0.07100000000000001
1746649519504440893,0.034
1746649519512128850,0.027
1746649519519816807,0.076
1746649519527504764,0.073
1746649519535192721,0.044
1746649519542880678,0.10300000000000001
1746649519550568635,0.145
1746649519558256592,0.10300000000000001
1746649519565944549,0.108
1746649519573632506,0.147
1746649519581320463,0.162
1746649519589008420,0.17200000000000001
1746649519596696377,0.162
1746649519604384334,0.152
1746649519612072291,0.157
1746649519619760248,0.162
1746649519627448205,0.165
1746649519635136162,0.138
1746649519642824119,0.076
1746649519650512076,0.019
1746649519658200033,-0.017
1746649519665887990,-0.044
1746649519673576019,-0.07100000000000001,79,782
1746649519681263837,-0.101
1746649519688951655,-0.125
1746649519696639473,-0.135
1746649519704327291,-0.128
1746649519712015109,-0.101
1746649519719702927,-0.096
1746649519727390745,-0.11
1746649519735078563,-0.093
1746649519742766381,-0.098
1746649519750454199,-0.11
1746649519758142017,-0.081
1746649519765829835,-0.056
1746649519773517653,-0.083
1746649519781205471,-0.108
1746649519788893289,-0.078
1746649519796581107,-0.064
1746649519804268925,-0.093
1746649519811956743,-0.11
1746649519819644561,-0.08600000000000001
1746649519827332379,-0.039
1746649519835020197,-0.054
1746649519842708015,-0.091
1746649519850395833,-0.078
1746649519858083651,-0.096
1746649519865771469,-0.106
1746649519873459287,-0.041
1746649519881147105,-0.041
1746649519888834923,-0.096
1746649519896522741,-0.081
1746649519904210559,-0.051000000000000004
1746649519911898377,-0.064
1746649519919586195,-0.051000000000000004
1746649519927274013,-0.059000000000000004
1746649519934961831,-0.093
1746649519942649649,-0.056
1746649519950337467,-0.027
1746649519958025285,-0.061
1746649519965713103,-0.061
1746649519973400921,-0.039
1746649519981088739,-0.059000000000000004
1746649519988776557,-0.056
1746649519996464375,-0.034
1746649520004152193,-0.034
1746649520011840011,-0.012
1746649520019527829,0.014
1746649520027215647,-0.019
1746649520034903465,-0.049
1746649520042591283,-0.044
1746649520050279101,-0.046
1746649520057966919,-0.032
1746649520065654737,-0.009000000000000001
1746649520073342555,-0.049
1746649520081030373,-0.096
1746649520088718191,-0.064
1746649520096406009,-0.022
1746649520104093827,-0.036000000000000004
1746649520111781645,0.051000000000000004
1746649520119469463,0.438
1746649520127157281,0.85
1746649520134845099,0.673
1746649520142532917,-0.056
1746649520150220735,-0.498
1746649520157908553,-0.367
1746649520165596371,-0.214
1746649520173284189,-0.20700000000000002
1746649520180972007,-0.128
1746649520188659825,-0.034
1746649520196347643,-0.002
1746649520204035461,0.004
1746649520211723279,0.002
1746649520219411097,-0.009000000000000001
1746649520227098915,-0.007
1746649520234786782,0.017
1746649520242474879,0.049
1746649520250162976,0.046
1746649520257851073,0.022
1746649520265539170,0.029
1746649520273227267,0.056
1746649520280915364,0.076
1746649520288603461,0.088
1746649520296291558,0.073
1746649520303979655,0.078
1746649520311667752,0.11
1746649520319355849,0.11800000000000001
1746649520327043946,0.096
1746649520334732043,0.088
1746649520342420140,0.155
1746649520350108237,0.194
1746649520357796334,0.14300000000000002
1746649520365484431,0.145
1746649520373172528,0.194
1746649520380860625,0.18
1746649520388548722,0.157
1746649520396236819,0.152
1746649520403924916,0.152
1746649520411613013,0.155
1746649520419301110,0.113
1746649520426989207,0.044
1746649520434677304,0.002
1746649520442365401,-0.004
1746649520450053498,-0.046
1746649520457741595,-0.123
1746649520465429692,-0.14300000000000002
1746649520473117789,-0.135
1746649520480805886,-0.13
1746649520488493983,-0.091
1746649520496182080,-0.059000000000000004
1746649520503870177,-0.078
1746649520511558274,-0.101
1746649520519246371,-0.093
1746649520526934468,-0.08600000000000001
1746649520534622565,-0.08600000000000001
1746649520542310662,-0.076
1746649520549998759,-0.083
1746649520557686856,-0.073
1746649520565374953,-0.027
1746649520573063050,-0.032
1746649520580751147,-0.081
1746649520588439244,-0.091
1746649520596127341,-0.059000000000000004
1746649520603815438,-0.032
1746649520611503535,-0.036000000000000004
1746649520619191632,-0.076
1746649520626879729,-0.108
1746649520634567826,-0.073
1746649520642255923,-0.036000000000000004
1746649520649944020,-0.059000000000000004
1746649520657632117,-0.066
1746649520665320214,-0.081
1746649520673008311,-0.096
1746649520680696408,0.002
1746649520688384505,0.036000000000000004
1746649520696072602,-0.088
1746649520703760699,-0.073
1746649520711448796,0.017
1746649520719136893,-0.073
1746649520726824990,-0.13
1746649520734513087,-0.041
1746649520742201184,-0.024
1746649520749889281,-0.07100000000000001
1746649520757577378,-0.054
1746649520765265475,0.019
1746649520772953572,0.056
1746649520780641669,0.017
1746649520788329766,-0.019
1746649520796017885,-0.054,79,770
1746649520803705843,-0.073
1746649520811393801,0.004
1746649520819081759,0.027
1746649520826769717,-0.07100000000000001
1746649520834457675,-0.093
1746649520842145633,-0.073
1746649520849833591,-0.059000000000000004
1746649520857521549,0.007
1746649520865209507,-0.004
1746649520872897465,-0.054
1746649520880585423,0.14300000000000002
1746649520888273381,0.581
1746649520895961339,0.769
1746649520903649297,0.337
1746649520911337255,-0.23600000000000002
1746649520919025213,-0.367
1746649520926713171,-0.293
1746649520934401129,-0.298
1746649520942089087,-0.192
1746649520949777045,-0.039
1746649520957465003,-0.012
1746649520965152961,-0.019
1746649520972840919,-0.012
1746649520980528877,-0.019
1746649520988216835,-0.044
1746649520995904793,-0.029
1746649521003592751,0.046
1746649521011280709,0.056
1746649521018968667,0.004
1746649521026656625,-0.012
1746649521034344583,0.012
1746649521042032541,0.051000000000000004
1746649521049720499,0.066
1746649521057408457,0.064
1746649521065096415,0.041
1746649521072784373,0.014
1746649521080472331,0.041
1746649521088160289,0.093
1746649521095848247,0.138
1746649521103536205,0.128
1746649521111224163,0.108
1746649521118912121,0.133
1746649521126600079,0.162
1746649521134288037,0.184
1746649521141975995,0.15
1746649521149663953,0.11800000000000001
1746649521157351911,0.209
1746649521165039869,0.251
1746649521172727827,0.145
1746649521180415785,0.096
1746649521188103743,0.056
1746649521195791701,-0.036000000000000004
1746649521203479659,-0.036000000000000004
1746649521211167617,-0.032
1746649521218855575,-0.108
1746649521226543533,-0.14300000000000002
1746649521234231491,-0.138
1746649521241919449,-0.145
1746649521249607407,-0.147
1746649521257295365,-0.135
1746649521264983323,-0.115
1746649521272671281,-0.113
1746649521280359239,-0.135
1746649521288047197,-0.13
1746649521295735155,-0.11
1746649521303423113,-0.113
1746649521311111071,-0.093
1746649521318799029,-0.088
1746649521326486987,-0.123
1746649521334174945,-0.10300000000000001
1746649521341862903,-0.08600000000000001
1746649521349550861,-0.108
1746649521357238822,-0.093,79,776
1746649521364927128,-0.076,,780
1746649521372615434,-0.113
1746649521380303740,-0.135
1746649521387992046,-0.101
1746649521395680352,-0.083
1746649521403368658,-0.106
1746649521411056964,-0.10300000000000001
1746649521418745270,-0.096
1746649521426433576,-0.13
1746649521434121882,-0.128
1746649521441810188,-0.066
1746649521449498494,-0.066
1746649521457186800,-0.108
1746649521464875106,-0.108
1746649521472563412,-0.106
1746649521480251718,-0.11
1746649521487940024,-0.10300000000000001
1746649521495628330,-0.106
1746649521503316636,-0.093
1746649521511004942,-0.064
1746649521518693248,-0.056
1746649521526381554,-0.056
1746649521534069860,-0.039
1746649521541758166,-0.012
1746649521549446472,-0.019
1746649521557134778,-0.073
1746649521564823084,-0.078
1746649521572511390,-0.056
1746649521580199696,-0.123
1746649521587888002,-0.16
1746649521595576308,-0.101
1746649521603264614,-0.083
1746649521610952920,-0.11
1746649521618641226,-0.083
1746649521626329532,0.004
1746649521634017838,0.28300000000000003
1746649521641706144,0.729
1746649521649394450,0.739
1746649521657082756,0.093
1746649521664771062,-0.431
1746649521672459368,-0.374
1746649521680147674,-0.244
1746649521687835980,-0.28600000000000003
1746649521695524286,-0.216
1746649521703212592,-0.064
1746649521710900898,-0.046
1746649521718589204,-0.069
1746649521726277510,-0.027
1746649521733965816,-0.029
1746649521741654122,-0.054
1746649521749342428,-0.024
1746649521757030734,-0.024
1746649521764719040,-0.049
1746649521772407346,-0.014
1746649521780095652,0.014
1746649521787783958,0.002
1746649521795472264,0.009000000000000001
1746649521803160570,0.034
1746649521810848876,0.029
1746649521818537182,0.019
1746649521826225488,0.022
1746649521833913794,0.036000000000000004
1746649521841602100,0.051000000000000004
1746649521849290406,0.066
1746649521856978712,0.113
1746649521864667018,0.138
1746649521872355324,0.13
1746649521880043630,0.133
1746649521887731936,0.14
1746649521895420242,0.152
1746649521903108548,0.15
1746649521910796854,0.135
1746649521918485187,0.157
1746649521926172935,0.16
1746649521933860683,0.081
1746649521941548431,0.022
1746649521949236179,-0.002
1746649521956923927,-0.061
1746649521964611675,-0.145
1746649521972299423,-0.17
1746649521979987171,-0.128
1746649521987674919,-0.128
1746649521995362667,-0.182
1746649522003050415,-0.177
1746649522010738163,-0.145
1746649522018425911,-0.14300000000000002
1746649522026113659,-0.14
1746649522033801407,-0.14
1746649522041489155,-0.152
1746649522049176903,-0.128
1746649522056864651,-0.096
1746649522064552399,-0.11
1746649522072240147,-0.11800000000000001
1746649522079927895,-0.096
1746649522087615643,-0.078
1746649522095303391,-0.088
1746649522102991139,-0.101
1746649522110678887,-0.088
1746649522118366635,-0.096
1746649522126054383,-0.123
1746649522133742131,-0.115
1746649522141429879,-0.10300000000000001
1746649522149117627,-0.101
1746649522156805375,-0.088
1746649522164493123,-0.064
1746649522172180871,-0.061
1746649522179868619,-0.078
1746649522187556367,-0.108
1746649522195244115,-0.11
1746649522202931863,-0.093
1746649522210619611,-0.098
1746649522218307359,-0.113
1746649522225995107,-0.093
1746649522233682855,-0.059000000000000004
1746649522241370603,-0.056
1746649522249058351,-0.054
1746649522256746099,-0.041
1746649522264433847,-0.036000000000000004
1746649522272121595,-0.027
1746649522279809343,-0.034
1746649522287497091,-0.064
1746649522295184839,-0.078
1746649522302872587,-0.073
1746649522310560335,-0.059000000000000004
1746649522318248083,-0.056
1746649522325935831,-0.073
1746649522333623579,-0.059000000000000004
1746649522341311327,-0.044
1746649522348999075,-0.093
1746649522356686823,-0.08600000000000001
1746649522364374571,0.14300000000000002
1746649522372062319,0.5640000000000001
1746649522379750067,0.779
1746649522387437815,0.387
1746649522395125563,-0.244
1746649522402813311,-0.438
1746649522410501059,-0.266
1746649522418188807,-0.202
1746649522425876555,-0.187
1746649522433564303,-0.073
1746649522441252051,-0.039
1746649522448939799,-0.083
1746649522456627547,-0.066
1746649522464315295,-0.034
1746649522472003043,-0.019
1746649522479690862,-0.004,78,766
1746649522487378889,0.004
1746649522495066916,0.002
1746649522502754943,0.009000000000000001
1746649522510442970,0.022
1746649522518130997,0.007
1746649522525819024,-0.022
1746649522533507051,-0.012
1746649522541195078,0.041
1746649522548883105,0.078
1746649522556571132,0.076
1746649522564259159,0.069
1746649522571947186,0.07100000000000001
1746649522579635213,0.08600000000000001
1746649522587323240,0.113
1746649522595011267,0.13
1746649522602699294,0.145
1746649522610387321,0.17200000000000001
1746649522618075348,0.194
1746649522625763375,0.202
1746649522633451402,0.197
1746649522641139429,0.194
1746649522648827456,0.187
1746649522656515483,0.17
1746649522664203510,0.133
1746649522671891537,0.07100000000000001
1746649522679579564,0.007
1746649522687267591,-0.034
1746649522694955618,-0.069
1746649522702643645,-0.108
1746649522710331672,-0.13
1746649522718019699,-0.138
1746649522725707726,-0.14
1746649522733395753,-0.135
1746649522741083780,-0.133
1746649522748771807,-0.133
1746649522756459834,-0.128
1746649522764147861,-0.113
1746649522771835888,-0.106
1746649522779523915,-0.11
1746649522787211942,-0.108
1746649522794899969,-0.093
1746649522802587996,-0.083
1746649522810276023,-0.08600000000000001
1746649522817964050,-0.088
1746649522825652077,-0.091
1746649522833340104,-0.08600000000000001
1746649522841028131,-0.088
1746649522848716158,-0.093
1746649522856404185,-0.083
1746649522864092212,-0.081
1746649522871780239,-0.093
1746649522879468266,-0.096
1746649522887156293,-0.081
1746649522894844320,-0.081
1746649522902532347,-0.091
1746649522910220374,-0.08600000000000001
1746649522917908401,-0.08600000000000001
1746649522925596428,-0.093
1746649522933284455,-0.081
1746649522940972482,-0.066
1746649522948660509,-0.078
1746649522956348536,-0.088
1746649522964036563,-0.08600000000000001
1746649522971724590,-0.08600000000000001
1746649522979412617,-0.083
1746649522987100644,-0.076
1746649522994788671,-0.064
1746649523002476698,-0.041
1746649523010164725,-0.027
1746649523017852752,-0.029
1746649523025540779,-0.024
1746649523033228806,-0.027
1746649523040916882,-0.049
1746649523048605048,-0.054
1746649523056293214,-0.046
1746649523063981380,-0.051000000000000004
1746649523071669546,-0.056
1746649523079357712,-0.059000000000000004
1746649523087045878,-0.059000000000000004
1746649523094734044,-0.054
1746649523102422210,-0.07100000000000001
1746649523110110376,-0.076
1746649523117798542,0.106
1746649523125486708,0.542
1746649523133174874,0.789
1746649523140863040,0.404
1746649523148551206,-0.214
1746649523156239372,-0.40900000000000003
1746649523163927538,-0.28300000000000003
1746649523171615704,-0.234
1746649523179303870,-0.20400000000000001
1746649523186992036,-0.091
1746649523194680202,-0.044
1746649523202368368,-0.056
1746649523210056534,-0.024
1746649523217744700,-0.002
1746649523225432866,-0.027
1746649523233121032,-0.036000000000000004
1746649523240809198,-0.009000000000000001
1746649523248497364,0.0
1746649523256185530,-0.007
1746649523263873696,-0.002
1746649523271561862,0.012
1746649523279250028,0.017
1746649523286938194,0.019
1746649523294626360,0.034
1746649523302314526,0.054
1746649523310002692,0.059000000000000004
1746649523317690858,0.049
1746649523325379024,0.066
1746649523333067190,0.113
1746649523340755356,0.133
1746649523348443522,0.135
1746649523356131688,0.15
1746649523363819854,0.155
1746649523371508020,0.162
1746649523379196186,0.18
1746649523386884352,0.18
1746649523394572518,0.17200000000000001
1746649523402260684,0.18
1746649523409948850,0.17500000000000002
1746649523417637016,0.138
1746649523425325182,0.091
1746649523433013348,0.039
1746649523440701514,-0.022
1746649523448389680,-0.069
1746649523456077846,-0.083
1746649523463766012,-0.101
1746649523471454178,-0.123
1746649523479142344,-0.135
1746649523486830510,-0.128
1746649523494518676,-0.12
1746649523502206842,-0.11800000000000001
1746649523509895008,-0.11
1746649523517583174,-0.093
1746649523525271340,-0.081
1746649523532959506,-0.08600000000000001
1746649523540647672,-0.088
1746649523548335838,-0.081
1746649523556024004,-0.083
1746649523563712170,-0.081
1746649523571400336,-0.078
1746649523579088502,-0.076
1746649523586776668,-0.076
1746649523594464834,-0.081
1746649523602153072,-0.081,78,751
1746649523609841029,-0.073
1746649523617528986,-0.078
1746649523625216943,-0.076
1746649523632904900,-0.064
1746649523640592857,-0.069
1746649523648280814,-0.08600000000000001
1746649523655968771,-0.088
1746649523663656728,-0.083
1746649523671344685,-0.078
1746649523679032642,-0.073
1746649523686720599,-0.069
1746649523694408556,-0.07100000000000001
1746649523702096513,-0.07100000000000001
1746649523709784470,-0.066
1746649523717472427,-0.069
1746649523725160384,-0.073
1746649523732848341,-0.069
1746649523740536298,-0.066
1746649523748224255,-0.073
1746649523755912212,-0.078
1746649523763600169,-0.078
1746649523771288126,-0.064
1746649523778976083,-0.051000000000000004
1746649523786664040,-0.049
1746649523794351997,-0.044
1746649523802039954,-0.034
1746649523809727911,-0.024
1746649523817415868,-0.029
1746649523825103825,-0.051000000000000004
1746649523832791782,-0.07100000000000001
1746649523840479739,-0.064
1746649523848167696,-0.054
1746649523855855653,-0.054
1746649523863543610,-0.059000000000000004
1746649523871231567,-0.056
1746649523878919524,-0.056
1746649523886607481,-0.07100000000000001
1746649523894295438,-0.07100000000000001
1746649523901983395,0.13
1746649523909671352,0.591
1746649523917359309,0.835
1746649523925047266,0.436
1746649523932735223,-0.189
1746649523940423180,-0.401
1746649523948111137,-0.278
1746649523955799094,-0.216
1746649523963487051,-0.194
1746649523971175008,-0.098
1746649523978862965,-0.059000000000000004
1746649523986550922,-0.076
1746649523994238879,-0.059000000000000004
1746649524001926836,-0.039
1746649524009614793,-0.049
1746649524017302750,-0.049
1746649524024990707,-0.032
1746649524032678664,-0.032
1746649524040366621,-0.029
1746649524048054578,-0.007
1746649524055742535,0.0
1746649524063430492,-0.007
1746649524071118449,-0.002
1746649524078806406,0.009000000000000001
1746649524086494363,0.019
1746649524094182320,0.034
1746649524101870277,0.041
1746649524109558234,0.051000000000000004
1746649524117246191,0.07100000000000001
1746649524124934148,0.083
1746649524132622105,0.096
1746649524140310062,0.11800000000000001
1746649524147998019,0.135
1746649524155685976,0.152
1746649524163374005,0.17
1746649524171061962,0.167
1746649524178749919,0.167
1746649524186437876,0.177
1746649524194125833,0.162
1746649524201813790,0.123
1746649524209501747,0.078
1746649524217189704,0.024
1746649524224877661,-0.032
1746649524232565618,-0.069
1746649524240253575,-0.096
1746649524247941532,-0.13
1746649524255629489,-0.14
1746649524263317446,-0.13
1746649524271005403,-0.125
1746649524278693360,-0.138
1746649524286381317,-0.14
1746649524294069274,-0.13
1746649524301757231,-0.11800000000000001
1746649524309445188,-0.11800000000000001
1746649524317133145,-0.113
1746649524324821102,-0.10300000000000001
1746649524332509059,-0.108
1746649524340197016,-0.10300000000000001
1746649524347884973,-0.08600000000000001
1746649524355572930,-0.093
1746649524363260887,-0.106
1746649524370948844,-0.096
1746649524378636801,-0.083
1746649524386324758,-0.083
1746649524394012715,-0.093
1746649524401700672,-0.096
1746649524409388629,-0.093
1746649524417076586,-0.096
1746649524424764543,-0.091
1746649524432452500,-0.088
1746649524440140457,-0.091
1746649524447828414,-0.08600000000000001
1746649524455516371,-0.08600000000000001
1746649524463204328,-0.091
1746649524470892285,-0.083
1746649524478580242,-0.069
1746649524486268199,-0.07100000000000001
1746649524493956156,-0.076
1746649524501644113,-0.073
1746649524509332070,-0.07100000000000001
1746649524517020027,-0.076
1746649524524707984,-0.076
1746649524532395941,-0.076
1746649524540083898,-0.073
1746649524547771855,-0.07100000000000001
1746649524555459812,-0.059000000000000004
1746649524563147769,-0.046
1746649524570835726,-0.046
1746649524578523683,-0.036000000000000004
1746649524586211640,-0.022
1746649524593899597,-0.027
1746649524601587554,-0.041
1746649524609275511,-0.046
1746649524616963468,-0.049
1746649524624651425,-0.051000000000000004
1746649524632339382,-0.049
1746649524640027339,-0.044
1746649524647715296,-0.049
1746649524655403253,-0.061
1746649524663091210,-0.076
1746649524670779167,-0.07100000000000001
1746649524678467124,0.115
1746649524686155081,0.557
1746649524693843038,0.838
1746649524701530995,0.49
1746649524709218952,-0.14300000000000002
1746649524716906909,-0.377
1746649524724594938,-0.244,78,733
1746649524732283314,-0.189
1746649524739971690,-0.182
1746649524747660066,-0.091
1746649524755348442,-0.054
1746649524763036818,-0.073
1746649524770725194,-0.059000000000000004
1746649524778413570,-0.041
1746649524786101946,-0.044
1746649524793790322,-0.039
1746649524801478698,-0.032
1746649524809167074,-0.032
1746649524816855450,-0.024
1746649524824543826,-0.007
1746649524832232202,0.009000000000000001
1746649524839920578,0.014
1746649524847608954,0.012
1746649524855297330,0.019
1746649524862985706,0.027
1746649524870674082,0.032
1746649524878362458,0.044
1746649524886050834,0.059000000000000004
1746649524893739210,0.073
1746649524901427586,0.088
1746649524909115962,0.093
1746649524916804338,0.106
1746649524924492714,0.145
1746649524932181090,0.165
1746649524939869466,0.16
1746649524947557842,0.165
1746649524955246218,0.177
1746649524962934594,0.177
1746649524970622970,0.16
1746649524978311346,0.135
1746649524985999722,0.091
1746649524993688098,0.027
1746649525001376474,-0.024
1746649525009064850,-0.051000000000000004
1746649525016753226,-0.07100000000000001
1746649525024441602,-0.10300000000000001
1746649525032129978,-0.123
1746649525039818354,-0.125
1746649525047506730,-0.128
1746649525055195106,-0.128
1746649525062883482,-0.12
1746649525070571858,-0.115
1746649525078260234,-0.11
1746649525085948610,-0.10300000000000001
1746649525093636986,-0.101
1746649525101325362,-0.098
1746649525109013738,-0.098
1746649525116702114,-0.096
1746649525124390490,-0.091
1746649525132078866,-0.08600000000000001
1746649525139767242,-0.088
1746649525147455618,-0.088
1746649525155143994,-0.08600000000000001
1746649525162832370,-0.08600000000000001
1746649525170520746,-0.096
1746649525178209122,-0.101
1746649525185897498,-0.088
1746649525193585874,-0.08600000000000001
1746649525201274250,-0.091
1746649525208962626,-0.08600000000000001
1746649525216651002,-0.083
1746649525224339378,-0.091
1746649525232027754,-0.091
1746649525239716130,-0.083
1746649525247404506,-0.078
1746649525255092882,-0.076
1746649525262781258,-0.073
1746649525270469634,-0.069
1746649525278158010,-0.07100000000000001
1746649525285846393,-0.078
1746649525293534490,-0.07100000000000001
1746649525301222587,-0.061
1746649525308910684,-0.069
1746649525316598781,-0.081
1746649525324286878,-0.081
1746649525331974975,-0.064
1746649525339663072,-0.051000000000000004
1746649525347351169,-0.041
1746649525355039266,-0.032
1746649525362727363,-0.022
1746649525370415460,-0.019
1746649525378103557,-0.034
1746649525385791654,-0.051000000000000004
1746649525393479751,-0.054
1746649525401167848,-0.054
1746649525408855945,-0.059000000000000004
1746649525416544042,-0.056
1746649525424232139,-0.051000000000000004
1746649525431920236,-0.051000000000000004
1746649525439608333,-0.061
1746649525447296430,-0.083
1746649525454984527,-0.066
1746649525462672624,0.167
1746649525470360721,0.626
1746649525478048818,0.806
1746649525485736915,0.34500000000000003
1746649525493425012,-0.249
1746649525501113109,-0.372
1746649525508801206,-0.229
1746649525516489303,-0.20700000000000002
1746649525524177400,-0.187
1746649525531865497,-0.08600000000000001
1746649525539553594,-0.066
1746649525547241691,-0.083
1746649525554929788,-0.051000000000000004
1746649525562617885,-0.034
1746649525570305982,-0.051000000000000004
1746649525577994079,-0.049
1746649525585682176,-0.032
1746649525593370273,-0.029
1746649525601058370,-0.029
1746649525608746467,-0.024
1746649525616434564,-0.022
1746649525624122661,-0.014
1746649525631810758,-0.007
1746649525639498855,0.007
1746649525647186952,0.024
1746649525654875049,0.029
1746649525662563146,0.029
1746649525670251243,0.044
1746649525677939340,0.059000000000000004
1746649525685627437,0.069
1746649525693315534,0.088
1746649525701003631,0.113
1746649525708691728,0.123
1746649525716379825,0.125
1746649525724067922,0.14
1746649525731756019,0.147
1746649525739444116,0.14300000000000002
1746649525747132213,0.14
1746649525754820310,0.13
1746649525762508407,0.098
1746649525770196504,0.049
1746649525777884601,-0.002
1746649525785572698,-0.049
1746649525793260795,-0.088
1746649525800948892,-0.125
1746649525808636989,-0.15
1746649525816325086,-0.152
1746649525824013183,-0.15
1746649525831701280,-0.155
1746649525839389377,-0.16
1746649525847077500,-0.155,79,754
1746649525854765527,-0.147,,784
1746649525862453554,-0.138
1746649525870141581,-0.13
1746649525877829608,-0.13
1746649525885517635,-0.133
1746649525893205662,-0.123
1746649525900893689,-0.11800000000000001
1746649525908581716,-0.123
1746649525916269743,-0.11800000000000001
1746649525923957770,-0.113
1746649525931645797,-0.12
1746649525939333824,-0.133
1746649525947021851,-0.13
1746649525954709878,-0.11
1746649525962397905,-0.098
1746649525970085932,-0.10300000000000001
1746649525977773959,-0.113
1746649525985461986,-0.11
1746649525993150013,-0.106
1746649526000838040,-0.106
1746649526008526067,-0.106
1746649526016214094,-0.108
1746649526023902121,-0.098
1746649526031590148,-0.091
1746649526039278175,-0.093
1746649526046966202,-0.096
1746649526054654229,-0.093
1746649526062342256,-0.091
1746649526070030283,-0.083
1746649526077718310,-0.083
1746649526085406337,-0.076
1746649526093094364,-0.059000000000000004
1746649526100782391,-0.049
1746649526108470418,-0.044
1746649526116158445,-0.036000000000000004
1746649526123846472,-0.049
1746649526131534499,-0.059000000000000004
1746649526139222526,-0.051000000000000004
1746649526146910553,-0.061
1746649526154598580,-0.078
1746649526162286607,-0.061
1746649526169974634,-0.046
1746649526177662661,-0.056
1746649526185350688,-0.069
1746649526193038715,-0.051000000000000004
1746649526200726742,0.14300000000000002
1746649526208414769,0.599
1746649526216102796,0.845
1746649526223790823,0.355
1746649526231478850,-0.355
1746649526239166877,-0.48
1746649526246854904,-0.261
1746649526254542931,-0.214
1746649526262230958,-0.187
1746649526269918985,-0.061
1746649526277607012,-0.007
1746649526285295039,-0.007
1746649526292983066,0.012
1746649526300671093,0.017
1746649526308359120,0.017
1746649526316047147,0.032
1746649526323735174,0.039
1746649526331423201,0.041
1746649526339111228,0.061
1746649526346799255,0.073
1746649526354487282,0.064
1746649526362175309,0.07100000000000001
1746649526369863336,0.091
1746649526377551363,0.101
1746649526385239390,0.106
1746649526392927417,0.11800000000000001
1746649526400615444,0.14
1746649526408303520,0.155,79,776
1746649526415991547,0.157
1746649526423679574,0.18
1746649526431367601,0.209
1746649526439055628,0.219
1746649526446743655,0.241
1746649526454431682,0.271
1746649526462119709,0.273
1746649526469807736,0.271
1746649526477495763,0.266
1746649526485183790,0.246
1746649526492871817,0.216
1746649526500559844,0.177
1746649526508247871,0.133
1746649526515935898,0.07100000000000001
1746649526523623925,0.017
1746649526531311952,-0.014
1746649526538999979,-0.054
1746649526546688006,-0.088
1746649526554376033,-0.096
1746649526562064060,-0.083
1746649526569752087,-0.073
1746649526577440114,-0.078
1746649526585128141,-0.078
1746649526592816168,-0.061
1746649526600504195,-0.064
1746649526608192222,-0.064
1746649526615880249,-0.036000000000000004
1746649526623568276,-0.027
1746649526631256303,-0.039
1746649526638944330,-0.034
1746649526646632357,-0.017
1746649526654320384,-0.009000000000000001
1746649526662008411,-0.022
1746649526669696438,-0.027
1746649526677384465,-0.014
1746649526685072492,-0.012
1746649526692760519,-0.019
1746649526700448546,-0.019
1746649526708136573,-0.014
1746649526715824600,-0.019
1746649526723512627,-0.027
1746649526731200654,-0.017
1746649526738888681,-0.009000000000000001
1746649526746576708,-0.017
1746649526754264735,-0.027
1746649526761952762,-0.022
1746649526769640789,-0.009000000000000001
1746649526777328816,-0.004
1746649526785016843,-0.002
1746649526792704870,0.009000000000000001
1746649526800392897,0.024
1746649526808080924,0.036000000000000004
1746649526815768951,0.032
1746649526823456978,0.009000000000000001
1746649526831145005,0.002
1746649526838833032,0.0
1746649526846521059,0.004
1746649526854209086,0.012
1746649526861897113,0.007
1746649526869585140,-0.002
1746649526877273167,-0.004
1746649526884961194,-0.032
1746649526892649221,-0.041
1746649526900337248,0.189
1746649526908025275,0.6970000000000001
1746649526915713302,0.909
1746649526923401329,0.369
1746649526931089356,-0.327
1746649526938777383,-0.40900000000000003
1746649526946465410,-0.17
1746649526954153437,-0.147
1746649526961841464,-0.147
1746649526969529540,-0.019
1746649526977217567,0.024
1746649526984905594,-0.007
1746649526992593621,0.017
1746649527000281648,0.046
1746649527007969675,0.034
1746649527015657702,0.039
1746649527023345729,0.054
1746649527031033756,0.051000000000000004
1746649527038721783,0.044
1746649527046409810,0.054
1746649527054097837,0.066
1746649527061785864,0.073
1746649527069473891,0.073
1746649527077161918,0.078
1746649527084849945,0.093
1746649527092537972,0.101
1746649527100225999,0.10300000000000001
1746649527107914026,0.115
1746649527115602053,0.128
1746649527123290080,0.138
1746649527130978107,0.15
1746649527138666134,0.167
1746649527146354161,0.184
1746649527154042188,0.197
1746649527161730215,0.199
1746649527169418242,0.20400000000000001
1746649527177106269,0.20400000000000001
1746649527184794296,0.192
1746649527192482323,0.177
1746649527200170350,0.145
1746649527207858377,0.091
1746649527215546404,0.041
1746649527223234431,-0.012
1746649527230922458,-0.059000000000000004
1746649527238610485,-0.078
1746649527246298512,-0.081
1746649527253986539,-0.098
1746649527261674566,-0.123
1746649527269362593,-0.11800000000000001
1746649527277050620,-0.106
1746649527284738647,-0.098
1746649527292426674,-0.088
1746649527300114701,-0.083
1746649527307802728,-0.076
1746649527315490755,-0.076
1746649527323178782,-0.091
1746649527330866809,-0.076
1746649527338554836,-0.051000000000000004
1746649527346242863,-0.066
1746649527353930890,-0.083
1746649527361618917,-0.07100000000000001
1746649527369306944,-0.066
1746649527376994971,-0.076
1746649527384682998,-0.069
1746649527392371025,-0.064
1746649527400059052,-0.073
1746649527407747079,-0.083
1746649527415435106,-0.073
1746649527423123133,-0.066
1746649527430811160,-0.076
1746649527438499187,-0.076
1746649527446187214,-0.061
1746649527453875241,-0.064
1746649527461563268,-0.081
1746649527469251295,-0.081
1746649527476939322,-0.078
1746649527484627349,-0.083
1746649527492315376,-0.076
1746649527500003403,-0.061
1746649527507691430,-0.054
1746649527515379457,-0.046
1746649527523067484,-0.036000000000000004
1746649527530755560,-0.039,78,782
1746649527538443587,-0.049,,738
1746649527546131614,-0.054
1746649527553819641,-0.051000000000000004
1746649527561507668,-0.056
1746649527569195695,-0.064
1746649527576883722,-0.056
1746649527584571749,-0.049
1746649527592259776,-0.061
1746649527599947803,-0.096
1746649527607635830,-0.12
1746649527615323857,0.009000000000000001
1746649527623011884,0.438
1746649527630699911,0.867
1746649527638387938,0.707
1746649527646075965,0.014
1746649527653763992,-0.399
1746649527661452019,-0.276
1746649527669140046,-0.167
1746649527676828073,-0.199
1746649527684516100,-0.12
1746649527692204127,-0.049
1746649527699892154,-0.08600000000000001
1746649527707580181,-0.088
1746649527715268208,-0.054
1746649527722956235,-0.051000000000000004
1746649527730644262,-0.049
1746649527738332289,-0.034
1746649527746020316,-0.039
1746649527753708343,-0.044
1746649527761396370,-0.032
1746649527769084397,-0.019
1746649527776772424,-0.017
1746649527784460451,-0.014
1746649527792148478,-0.009000000000000001
1746649527799836505,0.0
1746649527807524532,0.007
1746649527815212559,0.009000000000000001
1746649527822900586,0.017
1746649527830588613,0.034
1746649527838276640,0.046
1746649527845964667,0.061
1746649527853652694,0.07100000000000001
1746649527861340721,0.073
1746649527869028748,0.091
1746649527876716775,0.11
1746649527884404802,0.11800000000000001
1746649527892092829,0.115
1746649527899780856,0.11800000000000001
1746649527907468883,0.123
1746649527915156910,0.096
1746649527922844937,0.044
1746649527930532964,0.012
1746649527938220991,-0.022
1746649527945909018,-0.076
1746649527953597045,-0.11
1746649527961285072,-0.123
1746649527968973099,-0.13
1746649527976661126,-0.133
1746649527984349153,-0.135
1746649527992037180,-0.138
1746649527999725207,-0.133
1746649528007413234,-0.123
1746649528015101261,-0.123
1746649528022789288,-0.125
1746649528030477315,-0.12
1746649528038165342,-0.113
1746649528045853369,-0.12
1746649528053541396,-0.11800000000000001
1746649528061229423,-0.11
1746649528068917450,-0.108
1746649528076605477,-0.11800000000000001
1746649528084293504,-0.125
1746649528091981576,-0.125
1746649528099669603,-0.113
1746649528107357630,-0.108
1746649528115045657,-0.12
1746649528122733684,-0.123
1746649528130421711,-0.11800000000000001
1746649528138109738,-0.11
1746649528145797765,-0.108
1746649528153485792,-0.106
1746649528161173819,-0.101
1746649528168861846,-0.106
1746649528176549873,-0.11
1746649528184237900,-0.113
1746649528191925927,-0.113
1746649528199613954,-0.113
1746649528207301981,-0.11
1746649528214990008,-0.096
1746649528222678035,-0.07100000000000001
1746649528230366062,-0.064
1746649528238054089,-0.066
1746649528245742116,-0.059000000000000004
1746649528253430143,-0.064
1746649528261118170,-0.081
1746649528268806197,-0.078
1746649528276494224,-0.076
1746649528284182251,-0.081
1746649528291870278,-0.073
1746649528299558305,-0.07100000000000001
1746649528307246332,-0.076
1746649528314934359,-0.076
1746649528322622386,-0.10300000000000001
1746649528330310413,-0.10300000000000001
1746649528337998440,0.115
1746649528345686467,0.594
1746649528353374494,0.858
1746649528361062521,0.443
1746649528368750548,-0.209
1746649528376438575,-0.374
1746649528384126602,-0.202
1746649528391814629,-0.167
1746649528399502656,-0.165
1746649528407190683,-0.083
1746649528414878710,-0.061
1746649528422566737,-0.081
1746649528430254764,-0.07100000000000001
1746649528437942791,-0.049
1746649528445630818,-0.034
1746649528453318845,-0.027
1746649528461006872,-0.024
1746649528468694899,-0.019
1746649528476382926,-0.009000000000000001
1746649528484070953,-0.004
1746649528491758980,0.002
1746649528499447007,0.012
1746649528507135034,0.017
1746649528514823061,0.019
1746649528522511088,0.024
1746649528530199115,0.039
1746649528537887142,0.054
1746649528545575169,0.064
1746649528553263196,0.078
1746649528560951223,0.091
1746649528568639250,0.101
1746649528576327277,0.11800000000000001
1746649528584015304,0.138
1746649528591703331,0.147
1746649528599391358,0.155
1746649528607079385,0.165
1746649528614767412,0.162
1746649528622455439,0.16
1746649528630143466,0.155
1746649528637831493,0.128
1746649528645519520,0.088
1746649528653207600,0.051000000000000004,79,699
1746649528660895488,0.002
1746649528668583376,-0.027
1746649528676271264,-0.039
1746649528683959152,-0.066
1746649528691647040,-0.083
1746649528699334928,-0.066
1746649528707022816,-0.064
1746649528714710704,-0.078
1746649528722398592,-0.076
1746649528730086480,-0.066
1746649528737774368,-0.056
1746649528745462256,-0.056
1746649528753150144,-0.059000000000000004
1746649528760838032,-0.046
1746649528768525920,-0.041
1746649528776213808,-0.051000000000000004
1746649528783901696,-0.049
1746649528791589584,-0.044
1746649528799277472,-0.049
1746649528806965360,-0.049
1746649528814653248,-0.044
1746649528822341136,-0.046
1746649528830029024,-0.049
1746649528837716912,-0.041
1746649528845404800,-0.036000000000000004
1746649528853092688,-0.046
1746649528860780576,-0.046
1746649528868468464,-0.034
1746649528876156352,-0.032
1746649528883844240,-0.034
1746649528891532128,-0.034
1746649528899220016,-0.027
1746649528906907904,-0.029
1746649528914595792,-0.036000000000000004
1746649528922283680,-0.036000000000000004
1746649528929971568,-0.036000000000000004
1746649528937659456,-0.039
1746649528945347344,-0.039
1746649528953035232,-0.027
1746649528960723120,-0.004
1746649528968411008,-0.002
1746649528976098896,0.0
1746649528983786784,0.017
1746649528991474672,0.007
1746649528999162560,-0.024
1746649529006850448,-0.024
1746649529014538336,-0.017
1746649529022226224,-0.022
1746649529029914112,-0.019
1746649529037602000,-0.014
1746649529045289888,-0.019
1746649529052977776,-0.032
1746649529060665664,-0.066
1746649529068353552,-0.034
1746649529076041440,0.263
1746649529083729328,0.729
1746649529091417216,0.793
1746649529099105104,0.244
1746649529106792992,-0.276
1746649529114480880,-0.28800000000000003
1746649529122168768,-0.152
1746649529129856656,-0.152
1746649529137544544,-0.108
1746649529145232432,-0.029
1746649529152920320,-0.034
1746649529160608208,-0.049
1746649529168296096,-0.024
1746649529175983984,-0.007
1746649529183671872,-0.009000000000000001
1746649529191359760,-0.007
1746649529199047648,0.009000000000000001
1746649529206735536,0.022
1746649529214423446,0.012
1746649529222111613,0.002
1746649529229799780,0.017
1746649529237487947,0.024
1746649529245176114,0.027
1746649529252864281,0.041
1746649529260552448,0.059000000000000004
1746649529268240615,0.056
1746649529275928782,0.064
1746649529283616949,0.07100000000000001
1746649529291305116,0.073
1746649529298993283,0.08600000000000001
1746649529306681450,0.101
1746649529314369617,0.113
1746649529322057784,0.133
1746649529329745951,0.147
1746649529337434118,0.138
1746649529345122285,0.128
1746649529352810452,0.14
1746649529360498619,0.14300000000000002
1746649529368186786,0.11800000000000001
1746649529375874953,0.093
1746649529383563120,0.069
1746649529391251287,0.024
1746649529398939454,-0.034
1746649529406627621,-0.076
1746649529414315788,-0.088
1746649529422003955,-0.096
1746649529429692122,-0.106
1746649529437380289,-0.106
1746649529445068456,-0.106
1746649529452756623,-0.101
1746649529460444790,-0.091
1746649529468132957,-0.098
1746649529475821124,-0.10300000000000001
1746649529483509291,-0.093
1746649529491197458,-0.08600000000000001
1746649529498885625,-0.088
1746649529506573792,-0.091
1746649529514261959,-0.093
1746649529521950126,-0.091
1746649529529638293,-0.083
1746649529537326460,-0.081
1746649529545014627,-0.08600000000000001
1746649529552702794,-0.093
1746649529560390961,-0.098
1746649529568079128,-0.10300000000000001
1746649529575767295,-0.098
1746649529583455462,-0.088
1746649529591143629,-0.088
1746649529598831796,-0.088
1746649529606519963,-0.088
1746649529614208130,-0.081
1746649529621896297,-0.091
1746649529629584464,-0.101
1746649529637272631,-0.088
1746649529644960798,-0.081
1746649529652648965,-0.08600000000000001
1746649529660337132,-0.083
1746649529668025299,-0.076
1746649529675713466,-0.076
1746649529683401633,-0.08600000000000001
1746649529691089800,-0.101
1746649529698777967,-0.093
1746649529706466134,-0.07100000000000001
1746649529714154301,-0.059000000000000004
1746649529721842468,-0.056
1746649529729530635,-0.044
1746649529737218802,-0.034
1746649529744906969,-0.051000000000000004
1746649529752595136,-0.078
1746649529760283303,-0.076
1746649529767971470,-0.064
1746649529775659640,-0.069,79,719
1746649529783347667,-0.078
1746649529791035694,-0.076
1746649529798723721,-0.066
1746649529806411748,-0.078
1746649529814099775,-0.113
1746649529821787802,-0.081
1746649529829475829,0.197
1746649529837163856,0.641
1746649529844851883,0.722
1746649529852539910,0.194
1746649529860227937,-0.34
1746649529867915964,-0.36
1746649529875603991,-0.20400000000000001
1746649529883292018,-0.199
1746649529890980045,-0.17500000000000002
1746649529898668072,-0.093
1746649529906356099,-0.081
1746649529914044126,-0.088
1746649529921732153,-0.07100000000000001
1746649529929420180,-0.059000000000000004
1746649529937108207,-0.056
1746649529944796234,-0.046
1746649529952484261,-0.039
1746649529960172288,-0.041
1746649529967860315,-0.039
1746649529975548342,-0.032
1746649529983236369,-0.024
1746649529990924396,-0.024
1746649529998612423,-0.017
1746649530006300450,-0.007
1746649530013988477,0.0
1746649530021676504,0.007
1746649530029364531,0.012
1746649530037052558,0.022
1746649530044740585,0.039
1746649530052428612,0.046
1746649530060116639,0.046
1746649530067804666,0.064
1746649530075492693,0.078
1746649530083180720,0.078
1746649530090868747,0.081
1746649530098556774,0.088
1746649530106244801,0.093
1746649530113932828,0.093
1746649530121620855,0.076
1746649530129308882,0.044
1746649530136996909,0.012
1746649530144684936,-0.024
1746649530152372963,-0.07100000000000001
1746649530160060990,-0.10300000000000001
1746649530167749017,-0.113
1746649530175437044,-0.125
1746649530183125071,-0.14300000000000002
1746649530190813098,-0.147
1746649530198501125,-0.14
1746649530206189152,-0.14300000000000002
1746649530213877179,-0.14300000000000002
1746649530221565206,-0.138
1746649530229253233,-0.128
1746649530236941260,-0.125
1746649530244629287,-0.13
1746649530252317314,-0.123
1746649530260005341,-0.12
1746649530267693368,-0.128
1746649530275381395,-0.135
1746649530283069422,-0.128
1746649530290757449,-0.12
1746649530298445476,-0.125
1746649530306133503,-0.13
1746649530313821530,-0.13
1746649530321509557,-0.125
1746649530329197584,-0.125
1746649530336885660,-0.125
1746649530344573687,-0.123
1746649530352261714,-0.11800000000000001
1746649530359949741,-0.12
1746649530367637768,-0.12
1746649530375325795,-0.11800000000000001
1746649530383013822,-0.11800000000000001
1746649530390701849,-0.11
1746649530398389876,-0.113
1746649530406077903,-0.115
1746649530413765930,-0.11
1746649530421453957,-0.108
1746649530429141984,-0.108
1746649530436830011,-0.106
1746649530444518038,-0.098
1746649530452206065,-0.098
1746649530459894092,-0.108
1746649530467582119,-0.108
1746649530475270146,-0.10300000000000001
1746649530482958173,-0.108
1746649530490646200,-0.108
1746649530498334227,-0.091
1746649530506022254,-0.073
1746649530513710281,-0.069
1746649530521398308,-0.064
1746649530529086335,-0.061
1746649530536774362,-0.078
1746649530544462389,-0.091
1746649530552150416,-0.088
1746649530559838443,-0.093
1746649530567526470,-0.093
1746649530575214497,-0.078
1746649530582902524,-0.091
1746649530590590551,-0.106
1746649530598278578,-0.11
1746649530605966605,-0.128
1746649530613654632,-0.036000000000000004
1746649530621342659,0.342
1746649530629030686,0.732
1746649530636718713,0.557
1746649530644406740,-0.076
1746649530652094767,-0.424
1746649530659782794,-0.31
1746649530667470821,-0.20700000000000002
1746649530675158848,-0.216
1746649530682846875,-0.147
1746649530690534902,-0.078
1746649530698222929,-0.096
1746649530705910956,-0.098
1746649530713598983,-0.069
1746649530721287010,-0.059000000000000004
1746649530728975037,-0.061
1746649530736663064,-0.059000000000000004
1746649530744351091,-0.051000000000000004
1746649530752039118,-0.049
1746649530759727145,-0.044
1746649530767415172,-0.034
1746649530775103199,-0.027
1746649530782791226,-0.027
1746649530790479253,-0.022
1746649530798167280,-0.012
1746649530805855307,-0.002
1746649530813543334,0.004
1746649530821231361,0.017
1746649530828919388,0.024
1746649530836607415,0.022
1746649530844295442,0.039
1746649530851983469,0.061
1746649530859671496,0.064
1746649530867359523,0.061
1746649530875047550,0.076
1746649530882735577,0.081
1746649530890423604,0.078
1746649530898111680,0.083,80,720
1746649530905799707,0.083,,735
1746649530913487734,0.066
1746649530921175761,0.041
1746649530928863788,0.009000000000000001
1746649530936551815,-0.029
1746649530944239842,-0.07100000000000001
1746649530951927869,-0.10300000000000001
1746649530959615896,-0.115
1746649530967303923,-0.128
1746649530974991950,-0.14
1746649530982679977,-0.138
1746649530990368004,-0.13
1746649530998056031,-0.133
1746649531005744058,-0.133
1746649531013432085,-0.125
1746649531021120112,-0.12
1746649531028808139,-0.12
1746649531036496166,-0.115
1746649531044184193,-0.11
1746649531051872220,-0.113
1746649531059560247,-0.115
1746649531067248274,-0.113
1746649531074936301,-0.115
1746649531082624328,-0.115
1746649531090312355,-0.108
1746649531098000382,-0.113
1746649531105688409,-0.12
1746649531113376436,-0.11800000000000001
1746649531121064463,-0.115
1746649531128752490,-0.11800000000000001
1746649531136440517,-0.113
1746649531144128544,-0.11
1746649531151816571,-0.106
1746649531159504598,-0.10300000000000001
1746649531167192625,-0.10300000000000001
1746649531174880652,-0.106
1746649531182568679,-0.10300000000000001
1746649531190256706,-0.108
1746649531197944733,-0.108
1746649531205632760,-0.098
1746649531213320787,-0.101
1746649531221008814,-0.10300000000000001
1746649531228696841,-0.098
1746649531236384868,-0.101
1746649531244072895,-0.108
1746649531251760922,-0.101
1746649531259448949,-0.078
1746649531267136976,-0.07100000000000001
1746649531274825003,-0.066
1746649531282513030,-0.051000000000000004
1746649531290201057,-0.046
1746649531297889084,-0.066
1746649531305577111,-0.081
1746649531313265138,-0.081
1746649531320953165,-0.081
1746649531328641192,-0.078
1746649531336329219,-0.073
1746649531344017246,-0.073
1746649531351705273,-0.078
1746649531359393300,-0.093
1746649531367081327,-0.11800000000000001
1746649531374769354,-0.024
1746649531382457381,0.352
1746649531390145408,0.737
1746649531397833435,0.559
1746649531405521462,-0.076
1746649531413209489,-0.419
1746649531420897516,-0.295
1746649531428585543,-0.197
1746649531436273570,-0.202
1746649531443961597,-0.128
1746649531451649624,-0.066
1746649531459337700,-0.081,80,754
1746649531467025727,-0.078
1746649531474713754,-0.051000000000000004
1746649531482401781,-0.049
1746649531490089808,-0.054
1746649531497777835,-0.041
1746649531505465862,-0.032
1746649531513153889,-0.032
1746649531520841916,-0.024
1746649531528529943,-0.012
1746649531536217970,-0.009000000000000001
1746649531543905997,-0.007
1746649531551594024,0.002
1746649531559282051,0.007
1746649531566970078,0.009000000000000001
1746649531574658105,0.022
1746649531582346132,0.036000000000000004
1746649531590034159,0.041
1746649531597722186,0.049
1746649531605410213,0.061
1746649531613098240,0.07100000000000001
1746649531620786267,0.078
1746649531628474294,0.083
1746649531636162321,0.088
1746649531643850348,0.098
1746649531651538375,0.108
1746649531659226402,0.098
1746649531666914429,0.08600000000000001
1746649531674602456,0.076
1746649531682290483,0.046
1746649531689978510,-0.002
1746649531697666537,-0.041
1746649531705354564,-0.066
1746649531713042591,-0.091
1746649531720730618,-0.113
1746649531728418645,-0.123
1746649531736106672,-0.123
1746649531743794699,-0.123
1746649531751482726,-0.123
1746649531759170753,-0.113
1746649531766858780,-0.108
1746649531774546807,-0.11
1746649531782234834,-0.106
1746649531789922861,-0.101
1746649531797610888,-0.106
1746649531805298915,-0.10300000000000001
1746649531812986942,-0.101
1746649531820674969,-0.096
1746649531828362996,-0.096
1746649531836051023,-0.096
1746649531843739050,-0.098
1746649531851427077,-0.101
1746649531859115104,-0.10300000000000001
1746649531866803131,-0.098
1746649531874491158,-0.093
1746649531882179185,-0.096
1746649531889867212,-0.096
1746649531897555239,-0.096
1746649531905243266,-0.093
1746649531912931293,-0.088
1746649531920619320,-0.08600000000000001
1746649531928307347,-0.08600000000000001
1746649531935995374,-0.083
1746649531943683401,-0.08600000000000001
1746649531951371428,-0.091
1746649531959059455,-0.088
1746649531966747482,-0.091
1746649531974435509,-0.093
1746649531982123536,-0.088
1746649531989811563,-0.081
1746649531997499590,-0.076
1746649532005187617,-0.061
1746649532012875644,-0.049
1746649532020563720,-0.036000000000000004
1746649532028251747,-0.032
1746649532035939774,-0.051000000000000004
1746649532043627801,-0.073
1746649532051315828,-0.07100000000000001
1746649532059003855,-0.069
1746649532066691882,-0.07100000000000001
1746649532074379909,-0.066
1746649532082067936,-0.064
1746649532089755963,-0.069
1746649532097443990,-0.073
1746649532105132017,-0.093
1746649532112820044,-0.064
1746649532120508071,0.221
1746649532128196098,0.67
1746649532135884125,0.6920000000000001
1746649532143572152,0.106
1746649532151260179,-0.384
1746649532158948206,-0.34500000000000003
1746649532166636233,-0.20400000000000001
1746649532174324260,-0.209
1746649532182012287,-0.147
1746649532189700314,-0.059000000000000004
1746649532197388341,-0.064
1746649532205076368,-0.073
1746649532212764395,-0.046
1746649532220452422,-0.036000000000000004
1746649532228140449,-0.039
1746649532235828476,-0.032
1746649532243516503,-0.022
1746649532251204530,-0.019
1746649532258892557,-0.022
1746649532266580584,-0.014
1746649532274268611,-0.007
1746649532281956638,-0.002
1746649532289644665,0.004
1746649532297332692,0.014
1746649532305020719,0.017
1746649532312708746,0.022
1746649532320396773,0.032
1746649532328084800,0.041
1746649532335772827,0.054
1746649532343460854,0.064
1746649532351148881,0.07100000000000001
1746649532358836908,0.078
1746649532366524935,0.088
1746649532374212962,0.098
1746649532381900989,0.10300000000000001
1746649532389589016,0.106
1746649532397277043,0.108
1746649532404965070,0.106
1746649532412653097,0.08600000000000001
1746649532420341124,0.059000000000000004
1746649532428029151,0.022
1746649532435717178,-0.022
1746649532443405205,-0.059000000000000004
1746649532451093232,-0.091
1746649532458781259,-0.123
1746649532466469286,-0.13
1746649532474157313,-0.128
1746649532481845340,-0.13
1746649532489533367,-0.133
1746649532497221394,-0.125
1746649532504909421,-0.11800000000000001
1746649532512597448,-0.11800000000000001
1746649532520285475,-0.115
1746649532527973502,-0.113
1746649532535661529,-0.11
1746649532543349556,-0.108
1746649532551037583,-0.106
1746649532558725610,-0.106
1746649532566413637,-0.115
1746649532574101664,-0.123
1746649532581789740,-0.115,80,789
1746649532589477767,-0.113
1746649532597165794,-0.12
1746649532604853821,-0.115
1746649532612541848,-0.11
1746649532620229875,-0.11
1746649532627917902,-0.11
1746649532635605929,-0.11800000000000001
1746649532643293956,-0.11800000000000001
1746649532650981983,-0.113
1746649532658670010,-0.115
1746649532666358037,-0.113
1746649532674046064,-0.101
1746649532681734091,-0.096
1746649532689422118,-0.096
1746649532697110145,-0.101
1746649532704798172,-0.106
1746649532712486199,-0.101
1746649532720174226,-0.10300000000000001
1746649532727862253,-0.108
1746649532735550280,-0.096
1746649532743238307,-0.073
1746649532750926334,-0.056
1746649532758614361,-0.046
1746649532766302388,-0.059000000000000004
1746649532773990415,-0.076
1746649532781678442,-0.076
1746649532789366469,-0.073
1746649532797054496,-0.083
1746649532804742523,-0.08600000000000001
1746649532812430550,-0.083
1746649532820118577,-0.076
1746649532827806604,-0.07100000000000001
1746649532835494631,-0.088
1746649532843182658,-0.081
1746649532850870685,0.125
1746649532858558712,0.5690000000000001
1746649532866246739,0.737
1746649532873934766,0.20700000000000002
1746649532881622793,-0.421
1746649532889310820,-0.461
1746649532896998847,-0.256
1746649532904686874,-0.241
1746649532912374901,-0.20700000000000002
1746649532920062928,-0.081
1746649532927750955,-0.056
1746649532935438982,-0.078
1746649532943127009,-0.046
1746649532950815036,-0.029
1746649532958503063,-0.039
1746649532966191090,-0.029
1746649532973879117,-0.019
1746649532981567144,-0.012
1746649532989255171,-0.004
1746649532996943198,-0.002
1746649533004631225,0.004
1746649533012319252,0.019
1746649533020007279,0.024
1746649533027695306,0.029
1746649533035383333,0.034
1746649533043071360,0.044
1746649533050759387,0.056
1746649533058447414,0.066
1746649533066135441,0.078
1746649533073823468,0.096
1746649533081511495,0.11800000000000001
1746649533089199522,0.125
1746649533096887549,0.12
1746649533104575576,0.125
1746649533112263603,0.135
1746649533119951630,0.14300000000000002
1746649533127639657,0.145
1746649533135327684,0.133
1746649533143015760,0.11
1746649533150703787,0.078
1746649533158391814,0.032
1746649533166079841,-0.014
1746649533173767868,-0.046
1746649533181455895,-0.076
1746649533189143922,-0.108
1746649533196831949,-0.125
1746649533204519976,-0.128
1746649533212208003,-0.13
1746649533219896030,-0.133
1746649533227584057,-0.128
1746649533235272084,-0.115
1746649533242960111,-0.106
1746649533250648138,-0.10300000000000001
1746649533258336165,-0.098
1746649533266024192,-0.093
1746649533273712219,-0.091
1746649533281400246,-0.093
1746649533289088273,-0.08600000000000001
1746649533296776300,-0.078
1746649533304464327,-0.08600000000000001
1746649533312152354,-0.096
1746649533319840381,-0.088
1746649533327528408,-0.083
1746649533335216435,-0.08600000000000001
1746649533342904462,-0.083
1746649533350592489,-0.083
1746649533358280516,-0.08600000000000001
1746649533365968543,-0.081
1746649533373656570,-0.081
1746649533381344597,-0.088
1746649533389032624,-0.081
1746649533396720651,-0.069
1746649533404408678,-0.078
1746649533412096705,-0.091
1746649533419784732,-0.078
1746649533427472759,-0.066
1746649533435160786,-0.069
1746649533442848813,-0.059000000000000004
1746649533450536840,-0.049
1746649533458224867,-0.041
1746649533465912894,-0.027
1746649533473600921,-0.032
1746649533481288948,-0.054
1746649533488976975,-0.064
1746649533496665002,-0.056
1746649533504353029,-0.054
1746649533512041056,-0.054
1746649533519729083,-0.054
1746649533527417110,-0.054
1746649533535105137,-0.051000000000000004
1746649533542793164,-0.069
1746649533550481191,-0.034
1746649533558169218,0.23900000000000002
1746649533565857245,0.687
1746649533573545272,0.712
1746649533581233299,0.054
1746649533588921326,-0.493
1746649533596609353,-0.399
1746649533604297380,-0.214
1746649533611985407,-0.23600000000000002
1746649533619673434,-0.17
1746649533627361461,-0.032
1746649533635049488,-0.017
1746649533642737515,-0.036000000000000004
1746649533650425542,-0.004
1746649533658113569,0.009000000000000001
1746649533665801596,0.0
1746649533673489623,0.012
1746649533681177650,0.029
1746649533688865677,0.032
1746649533696553704,0.032
1746649533704241780,0.036000000000000004,80,761
1746649533711929807,0.046,,740
1746649533719617834,0.056
1746649533727305861,0.061
1746649533734993888,0.064
1746649533742681915,0.069
1746649533750369942,0.078
1746649533758057969,0.088
1746649533765745996,0.101
1746649533773434023,0.115
1746649533781122050,0.125
1746649533788810077,0.133
1746649533796498104,0.145
1746649533804186131,0.157
1746649533811874158,0.162
1746649533819562185,0.17
1746649533827250212,0.17200000000000001
1746649533834938239,0.17
1746649533842626266,0.162
1746649533850314293,0.138
1746649533858002320,0.093
1746649533865690347,0.041
1746649533873378374,-0.002
1746649533881066401,-0.044
1746649533888754428,-0.078
1746649533896442455,-0.096
1746649533904130482,-0.101
1746649533911818509,-0.11
1746649533919506536,-0.11800000000000001
1746649533927194563,-0.113
1746649533934882590,-0.10300000000000001
1746649533942570617,-0.096
1746649533950258644,-0.096
1746649533957946671,-0.091
1746649533965634698,-0.081
1746649533973322725,-0.073
1746649533981010752,-0.073
1746649533988698779,-0.078
1746649533996386806,-0.073
1746649534004074833,-0.07100000000000001
1746649534011762860,-0.07100000000000001
1746649534019450887,-0.073
1746649534027138914,-0.07100000000000001
1746649534034826941,-0.07100000000000001
1746649534042514968,-0.076
1746649534050202995,-0.076
1746649534057891022,-0.078
1746649534065579049,-0.076
1746649534073267076,-0.069
1746649534080955103,-0.073
1746649534088643130,-0.081
1746649534096331157,-0.073
1746649534104019184,-0.064
1746649534111707211,-0.069
1746649534119395238,-0.078
1746649534127083265,-0.081
1746649534134771292,-0.078
1746649534142459319,-0.08600000000000001
1746649534150147346,-0.078
1746649534157835373,-0.049
1746649534165523400,-0.036000000000000004
1746649534173211427,-0.041
1746649534180899454,-0.032
1746649534188587481,-0.027
1746649534196275508,-0.051000000000000004
1746649534203963535,-0.066
1746649534211651562,-0.059000000000000004
1746649534219339589,-0.059000000000000004
1746649534227027616,-0.064
1746649534234715643,-0.059000000000000004
1746649534242403670,-0.051000000000000004
1746649534250091697,-0.061
1746649534257779724,-0.093
1746649534265467800,-0.091
1746649534273155827,0.13
1746649534280843854,0.616
1746649534288531881,0.872
1746649534296219908,0.441
1746649534303907935,-0.20700000000000002
1746649534311595962,-0.35000000000000003
1746649534319283989,-0.177
1746649534326972016,-0.162
1746649534334660043,-0.17200000000000001
1746649534342348070,-0.088
1746649534350036097,-0.061
1746649534357724124,-0.076
1746649534365412151,-0.066
1746649534373100178,-0.054
1746649534380788205,-0.046
1746649534388476232,-0.044
1746649534396164259,-0.041
1746649534403852286,-0.029
1746649534411540313,-0.019
1746649534419228340,-0.019
1746649534426916367,-0.022
1746649534434604394,-0.019
1746649534442292421,-0.009000000000000001
1746649534449980448,0.002
1746649534457668475,0.009000000000000001
1746649534465356502,0.019
1746649534473044529,0.029
1746649534480732556,0.034
1746649534488420583,0.039
1746649534496108610,0.054
1746649534503796637,0.066
1746649534511484664,0.078
1746649534519172691,0.093
1746649534526860718,0.106
1746649534534548745,0.108
1746649534542236772,0.108
1746649534549924799,0.115
1746649534557612826,0.11
1746649534565300853,0.091
1746649534572988880,0.059000000000000004
1746649534580676907,0.017
1746649534588364934,-0.019
1746649534596052961,-0.054
1746649534603740988,-0.091
1746649534611429015,-0.115
1746649534619117042,-0.123
1746649534626805069,-0.123
1746649534634493096,-0.128
1746649534642181123,-0.128
1746649534649869150,-0.123
1746649534657557177,-0.11800000000000001
1746649534665245204,-0.11
1746649534672933231,-0.108
1746649534680621258,-0.11
1746649534688309285,-0.106
1746649534695997312,-0.10300000000000001
1746649534703685339,-0.10300000000000001
1746649534711373366,-0.098
1746649534719061393,-0.091
1746649534726749420,-0.091
1746649534734437447,-0.096
1746649534742125474,-0.096
1746649534749813501,-0.091
1746649534757501528,-0.096
1746649534765189555,-0.101
1746649534772877582,-0.098
1746649534780565609,-0.088
1746649534788253636,-0.088
1746649534795941663,-0.096
1746649534803629690,-0.098
1746649534811317717,-0.091
1746649534819005744,-0.088
1746649534826693816,-0.091,80,731
1746649534834381843,-0.096
1746649534842069870,-0.098
1746649534849757897,-0.101
1746649534857445924,-0.101
1746649534865133951,-0.091
1746649534872821978,-0.07100000000000001
1746649534880510005,-0.064
1746649534888198032,-0.056
1746649534895886059,-0.046
1746649534903574086,-0.056
1746649534911262113,-0.073
1746649534918950140,-0.073
1746649534926638167,-0.07100000000000001
1746649534934326194,-0.076
1746649534942014221,-0.081
1746649534949702248,-0.073
1746649534957390275,-0.069
1746649534965078302,-0.081
1746649534972766329,-0.11
1746649534980454356,-0.098
1746649534988142383,0.14
1746649534995830410,0.611
1746649535003518437,0.806
1746649535011206464,0.337
1746649535018894491,-0.273
1746649535026582518,-0.372
1746649535034270545,-0.20400000000000001
1746649535041958572,-0.192
1746649535049646599,-0.177
1746649535057334626,-0.081
1746649535065022653,-0.064
1746649535072710680,-0.08600000000000001
1746649535080398707,-0.061
1746649535088086734,-0.044
1746649535095774761,-0.049
1746649535103462788,-0.039
1746649535111150815,-0.029
1746649535118838842,-0.032
1746649535126526869,-0.017
1746649535134214896,-0.007
1746649535141902923,-0.012
1746649535149590950,-0.009000000000000001
1746649535157278977,0.007
1746649535164967004,0.022
1746649535172655031,0.027
1746649535180343058,0.032
1746649535188031085,0.046
1746649535195719112,0.064
1746649535203407139,0.069
1746649535211095166,0.073
1746649535218783193,0.093
1746649535226471220,0.12
1746649535234159247,0.133
1746649535241847274,0.138
1746649535249535301,0.147
1746649535257223328,0.155
1746649535264911355,0.147
1746649535272599382,0.135
1746649535280287409,0.123
1746649535287975436,0.091
1746649535295663463,0.044
1746649535303351490,0.0
1746649535311039517,-0.032
1746649535318727544,-0.066
1746649535326415571,-0.093
1746649535334103598,-0.098
1746649535341791625,-0.093
1746649535349479652,-0.096
1746649535357167679,-0.096
1746649535364855706,-0.088
1746649535372543733,-0.088
1746649535380231760,-0.088
1746649535387919840,-0.078,80,706
1746649535395607867,-0.064
1746649535403295894,-0.059000000000000004
1746649535410983921,-0.066
1746649535418671948,-0.069
1746649535426359975,-0.059000000000000004
1746649535434048002,-0.056
1746649535441736029,-0.061
1746649535449424056,-0.059000000000000004
1746649535457112083,-0.051000000000000004
1746649535464800110,-0.049
1746649535472488137,-0.046
1746649535480176164,-0.046
1746649535487864191,-0.049
1746649535495552218,-0.046
1746649535503240245,-0.041
1746649535510928272,-0.044
1746649535518616299,-0.046
1746649535526304326,-0.039
1746649535533992353,-0.029
1746649535541680380,-0.032
1746649535549368407,-0.034
1746649535557056434,-0.039
1746649535564744461,-0.032
1746649535572432488,-0.024
1746649535580120515,-0.032
1746649535587808542,-0.039
1746649535595496569,-0.036000000000000004
1746649535603184596,-0.027
1746649535610872623,-0.019
1746649535618560650,-0.017
1746649535626248677,-0.012
1746649535633936704,-0.002
1746649535641624731,0.007
1746649535649312758,0.019
1746649535657000785,0.012
1746649535664688812,-0.004
1746649535672376839,-0.002
1746649535680064866,-0.004
1746649535687752893,-0.014
1746649535695440920,-0.012
1746649535703128947,-0.007
1746649535710816974,-0.009000000000000001
1746649535718505001,-0.017
1746649535726193028,-0.036000000000000004
1746649535733881055,-0.009000000000000001
1746649535741569082,0.244
1746649535749257109,0.6950000000000001
1746649535756945136,0.786
1746649535764633163,0.202
1746649535772321190,-0.369
1746649535780009217,-0.355
1746649535787697244,-0.165
1746649535795385271,-0.155
1746649535803073298,-0.113
1746649535810761325,-0.012
1746649535818449352,0.002
1746649535826137379,-0.009000000000000001
1746649535833825406,0.009000000000000001
1746649535841513433,0.022
1746649535849201460,0.017
1746649535856889487,0.024
1746649535864577514,0.036000000000000004
1746649535872265541,0.039
1746649535879953568,0.036000000000000004
1746649535887641595,0.046
1746649535895329622,0.059000000000000004
1746649535903017649,0.056
1746649535910705676,0.059000000000000004
1746649535918393703,0.076
1746649535926081730,0.083
1746649535933769757,0.076
1746649535941457784,0.083
1746649535949145860,0.113
1746649535956833887,0.135
1746649535964521914,0.14
1746649535972209941,0.14300000000000002
1746649535979897968,0.152
1746649535987585995,0.167
1746649535995274022,0.182
1746649536002962049,0.187
1746649536010650076,0.182
1746649536018338103,0.184
1746649536026026130,0.182
1746649536033714157,0.152
1746649536041402184,0.106
1746649536049090211,0.059000000000000004
1746649536056778238,0.017
1746649536064466265,-0.032
1746649536072154292,-0.07100000000000001
1746649536079842319,-0.08600000000000001
1746649536087530346,-0.098
1746649536095218373,-0.11
1746649536102906400,-0.115
1746649536110594427,-0.115
1746649536118282454,-0.11
1746649536125970481,-0.101
1746649536133658508,-0.093
1746649536141346535,-0.091
1746649536149034562,-0.081
1746649536156722589,-0.069
1746649536164410616,-0.07100000000000001
1746649536172098643,-0.081
1746649536179786670,-0.078
1746649536187474697,-0.069
1746649536195162724,-0.069
1746649536202850751,-0.073
1746649536210538778,-0.069
1746649536218226805,-0.07100000000000001
1746649536225914832,-0.083
1746649536233602859,-0.08600000000000001
1746649536241290886,-0.081
1746649536248978913,-0.078
1746649536256666940,-0.076
1746649536264354967,-0.083
1746649536272042994,-0.08600000000000001
1746649536279731021,-0.083
1746649536287419048,-0.083
1746649536295107075,-0.08600000000000001
1746649536302795102,-0.081
1746649536310483129,-0.076
1746649536318171156,-0.081
1746649536325859183,-0.08600000000000001
1746649536333547210,-0.08600000000000001
1746649536341235237,-0.083
1746649536348923264,-0.081
1746649536356611291,-0.083
1746649536364299318,-0.081
1746649536371987345,-0.061
1746649536379675372,-0.049
1746649536387363399,-0.036000000000000004
1746649536395051426,-0.024
1746649536402739453,-0.039
1746649536410427480,-0.059000000000000004
1746649536418115507,-0.051000000000000004
1746649536425803534,-0.051000000000000004
1746649536433491561,-0.069
1746649536441179588,-0.073
1746649536448867615,-0.069
1746649536456555642,-0.064
1746649536464243669,-0.069
1746649536471931696,-0.091
1746649536479619723,-0.08600000000000001
1746649536487307750,0.12
1746649536494995777,0.5740000000000001
1746649536502683804,0.776
1746649536510371880,0.258,81,718
1746649536518059907,-0.419,,715
1746649536525747934,-0.493
1746649536533435961,-0.263
1746649536541123988,-0.249
1746649536548812015,-0.234
1746649536556500042,-0.088
1746649536564188069,-0.044
1746649536571876096,-0.073
1746649536579564123,-0.051000000000000004
1746649536587252150,-0.032
1746649536594940177,-0.044
1746649536602628204,-0.039
1746649536610316231,-0.019
1746649536618004258,-0.017
1746649536625692285,-0.022
1746649536633380312,-0.017
1746649536641068339,-0.007
1746649536648756366,0.002
1746649536656444393,0.004
1746649536664132420,0.007
1746649536671820447,0.017
1746649536679508474,0.024
1746649536687196501,0.027
1746649536694884528,0.034
1746649536702572555,0.044
1746649536710260582,0.064
1746649536717948609,0.08600000000000001
1746649536725636636,0.096
1746649536733324663,0.101
1746649536741012690,0.108
1746649536748700717,0.113
1746649536756388744,0.12
1746649536764076771,0.11800000000000001
1746649536771764798,0.10300000000000001
1746649536779452825,0.083
1746649536787140852,0.051000000000000004
1746649536794828879,0.007
1746649536802516906,-0.036000000000000004
1746649536810204933,-0.081
1746649536817892960,-0.12
1746649536825580987,-0.14300000000000002
1746649536833269014,-0.155
1746649536840957041,-0.162
1746649536848645068,-0.165
1746649536856333095,-0.167
1746649536864021122,-0.157
1746649536871709149,-0.147
1746649536879397176,-0.147
1746649536887085203,-0.147
1746649536894773230,-0.13
1746649536902461257,-0.123
1746649536910149284,-0.128
1746649536917837311,-0.11800000000000001
1746649536925525338,-0.108
1746649536933213365,-0.113
1746649536940901392,-0.113
1746649536948589419,-0.108
1746649536956277446,-0.11
1746649536963965473,-0.115
1746649536971653500,-0.115
1746649536979341527,-0.113
1746649536987029554,-0.113
1746649536994717581,-0.11800000000000001
1746649537002405608,-0.123
1746649537010093635,-0.123
1746649537017781662,-0.11800000000000001
1746649537025469689,-0.113
1746649537033157716,-0.113
1746649537040845743,-0.115
1746649537048533770,-0.115
1746649537056221797,-0.115
1746649537063909824,-0.113
1746649537071597900,-0.11
1746649537079285927,-0.108
1746649537086973954,-0.108
1746649537094661981,-0.106
1746649537102350008,-0.10300000000000001
1746649537110038035,-0.101
1746649537117726062,-0.113
1746649537125414089,-0.125
1746649537133102116,-0.12
1746649537140790143,-0.10300000000000001
1746649537148478170,-0.096
1746649537156166197,-0.091
1746649537163854224,-0.073
1746649537171542251,-0.059000000000000004
1746649537179230278,-0.07100000000000001
1746649537186918305,-0.088
1746649537194606332,-0.088
1746649537202294359,-0.08600000000000001
1746649537209982386,-0.093
1746649537217670413,-0.098
1746649537225358440,-0.091
1746649537233046467,-0.091
1746649537240734494,-0.096
1746649537248422521,-0.11800000000000001
1746649537256110548,-0.145
1746649537263798575,-0.032
1746649537271486602,0.384
1746649537279174629,0.811
1746649537286862656,0.663
1746649537294550683,-0.004
1746649537302238710,-0.404
1746649537309926737,-0.28600000000000003
1746649537317614764,-0.192
1746649537325302791,-0.229
1746649537332990818,-0.157
1746649537340678845,-0.096
1746649537348366872,-0.123
1746649537356054899,-0.11800000000000001
1746649537363742926,-0.08600000000000001
1746649537371430953,-0.081
1746649537379118980,-0.08600000000000001
1746649537386807007,-0.078
1746649537394495034,-0.069
1746649537402183061,-0.066
1746649537409871088,-0.069
1746649537417559115,-0.061
1746649537425247142,-0.049
1746649537432935169,-0.044
1746649537440623196,-0.041
1746649537448311223,-0.041
1746649537455999250,-0.036000000000000004
1746649537463687277,-0.019
1746649537471375304,-0.004
1746649537479063331,0.002
1746649537486751358,0.009000000000000001
1746649537494439385,0.029
1746649537502127412,0.036000000000000004
1746649537509815439,0.041
1746649537517503466,0.066
1746649537525191493,0.078
1746649537532879520,0.073
1746649537540567547,0.078
1746649537548255574,0.08600000000000001
1746649537555943601,0.076
1746649537563631628,0.051000000000000004
1746649537571319655,0.014
1746649537579007682,-0.027
1746649537586695709,-0.066
1746649537594383736,-0.098
1746649537602071763,-0.125
1746649537609759790,-0.147
1746649537617447817,-0.157
1746649537625135844,-0.157
1746649537632823920,-0.157,81,752
1746649537640511947,-0.157
1746649537648199974,-0.157
1746649537655888001,-0.155
1746649537663576028,-0.152
1746649537671264055,-0.145
1746649537678952082,-0.138
1746649537686640109,-0.133
1746649537694328136,-0.13
1746649537702016163,-0.128
1746649537709704190,-0.128
1746649537717392217,-0.128
1746649537725080244,-0.123
1746649537732768271,-0.11800000000000001
1746649537740456298,-0.12
1746649537748144325,-0.125
1746649537755832352,-0.123
1746649537763520379,-0.12
1746649537771208406,-0.12
1746649537778896433,-0.125
1746649537786584460,-0.125
1746649537794272487,-0.12
1746649537801960514,-0.115
1746649537809648541,-0.115
1746649537817336568,-0.115
1746649537825024595,-0.115
1746649537832712622,-0.11800000000000001
1746649537840400649,-0.108
1746649537848088676,-0.101
1746649537855776703,-0.108
1746649537863464730,-0.11
1746649537871152757,-0.101
1746649537878840784,-0.096
1746649537886528811,-0.10300000000000001
1746649537894216838,-0.10300000000000001
1746649537901904865,-0.093
1746649537909592892,-0.093
1746649537917280919,-0.098
1746649537924968946,-0.096
1746649537932656973,-0.098
1746649537940345000,-0.106
1746649537948033027,-0.106
1746649537955721054,-0.093
1746649537963409081,-0.076
1746649537971097108,-0.069
1746649537978785135,-0.066
1746649537986473162,-0.056
1746649537994161189,-0.059000000000000004
1746649538001849216,-0.076
1746649538009537243,-0.08600000000000001
1746649538017225270,-0.083
1746649538024913297,-0.083
1746649538032601324,-0.083
1746649538040289351,-0.081
1746649538047977378,-0.083
1746649538055665405,-0.08600000000000001
1746649538063353432,-0.10300000000000001
1746649538071041459,-0.115
1746649538078729486,0.051000000000000004
1746649538086417513,0.498
1746649538094105540,0.8130000000000001
1746649538101793567,0.49
1746649538109481594,-0.17
1746649538117169621,-0.404
1746649538124857648,-0.23900000000000002
1746649538132545675,-0.187
1746649538140233702,-0.202
1746649538147921729,-0.115
1746649538155609756,-0.078
1746649538163297783,-0.108
1746649538170985810,-0.096
1746649538178673837,-0.07100000000000001
1746649538186361864,-0.066
1746649538194049940,-0.061
1746649538201737897,-0.054
1746649538209425854,-0.051000000000000004
1746649538217113811,-0.044
1746649538224801768,-0.044
1746649538232489725,-0.046
1746649538240177682,-0.036000000000000004
1746649538247865639,-0.024
1746649538255553596,-0.019
1746649538263241553,-0.012
1746649538270929510,-0.007
1746649538278617467,-0.002
1746649538286305424,0.007
1746649538293993381,0.022
1746649538301681338,0.046
1746649538309369295,0.059000000000000004
1746649538317057252,0.061
1746649538324745209,0.081
1746649538332433166,0.101
1746649538340121123,0.098
1746649538347809080,0.098
1746649538355497037,0.106
1746649538363184994,0.106
1746649538370872951,0.091
1746649538378560908,0.069
1746649538386248865,0.036000000000000004
1746649538393936822,-0.009000000000000001
1746649538401624779,-0.059000000000000004
1746649538409312736,-0.096
1746649538417000693,-0.128
1746649538424688650,-0.15
1746649538432376607,-0.15
1746649538440064564,-0.14300000000000002
1746649538447752521,-0.14300000000000002
1746649538455440478,-0.14300000000000002
1746649538463128435,-0.14
1746649538470816392,-0.133
1746649538478504349,-0.128
1746649538486192306,-0.13
1746649538493880263,-0.133
1746649538501568220,-0.133
1746649538509256177,-0.123
1746649538516944134,-0.108
1746649538524632091,-0.10300000000000001
1746649538532320048,-0.11800000000000001
1746649538540008005,-0.123
1746649538547695962,-0.106
1746649538555383919,-0.10300000000000001
1746649538563071876,-0.12
1746649538570759833,-0.11800000000000001
1746649538578447790,-0.108
1746649538586135747,-0.11
1746649538593823704,-0.10300000000000001
1746649538601511661,-0.098
1746649538609199618,-0.115
1746649538616887575,-0.115
1746649538624575532,-0.101
1746649538632263489,-0.098
1746649538639951446,-0.106
1746649538647639403,-0.106
1746649538655327360,-0.096
1746649538663015317,-0.096
1746649538670703274,-0.10300000000000001
1746649538678391231,-0.098
1746649538686079188,-0.091
1746649538693767145,-0.08600000000000001
1746649538701455102,-0.08600000000000001
1746649538709143059,-0.088
1746649538716831016,-0.08600000000000001
1746649538724518973,-0.083
1746649538732206930,-0.081
1746649538739894887,-0.081
1746649538747582844,-0.08600000000000001
1746649538755270873,-0.08600000000000001,81,747
1746649538762958830,-0.07100000000000001
1746649538770646787,-0.069
1746649538778334744,-0.083
1746649538786022701,-0.081
1746649538793710658,-0.059000000000000004
1746649538801398615,-0.046
1746649538809086572,-0.036000000000000004
1746649538816774529,-0.027
1746649538824462486,-0.039
1746649538832150443,-0.064
1746649538839838400,-0.066
1746649538847526357,-0.066
1746649538855214314,-0.073
1746649538862902271,-0.07100000000000001
1746649538870590228,-0.056
1746649538878278185,-0.054
1746649538885966142,-0.059000000000000004
1746649538893654099,-0.083
1746649538901342056,-0.049
1746649538909030013,0.224
1746649538916717970,0.668
1746649538924405927,0.717
1746649538932093884,0.093
1746649538939781841,-0.47800000000000004
1746649538947469798,-0.441
1746649538955157755,-0.246
1746649538962845712,-0.241
1746649538970533669,-0.192
1746649538978221626,-0.07100000000000001
1746649538985909583,-0.046
1746649538993597540,-0.049
1746649539001285497,-0.022
1746649539008973454,-0.019
1746649539016661411,-0.024
1746649539024349368,-0.012
1746649539032037325,-0.002
1746649539039725282,0.007
1746649539047413239,0.017
1746649539055101196,0.019
1746649539062789153,0.022
1746649539070477110,0.024
1746649539078165067,0.036000000000000004
1746649539085853024,0.049
1746649539093540981,0.056
1746649539101228938,0.061
1746649539108916895,0.081
1746649539116604852,0.096
1746649539124292809,0.108
1746649539131980766,0.125
1746649539139668723,0.14300000000000002
1746649539147356680,0.157
1746649539155044637,0.17
1746649539162732594,0.182
1746649539170420551,0.187
1746649539178108508,0.177
1746649539185796465,0.17200000000000001
1746649539193484422,0.17500000000000002
1746649539201172379,0.16
1746649539208860336,0.113
1746649539216548293,0.059000000000000004
1746649539224236250,0.019
1746649539231924207,-0.027
1746649539239612164,-0.073
1746649539247300121,-0.098
1746649539254988078,-0.108
1746649539262676035,-0.11800000000000001
1746649539270363992,-0.12
1746649539278051949,-0.115
1746649539285739906,-0.11
1746649539293427863,-0.108
1746649539301115820,-0.106
1746649539308803777,-0.101
1746649539316491806,-0.093
1746649539324179763,-0.08600000000000001
1746649539331867720,-0.081
1746649539339555677,-0.073
1746649539347243634,-0.066
1746649539354931591,-0.061
1746649539362619548,-0.064
1746649539370307505,-0.066
1746649539377995462,-0.066
1746649539385683419,-0.07100000000000001
1746649539393371376,-0.07100000000000001
1746649539401059333,-0.066
1746649539408747290,-0.073
1746649539416435247,-0.076
1746649539424123204,-0.07100000000000001
1746649539431811161,-0.073
1746649539439499118,-0.076
1746649539447187075,-0.073
1746649539454875032,-0.069
1746649539462562989,-0.066
1746649539470250946,-0.066
1746649539477938903,-0.064
1746649539485626860,-0.059000000000000004
1746649539493314817,-0.061
1746649539501002774,-0.066
1746649539508690731,-0.056
1746649539516378688,-0.054
1746649539524066645,-0.056
1746649539531754602,-0.056
1746649539539442559,-0.054
1746649539547130516,-0.051000000000000004
1746649539554818473,-0.046
1746649539562506430,-0.054
1746649539570194387,-0.061
1746649539577882344,-0.051000000000000004
1746649539585570301,-0.041
1746649539593258258,-0.034
1746649539600946215,-0.019
1746649539608634172,-0.007
1746649539616322129,0.0
1746649539624010086,-0.002
1746649539631698043,-0.022
1746649539639386000,-0.041
1746649539647073957,-0.034
1746649539654761914,-0.022
1746649539662449871,-0.027
1746649539670137828,-0.029
1746649539677825785,-0.022
1746649539685513742,-0.024
1746649539693201699,-0.051000000000000004
1746649539700889656,-0.066
1746649539708577613,0.115
1746649539716265570,0.581
1746649539723953527,0.892
1746649539731641484,0.535
1746649539739329441,-0.145
1746649539747017398,-0.374
1746649539754705355,-0.192
1746649539762393312,-0.135
1746649539770081269,-0.15
1746649539777769226,-0.056
1746649539785457183,-0.012
1746649539793145140,-0.041
1746649539800833097,-0.032
1746649539808521054,-0.007
1746649539816209011,-0.004
1746649539823896968,-0.007
1746649539831584925,0.007
1746649539839272882,0.017
1746649539846960839,0.012
1746649539854648796,0.014
1746649539862336753,0.032
1746649539870024710,0.029
1746649539877712739,0.027,81,780
1746649539885400557,0.039
1746649539893088375,0.046
1746649539900776193,0.044
1746649539908464011,0.049
1746649539916151829,0.066
1746649539923839647,0.083
1746649539931527465,0.08600000000000001
1746649539939215283,0.093
1746649539946903101,0.115
1746649539954590919,0.128
1746649539962278737,0.133
1746649539969966555,0.14300000000000002
1746649539977654373,0.155
1746649539985342191,0.157
1746649539993030009,0.155
1746649540000717827,0.145
1746649540008405645,0.12
1746649540016093463,0.081
1746649540023781281,0.039
1746649540031469099,0.007
1746649540039156917,-0.034
1746649540046844735,-0.073
1746649540054532553,-0.083
1746649540062220371,-0.081
1746649540069908189,-0.088
1746649540077596007,-0.093
1746649540085283825,-0.091
1746649540092971643,-0.083
1746649540100659461,-0.081
1746649540108347279,-0.078
1746649540116035097,-0.076
1746649540123722915,-0.073
1746649540131410733,-0.064
1746649540139098551,-0.059000000000000004
1746649540146786369,-0.069
1746649540154474187,-0.066
1746649540162162005,-0.054
1746649540169849823,-0.056
1746649540177537641,-0.066
1746649540185225459,-0.066
1746649540192913277,-0.061
1746649540200601095,-0.056
1746649540208288913,-0.059000000000000004
1746649540215976731,-0.064
1746649540223664549,-0.066
1746649540231352367,-0.061
1746649540239040185,-0.061
1746649540246728003,-0.069
1746649540254415821,-0.066
1746649540262103639,-0.059000000000000004
1746649540269791457,-0.064
1746649540277479275,-0.064
1746649540285167093,-0.059000000000000004
1746649540292854911,-0.061
1746649540300542729,-0.056
1746649540308230547,-0.046
1746649540315918365,-0.049
1746649540323606183,-0.056
1746649540331294001,-0.051000000000000004
1746649540338981819,-0.041
1746649540346669637,-0.051000000000000004
1746649540354357455,-0.064
1746649540362045273,-0.059000000000000004
1746649540369733091,-0.059000000000000004
1746649540377420909,-0.056
1746649540385108727,-0.044
1746649540392796545,-0.034
1746649540400484363,-0.027
1746649540408172181,-0.014
1746649540415859999,-0.012
1746649540423547817,-0.024
1746649540431235635,-0.036000000000000004
1746649540438923502,-0.041,80,813
1746649540446611529,-0.046,,827
1746649540454299556,-0.051000000000000004
1746649540461987583,-0.046
1746649540469675610,-0.049
1746649540477363637,-0.051000000000000004
1746649540485051664,-0.054
1746649540492739691,-0.081
1746649540500427718,-0.076
1746649540508115745,0.152
1746649540515803772,0.623
1746649540523491799,0.845
1746649540531179826,0.40900000000000003
1746649540538867853,-0.226
1746649540546555880,-0.374
1746649540554243907,-0.202
1746649540561931934,-0.167
1746649540569619961,-0.167
1746649540577307988,-0.083
1746649540584996015,-0.064
1746649540592684042,-0.088
1746649540600372069,-0.073
1746649540608060096,-0.054
1746649540615748123,-0.054
1746649540623436150,-0.049
1746649540631124177,-0.036000000000000004
1746649540638812204,-0.034
1746649540646500231,-0.039
1746649540654188258,-0.029
1746649540661876285,-0.014
1746649540669564312,-0.014
1746649540677252339,-0.017
1746649540684940366,-0.007
1746649540692628393,0.0
1746649540700316420,0.0
1746649540708004447,0.009000000000000001
1746649540715692474,0.024
1746649540723380501,0.034
1746649540731068528,0.046
1746649540738756555,0.059000000000000004
1746649540746444582,0.07100000000000001
1746649540754132609,0.08600000000000001
1746649540761820636,0.098
1746649540769508663,0.101
1746649540777196690,0.10300000000000001
1746649540784884717,0.113
1746649540792572744,0.10300000000000001
1746649540800260771,0.081
1746649540807948798,0.061
1746649540815636825,0.032
1746649540823324852,-0.014
1746649540831012879,-0.061
1746649540838700906,-0.093
1746649540846388933,-0.12
1746649540854076960,-0.14300000000000002
1746649540861764987,-0.147
1746649540869453014,-0.147
1746649540877141041,-0.15
1746649540884829068,-0.145
1746649540892517095,-0.138
1746649540900205122,-0.13
1746649540907893149,-0.125
1746649540915581176,-0.12
1746649540923269203,-0.128
1746649540930957230,-0.135
1746649540938645257,-0.125
1746649540946333284,-0.11800000000000001
1746649540954021311,-0.11800000000000001
1746649540961709338,-0.115
1746649540969397365,-0.11800000000000001
1746649540977085392,-0.11800000000000001
1746649540984773419,-0.11800000000000001
1746649540992461446,-0.12
1746649541000149522,-0.11800000000000001
1746649541007837549,-0.11800000000000001
1746649541015525576,-0.123
1746649541023213603,-0.128
1746649541030901630,-0.11800000000000001
1746649541038589657,-0.113
1746649541046277684,-0.115
1746649541053965711,-0.12
1746649541061653738,-0.12
1746649541069341765,-0.113
1746649541077029792,-0.11
1746649541084717819,-0.11800000000000001
1746649541092405846,-0.113
1746649541100093873,-0.108
1746649541107781900,-0.11
1746649541115469927,-0.098
1746649541123157954,-0.096
1746649541130845981,-0.11
1746649541138534008,-0.11
1746649541146222035,-0.10300000000000001
1746649541153910062,-0.11
1746649541161598089,-0.108
1746649541169286116,-0.098
1746649541176974143,-0.093
1746649541184662170,-0.076
1746649541192350197,-0.061
1746649541200038224,-0.059000000000000004
1746649541207726251,-0.061
1746649541215414278,-0.073
1746649541223102305,-0.088
1746649541230790332,-0.098
1746649541238478359,-0.096
1746649541246166386,-0.083
1746649541253854413,-0.081
1746649541261542440,-0.081
1746649541269230467,-0.081
1746649541276918494,-0.10300000000000001
1746649541284606521,-0.123
1746649541292294548,0.019
1746649541299982575,0.438
1746649541307670602,0.769
1746649541315358629,0.446
1746649541323046656,-0.256
1746649541330734683,-0.507
1746649541338422710,-0.305
1746649541346110737,-0.221
1746649541353798764,-0.246
1746649541361486791,-0.14300000000000002
1746649541369174818,-0.059000000000000004
1746649541376862845,-0.078
1746649541384550872,-0.091
1746649541392238899,-0.066
1746649541399926926,-0.056
1746649541407614953,-0.054
1746649541415302980,-0.039
1746649541422991007,-0.032
1746649541430679034,-0.039
1746649541438367061,-0.039
1746649541446055088,-0.019
1746649541453743115,-0.007
1746649541461431142,-0.004
1746649541469119169,-0.004
1746649541476807196,-0.002
1746649541484495223,0.007
1746649541492183250,0.024
1746649541499871277,0.041
1746649541507559304,0.044
1746649541515247331,0.061
1746649541522935358,0.083
1746649541530623385,0.093
1746649541538311412,0.10300000000000001
1746649541545999439,0.123
1746649541553687466,0.133
1746649541561375542,0.128,79,803
1746649541569063151,0.123
1746649541576750760,0.12
1746649541584438369,0.11
1746649541592125978,0.08600000000000001
1746649541599813587,0.032
1746649541607501196,-0.017
1746649541615188805,-0.059000000000000004
1746649541622876414,-0.10300000000000001
1746649541630564023,-0.138
1746649541638251632,-0.157
1746649541645939241,-0.17200000000000001
1746649541653626850,-0.17500000000000002
1746649541661314459,-0.167
1746649541669002068,-0.167
1746649541676689677,-0.17
1746649541684377286,-0.16
1746649541692064895,-0.145
1746649541699752504,-0.147
1746649541707440113,-0.147
1746649541715127722,-0.13
1746649541722815331,-0.125
1746649541730502940,-0.125
1746649541738190549,-0.11800000000000001
1746649541745878158,-0.11
1746649541753565767,-0.108
1746649541761253376,-0.11800000000000001
1746649541768940985,-0.125
1746649541776628594,-0.11800000000000001
1746649541784316203,-0.115
1746649541792003812,-0.128
1746649541799691421,-0.125
1746649541807379030,-0.108
1746649541815066639,-0.11
1746649541822754248,-0.123
1746649541830441857,-0.123
1746649541838129466,-0.115
1746649541845817075,-0.113
1746649541853504684,-0.113
1746649541861192293,-0.113
1746649541868879902,-0.108
1746649541876567511,-0.101
1746649541884255120,-0.10300000000000001
1746649541891942729,-0.108
1746649541899630338,-0.11
1746649541907317947,-0.108
1746649541915005556,-0.098
1746649541922693165,-0.081
1746649541930380774,-0.076
1746649541938068383,-0.07100000000000001
1746649541945755992,-0.054
1746649541953443601,-0.044
1746649541961131210,-0.064
1746649541968818819,-0.08600000000000001
1746649541976506428,-0.091
1746649541984194037,-0.093
1746649541991881646,-0.091
1746649541999569255,-0.083
1746649542007256864,-0.08600000000000001
1746649542014944473,-0.093
1746649542022632082,-0.096
1746649542030319691,-0.07100000000000001
1746649542038007300,0.167
1746649542045694909,0.643
1746649542053382518,0.742
1746649542061070127,0.101
1746649542068757736,-0.503
1746649542076445345,-0.446
1746649542084132954,-0.23600000000000002
1746649542091820563,-0.256
1746649542099508172,-0.214
1746649542107195781,-0.073
1746649542114883390,-0.046
1746649542122571044,-0.069
1746649542130259071,-0.039
1746649542137947098,-0.017
1746649542145635125,-0.022
1746649542153323152,-0.022
1746649542161011179,-0.017
1746649542168699206,-0.002
1746649542176387233,0.014
1746649542184075260,0.004
1746649542191763287,0.0
1746649542199451314,0.022
1746649542207139341,0.032
1746649542214827368,0.029
1746649542222515395,0.041
1746649542230203422,0.051000000000000004
1746649542237891449,0.056
1746649542245579476,0.076
1746649542253267503,0.098
1746649542260955530,0.115
1746649542268643557,0.128
1746649542276331584,0.14300000000000002
1746649542284019611,0.16
1746649542291707638,0.17
1746649542299395665,0.165
1746649542307083692,0.167
1746649542314771719,0.17
1746649542322459746,0.147
1746649542330147773,0.12
1746649542337835800,0.088
1746649542345523827,0.034
1746649542353211854,-0.022
1746649542360899881,-0.059000000000000004
1746649542368587908,-0.096
1746649542376275935,-0.13
1746649542383963962,-0.15
1746649542391651989,-0.145
1746649542399340016,-0.14
1746649542407028043,-0.15
1746649542414716070,-0.147
1746649542422404097,-0.13
1746649542430092124,-0.125
1746649542437780151,-0.11800000000000001
1746649542445468178,-0.106
1746649542453156205,-0.108
1746649542460844232,-0.108
1746649542468532259,-0.091
1746649542476220286,-0.088
1746649542483908313,-0.101
1746649542491596340,-0.091
1746649542499284367,-0.073
1746649542506972394,-0.083
1746649542514660421,-0.101
1746649542522348448,-0.098
1746649542530036475,-0.093
1746649542537724502,-0.091
1746649542545412529,-0.088
1746649542553100556,-0.098
1746649542560788583,-0.098
1746649542568476610,-0.091
1746649542576164637,-0.093
1746649542583852664,-0.101
1746649542591540691,-0.096
1746649542599228718,-0.08600000000000001
1746649542606916745,-0.088
1746649542614604772,-0.096
1746649542622292799,-0.096
1746649542629980826,-0.096
1746649542637668853,-0.088
1746649542645356880,-0.07100000000000001
1746649542653044907,-0.066
1746649542660732934,-0.07100000000000001
1746649542668420961,-0.059000000000000004
1746649542676108988,-0.041
1746649542683797064,-0.046,79,798
1746649542691485091,-0.064
1746649542699173118,-0.073
1746649542706861145,-0.073
1746649542714549172,-0.073
1746649542722237199,-0.066
1746649542729925226,-0.059000000000000004
1746649542737613253,-0.066
1746649542745301280,-0.088
1746649542752989307,-0.108
1746649542760677334,-0.012
1746649542768365361,0.382
1746649542776053388,0.808
1746649542783741415,0.611
1746649542791429442,-0.128
1746649542799117469,-0.517
1746649542806805496,-0.332
1746649542814493523,-0.194
1746649542822181550,-0.226
1746649542829869577,-0.14300000000000002
1746649542837557604,-0.046
1746649542845245631,-0.056
1746649542852933658,-0.061
1746649542860621685,-0.036000000000000004
1746649542868309712,-0.029
1746649542875997739,-0.032
1746649542883685766,-0.027
1746649542891373793,-0.014
1746649542899061820,0.0
1746649542906749847,0.0
1746649542914437874,0.0
1746649542922125901,0.007
1746649542929813928,0.009000000000000001
1746649542937501955,0.009000000000000001
1746649542945189982,0.014
1746649542952878009,0.027
1746649542960566036,0.041
1746649542968254063,0.054
1746649542975942090,0.059000000000000004
1746649542983630117,0.07100000000000001
1746649542991318144,0.091
1746649542999006171,0.106
1746649543006694198,0.11800000000000001
1746649543014382225,0.128
1746649543022070252,0.133
1746649543029758279,0.14
1746649543037446306,0.145
1746649543045134333,0.14
1746649543052822360,0.123
1746649543060510387,0.096
1746649543068198414,0.051000000000000004
1746649543075886441,-0.002
1746649543083574468,-0.046
1746649543091262495,-0.076
1746649543098950522,-0.101
1746649543106638549,-0.123
1746649543114326576,-0.135
1746649543122014603,-0.138
1746649543129702630,-0.145
1746649543137390657,-0.145
1746649543145078684,-0.135
1746649543152766711,-0.123
1746649543160454738,-0.123
1746649543168142765,-0.123
1746649543175830792,-0.11
1746649543183518819,-0.10300000000000001
1746649543191206846,-0.10300000000000001
1746649543198894873,-0.098
1746649543206582900,-0.088
1746649543214270927,-0.088
1746649543221958954,-0.093
1746649543229646981,-0.091
1746649543237335008,-0.088
1746649543245023084,-0.093
1746649543252711111,-0.096
1746649543260399138,-0.088
1746649543268087165,-0.081
1746649543275775192,-0.08600000000000001
1746649543283463219,-0.091
1746649543291151246,-0.088
1746649543298839273,-0.081
1746649543306527300,-0.08600000000000001
1746649543314215327,-0.093
1746649543321903354,-0.093
1746649543329591381,-0.093
1746649543337279408,-0.098
1746649543344967435,-0.093
1746649543352655462,-0.081
1746649543360343489,-0.07100000000000001
1746649543368031516,-0.061
1746649543375719543,-0.049
1746649543383407570,-0.039
1746649543391095597,-0.039
1746649543398783624,-0.054
1746649543406471651,-0.061
1746649543414159678,-0.059000000000000004
1746649543421847705,-0.064
1746649543429535732,-0.061
1746649543437223759,-0.056
1746649543444911786,-0.056
1746649543452599813,-0.056
1746649543460287840,-0.076
1746649543467975867,-0.096
1746649543475663894,0.07100000000000001
1746649543483351921,0.54
1746649543491039948,0.877
1746649543498727975,0.549
1746649543506416002,-0.145
1746649543514104029,-0.41100000000000003
1746649543521792056,-0.231
1746649543529480083,-0.157
1746649543537168110,-0.17500000000000002
1746649543544856137,-0.083
1746649543552544164,-0.039
1746649543560232191,-0.066
1746649543567920218,-0.051000000000000004
1746649543575608245,-0.022
1746649543583296272,-0.022
1746649543590984299,-0.024
1746649543598672326,-0.017
1746649543606360353,-0.004
1746649543614048380,0.004
1746649543621736407,0.007
1746649543629424434,0.009000000000000001
1746649543637112461,0.012
1746649543644800488,0.017
1746649543652488515,0.024
1746649543660176542,0.032
1746649543667864569,0.041
1746649543675552596,0.056
1746649543683240623,0.064
1746649543690928650,0.07100000000000001
1746649543698616677,0.08600000000000001
1746649543706304704,0.10300000000000001
1746649543713992731,0.125
1746649543721680758,0.14
1746649543729368785,0.147
1746649543737056812,0.157
1746649543744744839,0.167
1746649543752432866,0.167
1746649543760120893,0.167
1746649543767808920,0.155
1746649543775496947,0.12
1746649543783184974,0.069
1746649543790873001,0.024
1746649543798561028,-0.012
1746649543806249104,-0.049,78,786
1746649543813937131,-0.07100000000000001,,742
1746649543821625158,-0.083
1746649543829313185,-0.093
1746649543837001212,-0.093
1746649543844689239,-0.088
1746649543852377266,-0.088
1746649543860065293,-0.08600000000000001
1746649543867753320,-0.078
1746649543875441347,-0.07100000000000001
1746649543883129374,-0.066
1746649543890817401,-0.061
1746649543898505428,-0.061
1746649543906193455,-0.061
1746649543913881482,-0.059000000000000004
1746649543921569509,-0.054
1746649543929257536,-0.054
1746649543936945563,-0.051000000000000004
1746649543944633590,-0.051000000000000004
1746649543952321617,-0.054
1746649543960009644,-0.046
1746649543967697671,-0.041
1746649543975385698,-0.051000000000000004
1746649543983073725,-0.054
1746649543990761752,-0.046
1746649543998449779,-0.049
1746649544006137806,-0.054
1746649544013825833,-0.051000000000000004
1746649544021513860,-0.056
1746649544029201887,-0.064
1746649544036889914,-0.051000000000000004
1746649544044577941,-0.034
1746649544052265968,-0.027
1746649544059953995,-0.022
1746649544067642022,-0.007
1746649544075330049,-0.004
1746649544083018076,-0.024
1746649544090706103,-0.032
1746649544098394130,-0.027
1746649544106082157,-0.032
1746649544113770184,-0.032
1746649544121458211,-0.019
1746649544129146238,-0.022
1746649544136834265,-0.034
1746649544144522292,-0.056
1746649544152210319,-0.069
1746649544159898346,0.093
1746649544167586373,0.549
1746649544175274400,0.887
1746649544182962427,0.547
1746649544190650454,-0.155
1746649544198338481,-0.399
1746649544206026508,-0.202
1746649544213714535,-0.128
1746649544221402562,-0.147
1746649544229090589,-0.059000000000000004
1746649544236778616,-0.007
1746649544244466643,-0.029
1746649544252154670,-0.019
1746649544259842697,0.004
1746649544267530724,0.0
1746649544275218751,-0.002
1746649544282906778,0.019
1746649544290594805,0.029
1746649544298282832,0.024
1746649544305970859,0.027
1746649544313658886,0.036000000000000004
1746649544321346913,0.041
1746649544329034940,0.046
1746649544336722967,0.051000000000000004
1746649544344410994,0.059000000000000004
1746649544352099021,0.07100000000000001
1746649544359787048,0.081
1746649544367475124,0.088
1746649544375163151,0.10300000000000001
1746649544382851178,0.115
1746649544390539205,0.128
1746649544398227232,0.145
1746649544405915259,0.162
1746649544413603286,0.177
1746649544421291313,0.187
1746649544428979340,0.184
1746649544436667367,0.184
1746649544444355394,0.18
1746649544452043421,0.155
1746649544459731448,0.115
1746649544467419475,0.069
1746649544475107502,0.019
1746649544482795529,-0.024
1746649544490483556,-0.056
1746649544498171583,-0.076
1746649544505859610,-0.08600000000000001
1746649544513547637,-0.093
1746649544521235664,-0.096
1746649544528923691,-0.093
1746649544536611718,-0.096
1746649544544299745,-0.091
1746649544551987772,-0.081
1746649544559675799,-0.073
1746649544567363826,-0.07100000000000001
1746649544575051853,-0.07100000000000001
1746649544582739880,-0.069
1746649544590427907,-0.061
1746649544598115934,-0.061
1746649544605803961,-0.069
1746649544613491988,-0.069
1746649544621180015,-0.064
1746649544628868042,-0.064
1746649544636556069,-0.064
1746649544644244096,-0.061
1746649544651932123,-0.069
1746649544659620150,-0.073
1746649544667308177,-0.07100000000000001
1746649544674996204,-0.066
1746649544682684231,-0.076
1746649544690372258,-0.083
1746649544698060285,-0.081
1746649544705748312,-0.078
1746649544713436339,-0.069
1746649544721124366,-0.051000000000000004
1746649544728812393,-0.036000000000000004
1746649544736500420,-0.029
1746649544744188447,-0.034
1746649544751876474,-0.046
1746649544759564501,-0.051000000000000004
1746649544767252528,-0.054
1746649544774940555,-0.059000000000000004
1746649544782628582,-0.056
1746649544790316609,-0.056
1746649544798004636,-0.059000000000000004
1746649544805692663,-0.066
1746649544813380690,-0.088
1746649544821068717,-0.069
1746649544828756744,0.184
1746649544836444771,0.673
1746649544844132798,0.8160000000000001
1746649544851820825,0.249
1746649544859508852,-0.369
1746649544867196879,-0.392
1746649544874884906,-0.187
1746649544882572933,-0.182
1746649544890260960,-0.17
1746649544897948987,-0.07100000000000001
1746649544905637014,-0.054
1746649544913325041,-0.076
1746649544921013068,-0.049
1746649544928701144,-0.032,78,728
1746649544936388753,-0.039
1746649544944076362,-0.036000000000000004
1746649544951763971,-0.029
1746649544959451580,-0.027
1746649544967139189,-0.022
1746649544974826798,-0.019
1746649544982514407,-0.014
1746649544990202016,-0.004
1746649544997889625,0.0
1746649545005577234,0.004
1746649545013264843,0.012
1746649545020952452,0.024
1746649545028640061,0.032
1746649545036327670,0.044
1746649545044015279,0.059000000000000004
1746649545051702888,0.07100000000000001
1746649545059390497,0.08600000000000001
1746649545067078106,0.10300000000000001
1746649545074765715,0.11800000000000001
1746649545082453324,0.128
1746649545090140933,0.13
1746649545097828542,0.133
1746649545105516151,0.13
1746649545113203760,0.115
1746649545120891369,0.088
1746649545128578978,0.044
1746649545136266587,-0.002
1746649545143954196,-0.044
1746649545151641805,-0.088
1746649545159329414,-0.125
1746649545167017023,-0.14
1746649545174704632,-0.14300000000000002
1746649545182392241,-0.14300000000000002
1746649545190079850,-0.145
1746649545197767459,-0.145
1746649545205455068,-0.138
1746649545213142677,-0.13
1746649545220830286,-0.128
1746649545228517895,-0.133
1746649545236205504,-0.128
1746649545243893113,-0.115
1746649545251580722,-0.11
1746649545259268331,-0.11800000000000001
1746649545266955940,-0.11800000000000001
1746649545274643549,-0.11
1746649545282331158,-0.108
1746649545290018767,-0.113
1746649545297706376,-0.11800000000000001
1746649545305393985,-0.115
1746649545313081594,-0.113
1746649545320769203,-0.11800000000000001
1746649545328456812,-0.12
1746649545336144421,-0.12
1746649545343832030,-0.12
1746649545351519639,-0.123
1746649545359207248,-0.113
1746649545366894857,-0.108
1746649545374582466,-0.11
1746649545382270075,-0.091
1746649545389957684,-0.069
1746649545397645293,-0.078
1746649545405332902,-0.098
1746649545413020511,-0.101
1746649545420708120,-0.10300000000000001
1746649545428395729,-0.108
1746649545436083338,-0.10300000000000001
1746649545443770947,-0.096
1746649545451458556,-0.098
1746649545459146165,-0.108
1746649545466833774,-0.12
1746649545474521383,-0.014
1746649545482208992,0.387
1746649545489896646,0.781,79,714
1746649545497584673,0.537,,685
1746649545505272700,-0.192
1746649545512960727,-0.525
1746649545520648754,-0.33
1746649545528336781,-0.212
1746649545536024808,-0.23900000000000002
1746649545543712835,-0.155
1746649545551400862,-0.076
1746649545559088889,-0.091
1746649545566776916,-0.088
1746649545574464943,-0.064
1746649545582152970,-0.064
1746649545589840997,-0.064
1746649545597529024,-0.049
1746649545605217051,-0.041
1746649545612905078,-0.039
1746649545620593105,-0.032
1746649545628281132,-0.027
1746649545635969159,-0.019
1746649545643657186,-0.007
1746649545651345213,-0.004
1746649545659033240,0.002
1746649545666721267,0.017
1746649545674409294,0.027
1746649545682097321,0.036000000000000004
1746649545689785348,0.054
1746649545697473375,0.076
1746649545705161402,0.098
1746649545712849429,0.11
1746649545720537456,0.115
1746649545728225483,0.123
1746649545735913510,0.135
1746649545743601537,0.14
1746649545751289564,0.135
1746649545758977591,0.128
1746649545766665618,0.101
1746649545774353645,0.046
1746649545782041672,0.0
1746649545789729699,-0.036000000000000004
1746649545797417726,-0.083
1746649545805105753,-0.125
1746649545812793780,-0.145
1746649545820481807,-0.15
1746649545828169834,-0.147
1746649545835857861,-0.152
1746649545843545888,-0.162
1746649545851233915,-0.165
1746649545858921942,-0.155
1746649545866609969,-0.138
1746649545874297996,-0.128
1746649545881986023,-0.125
1746649545889674050,-0.123
1746649545897362077,-0.115
1746649545905050104,-0.11
1746649545912738131,-0.108
1746649545920426158,-0.115
1746649545928114185,-0.12
1746649545935802212,-0.11
1746649545943490239,-0.106
1746649545951178266,-0.108
1746649545958866293,-0.11800000000000001
1746649545966554320,-0.125
1746649545974242347,-0.125
1746649545981930374,-0.12
1746649545989618401,-0.11
1746649545997306428,-0.10300000000000001
1746649546004994455,-0.10300000000000001
1746649546012682482,-0.081
1746649546020370509,-0.064
1746649546028058536,-0.08600000000000001
1746649546035746563,-0.11
1746649546043434590,-0.108
1746649546051122666,-0.093
1746649546058810484,-0.093
1746649546066498302,-0.093
1746649546074186120,-0.083
1746649546081873938,-0.078
1746649546089561756,-0.098
1746649546097249574,-0.108
1746649546104937392,0.069
1746649546112625210,0.542
1746649546120313028,0.8180000000000001
1746649546128000846,0.335
1746649546135688664,-0.404
1746649546143376482,-0.542
1746649546151064300,-0.295
1746649546158752118,-0.23900000000000002
1746649546166439936,-0.229
1746649546174127754,-0.10300000000000001
1746649546181815572,-0.054
1746649546189503390,-0.07100000000000001
1746649546197191208,-0.046
1746649546204879026,-0.022
1746649546212566844,-0.032
1746649546220254662,-0.032
1746649546227942480,-0.019
1746649546235630298,-0.012
1746649546243318116,-0.004
1746649546251005934,0.009000000000000001
1746649546258693752,0.014
1746649546266381570,0.017
1746649546274069388,0.029
1746649546281757206,0.039
1746649546289445024,0.039
1746649546297132842,0.051000000000000004
1746649546304820660,0.069
1746649546312508478,0.078
1746649546320196296,0.093
1746649546327884114,0.113
1746649546335571932,0.133
1746649546343259750,0.147
1746649546350947568,0.157
1746649546358635386,0.167
1746649546366323204,0.17200000000000001
1746649546374011022,0.17
1746649546381698840,0.162
1746649546389386658,0.138
1746649546397074476,0.098
1746649546404762294,0.054
1746649546412450112,0.002
1746649546420137930,-0.051000000000000004
1746649546427825748,-0.091
1746649546435513566,-0.12
1746649546443201384,-0.14
1746649546450889202,-0.145
1746649546458577020,-0.145
1746649546466264838,-0.152
1746649546473952656,-0.155
1746649546481640474,-0.14
1746649546489328292,-0.123
1746649546497016110,-0.12
1746649546504703928,-0.11800000000000001
1746649546512391746,-0.108
1746649546520079564,-0.10300000000000001
1746649546527767382,-0.096
1746649546535455200,-0.091
1746649546543143018,-0.093
1746649546550830836,-0.096
1746649546558518654,-0.091
1746649546566206472,-0.083
1746649546573894290,-0.08600000000000001
1746649546581582108,-0.096
1746649546589269926,-0.098
1746649546596957744,-0.096
1746649546604645562,-0.096
1746649546612333425,-0.101,80,666
1746649546620021382,-0.101
1746649546627709339,-0.091
1746649546635397296,-0.088
1746649546643085253,-0.088
1746649546650773210,-0.07100000000000001
1746649546658461167,-0.056
1746649546666149124,-0.069
1746649546673837081,-0.088
1746649546681525038,-0.08600000000000001
1746649546689212995,-0.083
1746649546696900952,-0.083
1746649546704588909,-0.081
1746649546712276866,-0.076
1746649546719964823,-0.078
1746649546727652780,-0.10300000000000001
1746649546735340737,-0.115
1746649546743028694,0.064
1746649546750716651,0.544
1746649546758404608,0.867
1746649546766092565,0.468
1746649546773780522,-0.273
1746649546781468479,-0.488
1746649546789156436,-0.251
1746649546796844393,-0.17500000000000002
1746649546804532350,-0.20400000000000001
1746649546812220307,-0.108
1746649546819908264,-0.059000000000000004
1746649546827596221,-0.091
1746649546835284178,-0.076
1746649546842972135,-0.041
1746649546850660092,-0.041
1746649546858348049,-0.044
1746649546866036006,-0.041
1746649546873723963,-0.039
1746649546881411920,-0.034
1746649546889099877,-0.029
1746649546896787834,-0.027
1746649546904475791,-0.024
1746649546912163748,-0.012
1746649546919851705,-0.004
1746649546927539662,-0.002
1746649546935227619,0.007
1746649546942915576,0.017
1746649546950603533,0.024
1746649546958291490,0.034
1746649546965979447,0.046
1746649546973667404,0.054
1746649546981355361,0.073
1746649546989043318,0.091
1746649546996731275,0.093
1746649547004419232,0.098
1746649547012107189,0.113
1746649547019795146,0.113
1746649547027483103,0.098
1746649547035171060,0.076
1746649547042859017,0.041
1746649547050546974,-0.004
1746649547058234931,-0.051000000000000004
1746649547065922888,-0.088
1746649547073610845,-0.115
1746649547081298802,-0.135
1746649547088986759,-0.14300000000000002
1746649547096674716,-0.135
1746649547104362673,-0.135
1746649547112050630,-0.14
1746649547119738587,-0.138
1746649547127426544,-0.13
1746649547135114501,-0.123
1746649547142802458,-0.11800000000000001
1746649547150490415,-0.11800000000000001
1746649547158178372,-0.123
1746649547165866329,-0.11800000000000001
1746649547173554358,-0.11
1746649547181242315,-0.108
1746649547188930272,-0.108
1746649547196618229,-0.113
1746649547204306186,-0.11800000000000001
1746649547211994143,-0.115
1746649547219682100,-0.113
1746649547227370057,-0.113
1746649547235058014,-0.113
1746649547242745971,-0.113
1746649547250433928,-0.11
1746649547258121885,-0.113
1746649547265809842,-0.113
1746649547273497799,-0.115
1746649547281185756,-0.115
1746649547288873713,-0.12
1746649547296561670,-0.125
1746649547304249627,-0.12
1746649547311937584,-0.108
1746649547319625541,-0.091
1746649547327313498,-0.083
1746649547335001455,-0.081
1746649547342689412,-0.073
1746649547350377369,-0.076
1746649547358065326,-0.093
1746649547365753283,-0.098
1746649547373441240,-0.091
1746649547381129197,-0.091
1746649547388817154,-0.093
1746649547396505111,-0.093
1746649547404193068,-0.096
1746649547411881025,-0.098
1746649547419568982,-0.12
1746649547427256939,-0.138
1746649547434944896,0.066
1746649547442632853,0.549
1746649547450320810,0.8180000000000001
1746649547458008767,0.406
1746649547465696724,-0.253
1746649547473384681,-0.41400000000000003
1746649547481072638,-0.219
1746649547488760595,-0.189
1746649547496448552,-0.202
1746649547504136509,-0.106
1746649547511824466,-0.076
1746649547519512423,-0.108
1746649547527200380,-0.096
1746649547534888337,-0.073
1746649547542576294,-0.078
1746649547550264251,-0.07100000000000001
1746649547557952208,-0.056
1746649547565640165,-0.054
1746649547573328122,-0.056
1746649547581016079,-0.049
1746649547588704036,-0.041
1746649547596391993,-0.039
1746649547604079950,-0.032
1746649547611767907,-0.022
1746649547619455864,-0.022
1746649547627143821,-0.019
1746649547634831778,-0.004
1746649547642519735,0.004
1746649547650207692,0.014
1746649547657895649,0.027
1746649547665583606,0.039
1746649547673271563,0.049
1746649547680959520,0.059000000000000004
1746649547688647477,0.07100000000000001
1746649547696335434,0.081
1746649547704023391,0.088
1746649547711711348,0.091
1746649547719399305,0.08600000000000001
1746649547727087262,0.066
1746649547734775291,0.034,82,649
1746649547742463248,-0.002,,628
1746649547750151205,-0.039
1746649547757839162,-0.078
1746649547765527119,-0.11
1746649547773215076,-0.125
1746649547780903033,-0.135
1746649547788590990,-0.14300000000000002
1746649547796278947,-0.14
1746649547803966904,-0.135
1746649547811654861,-0.135
1746649547819342818,-0.128
1746649547827030775,-0.12
1746649547834718732,-0.125
1746649547842406689,-0.128
1746649547850094646,-0.123
1746649547857782603,-0.12
1746649547865470560,-0.123
1746649547873158517,-0.12
1746649547880846474,-0.12
1746649547888534431,-0.12
1746649547896222388,-0.11800000000000001
1746649547903910345,-0.115
1746649547911598302,-0.115
1746649547919286259,-0.11800000000000001
1746649547926974216,-0.123
1746649547934662173,-0.125
1746649547942350130,-0.11800000000000001
1746649547950038087,-0.11
1746649547957726044,-0.115
1746649547965414001,-0.12
1746649547973101958,-0.115
1746649547980789915,-0.106
1746649547988477872,-0.108
1746649547996165829,-0.113
1746649548003853786,-0.108
1746649548011541743,-0.106
1746649548019229700,-0.106
1746649548026917657,-0.10300000000000001
1746649548034605614,-0.098
1746649548042293571,-0.106
1746649548049981528,-0.106
1746649548057669485,-0.101
1746649548065357442,-0.101
1746649548073045399,-0.10300000000000001
1746649548080733356,-0.106
1746649548088421313,-0.106
1746649548096109270,-0.093
1746649548103797227,-0.078
1746649548111485184,-0.073
1746649548119173141,-0.07100000000000001
1746649548126861098,-0.061
1746649548134549055,-0.059000000000000004
1746649548142237012,-0.07100000000000001
1746649548149924969,-0.083
1746649548157612926,-0.08600000000000001
1746649548165300883,-0.08600000000000001
1746649548172988840,-0.083
1746649548180676797,-0.076
1746649548188364754,-0.076
1746649548196052711,-0.088
1746649548203740668,-0.11800000000000001
1746649548211428625,-0.10300000000000001
1746649548219116582,0.16
1746649548226804539,0.636
1746649548234492496,0.761
1746649548242180453,0.221
1746649548249868410,-0.364
1746649548257556367,-0.387
1746649548265244324,-0.194
1746649548272932281,-0.197
1746649548280620238,-0.192
1746649548288308195,-0.098
1746649548295996224,-0.088
1746649548303684182,-0.106
1746649548311372140,-0.076
1746649548319060098,-0.059000000000000004
1746649548326748056,-0.07100000000000001
1746649548334436014,-0.066
1746649548342123972,-0.051000000000000004
1746649548349811930,-0.046
1746649548357499888,-0.046
1746649548365187846,-0.039
1746649548372875804,-0.034
1746649548380563762,-0.032
1746649548388251720,-0.029
1746649548395939678,-0.019
1746649548403627636,-0.002
1746649548411315594,0.004
1746649548419003552,0.012
1746649548426691510,0.014
1746649548434379468,0.019
1746649548442067426,0.039
1746649548449755384,0.064
1746649548457443342,0.073
1746649548465131300,0.073
1746649548472819258,0.076
1746649548480507216,0.093
1746649548488195174,0.10300000000000001
1746649548495883132,0.096
1746649548503571090,0.08600000000000001
1746649548511259048,0.078
1746649548518947006,0.059000000000000004
1746649548526634964,0.012
1746649548534322922,-0.036000000000000004
1746649548542010880,-0.07100000000000001
1746649548549698838,-0.10300000000000001
1746649548557386796,-0.125
1746649548565074754,-0.135
1746649548572762712,-0.14
1746649548580450670,-0.14300000000000002
1746649548588138628,-0.14300000000000002
1746649548595826586,-0.14
1746649548603514544,-0.138
1746649548611202502,-0.133
1746649548618890460,-0.13
1746649548626578418,-0.13
1746649548634266376,-0.125
1746649548641954334,-0.123
1746649548649642292,-0.123
1746649548657330250,-0.115
1746649548665018208,-0.108
1746649548672706166,-0.11800000000000001
1746649548680394124,-0.125
1746649548688082082,-0.123
1746649548695770040,-0.125
1746649548703457998,-0.128
1746649548711145956,-0.125
1746649548718833914,-0.11800000000000001
1746649548726521872,-0.115
1746649548734209830,-0.123
1746649548741897788,-0.128
1746649548749585746,-0.11800000000000001
1746649548757273704,-0.11
1746649548764961662,-0.11
1746649548772649620,-0.108
1746649548780337578,-0.108
1746649548788025536,-0.115
1746649548795713494,-0.115
1746649548803401452,-0.106
1746649548811089410,-0.093
1746649548818777368,-0.096
1746649548826465326,-0.10300000000000001
1746649548834153284,-0.101
1746649548841841242,-0.10300000000000001
1746649548849529200,-0.098
1746649548857217161,-0.083,83,639
1746649548864905118,-0.088
1746649548872593075,-0.098
1746649548880281032,-0.088
1746649548887968989,-0.083
1746649548895656946,-0.093
1746649548903344903,-0.08600000000000001
1746649548911032860,-0.078
1746649548918720817,-0.066
1746649548926408774,-0.036000000000000004
1746649548934096731,-0.034
1746649548941784688,-0.064
1746649548949472645,-0.073
1746649548957160602,-0.076
1746649548964848559,-0.088
1746649548972536516,-0.088
1746649548980224473,-0.073
1746649548987912430,-0.069
1746649548995600387,-0.081
1746649549003288344,-0.101
1746649549010976301,-0.081
1746649549018664258,0.11800000000000001
1746649549026352215,0.557
1746649549034040172,0.779
1746649549041728129,0.28800000000000003
1746649549049416086,-0.404
1746649549057104043,-0.51
1746649549064792000,-0.271
1746649549072479957,-0.226
1746649549080167914,-0.229
1746649549087855871,-0.106
1746649549095543828,-0.049
1746649549103231785,-0.076
1746649549110919742,-0.059000000000000004
1746649549118607699,-0.029
1746649549126295656,-0.029
1746649549133983613,-0.024
1746649549141671570,-0.014
1746649549149359527,-0.014
1746649549157047484,-0.007
1746649549164735441,0.0
1746649549172423398,0.002
1746649549180111355,0.014
1746649549187799312,0.017
1746649549195487269,0.017
1746649549203175226,0.034
1746649549210863183,0.044
1746649549218551140,0.046
1746649549226239097,0.059000000000000004
1746649549233927054,0.069
1746649549241615011,0.078
1746649549249302968,0.098
1746649549256990925,0.113
1746649549264678882,0.115
1746649549272366839,0.115
1746649549280054796,0.11800000000000001
1746649549287742753,0.123
1746649549295430710,0.123
1746649549303118667,0.11800000000000001
1746649549310806624,0.10300000000000001
1746649549318494581,0.069
1746649549326182538,0.036000000000000004
1746649549333870495,0.0
1746649549341558452,-0.044
1746649549349246409,-0.081
1746649549356934366,-0.098
1746649549364622323,-0.113
1746649549372310280,-0.133
1746649549379998237,-0.13
1746649549387686194,-0.11800000000000001
1746649549395374151,-0.115
1746649549403062108,-0.113
1746649549410750065,-0.10300000000000001
1746649549418438094,-0.098,84,691
1746649549426125842,-0.096
1746649549433813590,-0.083
1746649549441501338,-0.076
1746649549449189086,-0.081
1746649549456876834,-0.078
1746649549464564582,-0.069
1746649549472252330,-0.069
1746649549479940078,-0.07100000000000001
1746649549487627826,-0.07100000000000001
1746649549495315574,-0.069
1746649549503003322,-0.066
1746649549510691070,-0.069
1746649549518378818,-0.073
1746649549526066566,-0.073
1746649549533754314,-0.069
1746649549541442062,-0.069
1746649549549129810,-0.073
1746649549556817558,-0.07100000000000001
1746649549564505306,-0.069
1746649549572193054,-0.069
1746649549579880802,-0.064
1746649549587568550,-0.056
1746649549595256298,-0.059000000000000004
1746649549602944046,-0.064
1746649549610631794,-0.061
1746649549618319542,-0.056
1746649549626007290,-0.051000000000000004
1746649549633695038,-0.051000000000000004
1746649549641382786,-0.056
1746649549649070534,-0.049
1746649549656758282,-0.036000000000000004
1746649549664446030,-0.036000000000000004
1746649549672133778,-0.036000000000000004
1746649549679821526,-0.036000000000000004
1746649549687509274,-0.041
1746649549695197022,-0.041
1746649549702884770,-0.041
1746649549710572518,-0.044
1746649549718260266,-0.046
1746649549725948014,-0.044
1746649549733635762,-0.036000000000000004
1746649549741323510,-0.022
1746649549749011258,-0.014
1746649549756699006,-0.014
1746649549764386754,-0.002
1746649549772074502,0.002
1746649549779762250,-0.014
1746649549787449998,-0.027
1746649549795137746,-0.024
1746649549802825494,-0.022
1746649549810513242,-0.019
1746649549818200990,-0.022
1746649549825888738,-0.036000000000000004
1746649549833576486,-0.049
1746649549841264234,-0.07100000000000001
1746649549848951982,-0.032
1746649549856639730,0.28600000000000003
1746649549864327478,0.784
1746649549872015226,0.855
1746649549879702974,0.266
1746649549887390722,-0.293
1746649549895078470,-0.28600000000000003
1746649549902766218,-0.128
1746649549910453966,-0.152
1746649549918141714,-0.123
1746649549925829462,-0.034
1746649549933517210,-0.041
1746649549941204958,-0.059000000000000004
1746649549948892706,-0.032
1746649549956580454,-0.022
1746649549964268202,-0.027
1746649549971955950,-0.022
1746649549979643770,-0.012
1746649549987331797,-0.012
1746649549995019824,-0.012
1746649550002707851,-0.004
1746649550010395878,-0.002
1746649550018083905,0.0
1746649550025771932,0.002
1746649550033459959,0.004
1746649550041147986,0.012
1746649550048836013,0.027
1746649550056524040,0.032
1746649550064212067,0.029
1746649550071900094,0.039
1746649550079588121,0.049
1746649550087276148,0.056
1746649550094964175,0.07100000000000001
1746649550102652202,0.088
1746649550110340229,0.091
1746649550118028256,0.096
1746649550125716283,0.10300000000000001
1746649550133404310,0.098
1746649550141092337,0.093
1746649550148780364,0.088
1746649550156468391,0.069
1746649550164156418,0.034
1746649550171844445,0.0
1746649550179532472,-0.034
1746649550187220499,-0.064
1746649550194908526,-0.083
1746649550202596553,-0.093
1746649550210284580,-0.10300000000000001
1746649550217972607,-0.10300000000000001
1746649550225660634,-0.101
1746649550233348661,-0.098
1746649550241036688,-0.098
1746649550248724715,-0.098
1746649550256412742,-0.098
1746649550264100769,-0.093
1746649550271788796,-0.083
1746649550279476823,-0.078
1746649550287164850,-0.081
1746649550294852877,-0.081
1746649550302540904,-0.081
1746649550310228931,-0.078
1746649550317916958,-0.073
1746649550325604985,-0.076
1746649550333293012,-0.088
1746649550340981039,-0.088
1746649550348669066,-0.076
1746649550356357093,-0.073
1746649550364045120,-0.083
1746649550371733147,-0.083
1746649550379421174,-0.073
1746649550387109201,-0.076
1746649550394797228,-0.078
1746649550402485255,-0.076
1746649550410173282,-0.07100000000000001
1746649550417861309,-0.07100000000000001
1746649550425549336,-0.069
1746649550433237363,-0.069
1746649550440925390,-0.073
1746649550448613417,-0.07100000000000001
1746649550456301444,-0.066
1746649550463989471,-0.069
1746649550471677498,-0.069
1746649550479365525,-0.064
1746649550487053552,-0.061
1746649550494741579,-0.059000000000000004
1746649550502429606,-0.056
1746649550510117633,-0.054
1746649550517805660,-0.056
1746649550525493687,-0.061
1746649550533181714,-0.056
1746649550540869790,-0.051000000000000004,85,782
1746649550548557817,-0.049
1746649550556245844,-0.049
1746649550563933871,-0.049
1746649550571621898,-0.054
1746649550579309925,-0.061
1746649550586997952,-0.069
1746649550594685979,-0.066
1746649550602374006,-0.061
1746649550610062033,-0.061
1746649550617750060,-0.049
1746649550625438087,-0.034
1746649550633126114,-0.029
1746649550640814141,-0.022
1746649550648502168,-0.022
1746649550656190195,-0.039
1746649550663878222,-0.051000000000000004
1746649550671566249,-0.041
1746649550679254276,-0.041
1746649550686942303,-0.049
1746649550694630330,-0.046
1746649550702318357,-0.039
1746649550710006384,-0.054
1746649550717694411,-0.093
1746649550725382438,-0.064
1746649550733070465,0.231
1746649550740758492,0.72
1746649550748446519,0.84
1746649550756134546,0.298
1746649550763822573,-0.29
1746649550771510600,-0.323
1746649550779198627,-0.157
1746649550786886654,-0.17
1746649550794574681,-0.15
1746649550802262708,-0.054
1746649550809950735,-0.051000000000000004
1746649550817638762,-0.07100000000000001
1746649550825326789,-0.046
1746649550833014816,-0.034
1746649550840702843,-0.034
1746649550848390870,-0.022
1746649550856078897,-0.022
