time,ecg,hr,rr,marker
1747851445237168714,0.014
1747851445244854581,-0.009000000000000001
1747851445252540448,-0.029
1747851445260226315,-0.061
1747851445267912182,-0.098
1747851445275598049,-0.182
1747851445283283916,-0.147
1747851445290969783,0.329
1747851445298655650,1.125
1747851445306341517,1.691
1747851445314027384,1.2530000000000001
1747851445321713251,-0.189
1747851445329399118,-0.928
1747851445337084985,-0.435
1747851445344770852,-0.219
1747851445352456719,-0.448
1747851445360142586,-0.379
1747851445367828453,-0.192
1747851445375514320,-0.11
1747851445383200187,-0.017
1747851445390886054,0.041
1747851445398571921,-0.009000000000000001
1747851445406257788,-0.093
1747851445413943655,-0.155
1747851445421629522,-0.20600000000000002
1747851445429315389,-0.243
1747851445437001256,-0.258
1747851445444687123,-0.258
1747851445452372990,-0.23800000000000002
1747851445460058857,-0.226
1747851445467744724,-0.216
1747851445475430591,-0.187
1747851445483116458,-0.16
1747851445490802325,-0.13
1747851445498488192,-0.078
1747851445506174059,-0.054
1747851445513859926,-0.081
1747851445521545793,-0.11
1747851445529231660,-0.123
1747851445536917527,-0.15
1747851445544603394,-0.187
1747851445552289261,-0.219
1747851445559975128,-0.297
1747851445567660995,-0.438
1747851445575346862,-0.526
1747851445583032729,-0.539
1747851445590718596,-0.556
1747851445598404463,-0.583
1747851445606090330,-0.585
1747851445613776197,-0.58
1747851445621462064,-0.5630000000000001
1747851445629147931,-0.536
1747851445636833798,-0.514
1747851445644519665,-0.492
1747851445652205532,-0.46
1747851445659891399,-0.435
1747851445667577266,-0.425
1747851445675263133,-0.41100000000000003
1747851445682949000,-0.376
1747851445690634867,-0.342
1747851445698320734,-0.327
1747851445706006601,-0.32
1747851445713692468,-0.31
1747851445721378335,-0.292
1747851445729064202,-0.256
1747851445736750069,-0.196
1747851445744435936,-0.157
1747851445752121803,-0.199
1747851445759807670,-0.292
1747851445767493537,-0.364
1747851445775179404,-0.386
1747851445782865271,-0.403
1747851445790551138,-0.41100000000000003
1747851445798237057,-0.41600000000000004,90,676
1747851445805923342,-0.433
1747851445813609627,-0.44
1747851445821295912,-0.423
1747851445828982197,-0.396
1747851445836668482,-0.374
1747851445844354767,-0.354
1747851445852041052,-0.334
1747851445859727337,-0.317
1747851445867413622,-0.324
1747851445875099907,-0.34900000000000003
1747851445882786192,-0.356
1747851445890472477,-0.342
1747851445898158762,-0.327
1747851445905845047,-0.307
1747851445913531332,-0.275
1747851445921217617,-0.231
1747851445928903902,-0.20400000000000001
1747851445936590187,-0.231
1747851445944276472,-0.278
1747851445951962757,-0.209
1747851445959649042,0.221
1747851445967335327,1.0090000000000001
1747851445975021612,1.723
1747851445982707897,1.5090000000000001
1747851445990394182,0.098
1747851445998080467,-0.8320000000000001
1747851446005766752,-0.371
1747851446013453037,-0.014
1747851446021139322,-0.228
1747851446028825607,-0.214
1747851446036511892,-0.093
1747851446044198177,-0.157
1747851446051884462,-0.179
1747851446059570747,-0.11800000000000001
1747851446067257032,-0.113
1747851446074943317,-0.13
1747851446082629602,-0.108
1747851446090315887,-0.093
1747851446098002172,-0.096
1747851446105688457,-0.078
1747851446113374742,-0.051000000000000004
1747851446121061027,-0.034
1747851446128747312,-0.014
1747851446136433597,0.014
1747851446144119882,0.044
1747851446151806167,0.073
1747851446159492452,0.096
1747851446167178737,0.098
1747851446174865022,0.083
1747851446182551307,0.054
1747851446190237592,0.022
1747851446197923877,-0.012
1747851446205610162,-0.051000000000000004
1747851446213296447,-0.11
1747851446220982732,-0.17400000000000002
1747851446228669017,-0.233
1747851446236355302,-0.292
1747851446244041587,-0.34400000000000003
1747851446251727872,-0.376
1747851446259414157,-0.396
1747851446267100442,-0.406
1747851446274786727,-0.41100000000000003
1747851446282473012,-0.401
1747851446290159297,-0.386
1747851446297845582,-0.376
1747851446305531867,-0.366
1747851446313218152,-0.356
1747851446320904437,-0.34900000000000003
1747851446328590722,-0.34400000000000003
1747851446336277007,-0.334
1747851446343963292,-0.327
1747851446351649577,-0.324
1747851446359335918,-0.312
1747851446367021785,-0.3
1747851446374707652,-0.295
1747851446382393519,-0.292
1747851446390079386,-0.28800000000000003
1747851446397765253,-0.28300000000000003
1747851446405451120,-0.278
1747851446413136987,-0.273
1747851446420822854,-0.263
1747851446428508721,-0.248
1747851446436194588,-0.228
1747851446443880455,-0.219
1747851446451566322,-0.189
1747851446459252189,-0.123
1747851446466938056,-0.088
1747851446474623923,-0.098
1747851446482309790,-0.068
1747851446489995657,-0.027
1747851446497681524,-0.022
1747851446505367391,-0.022
1747851446513053258,-0.002
1747851446520739125,0.024
1747851446528424992,0.041
1747851446536110859,0.022
1747851446543796726,-0.019
1747851446551482593,-0.041
1747851446559168460,-0.036000000000000004
1747851446566854327,-0.024
1747851446574540194,0.002
1747851446582226061,0.034
1747851446589911928,0.032
1747851446597597795,-0.012
1747851446605283662,-0.091
1747851446612969529,-0.147
1747851446620655396,0.049
1747851446628341263,0.669
1747851446636027130,1.484
1747851446643712997,1.834
1747851446651398864,0.893
1747851446659084731,-0.593
1747851446666770598,-0.772
1747851446674456465,-0.199
1747851446682142332,-0.258
1747851446689828199,-0.43
1747851446697514066,-0.302
1747851446705199933,-0.278
1747851446712885800,-0.332
1747851446720571667,-0.28800000000000003
1747851446728257534,-0.246
1747851446735943401,-0.246
1747851446743629268,-0.221
1747851446751315135,-0.187
1747851446759001002,-0.169
1747851446766686869,-0.145
1747851446774372736,-0.083
1747851446782058603,0.019
1747851446789744470,0.11
1747851446797430337,0.16
1747851446805116204,0.211
1747851446812802071,0.275
1747851446820487938,0.329
1747851446828173805,0.364
1747851446835859672,0.364
1747851446843545539,0.334
1747851446851231406,0.312
1747851446858917273,0.302
1747851446866603140,0.292
1747851446874289007,0.268
1747851446881974874,0.221
1747851446889660741,0.152
1747851446897346608,0.076
1747851446905032475,0.014
1747851446912718342,-0.027
1747851446920404261,-0.049,90,663
1747851446928090546,-0.061,,665
1747851446935776831,-0.066
1747851446943463116,-0.064
1747851446951149401,-0.059000000000000004
1747851446958835686,-0.061
1747851446966521971,-0.064
1747851446974208256,-0.064
1747851446981894541,-0.078
1747851446989580826,-0.1
1747851446997267111,-0.113
1747851447004953396,-0.125
1747851447012639681,-0.135
1747851447020325966,-0.15
1747851447028012251,-0.17200000000000001
1747851447035698536,-0.182
1747851447043384821,-0.179
1747851447051071106,-0.187
1747851447058757391,-0.192
1747851447066443676,-0.187
1747851447074129961,-0.196
1747851447081816246,-0.211
1747851447089502531,-0.214
1747851447097188816,-0.221
1747851447104875101,-0.241
1747851447112561386,-0.251
1747851447120247671,-0.248
1747851447127933956,-0.253
1747851447135620241,-0.265
1747851447143306526,-0.263
1747851447150992811,-0.253
1747851447158679096,-0.251
1747851447166365381,-0.246
1747851447174051666,-0.241
1747851447181737951,-0.23800000000000002
1747851447189424236,-0.23800000000000002
1747851447197110521,-0.26
1747851447204796806,-0.3
1747851447212483091,-0.312
1747851447220169376,-0.292
1747851447227855661,-0.292
1747851447235541946,-0.302
1747851447243228231,-0.305
1747851447250914516,-0.305
1747851447258600801,-0.307
1747851447266287086,-0.315
1747851447273973371,-0.364
1747851447281659656,-0.339
1747851447289345941,0.046
1747851447297032226,0.812
1747851447304718511,1.55
1747851447312404796,1.459
1747851447320091081,0.108
1747851447327777366,-0.994
1747851447335463651,-0.662
1747851447343149936,-0.248
1747851447350836221,-0.443
1747851447358522506,-0.452
1747851447366208791,-0.307
1747851447373895076,-0.339
1747851447381581361,-0.356
1747851447389267646,-0.297
1747851447396953931,-0.28300000000000003
1747851447404640216,-0.28
1747851447412326501,-0.246
1747851447420012786,-0.221
1747851447427699071,-0.201
1747851447435385356,-0.169
1747851447443071641,-0.14200000000000002
1747851447450757926,-0.113
1747851447458444211,-0.078
1747851447466130496,-0.041
1747851447473816781,-0.004
1747851447481503122,0.029
1747851447489188989,0.056
1747851447496874856,0.066
1747851447504560723,0.061
1747851447512246590,0.041
1747851447519932457,0.017
1747851447527618324,-0.014
1747851447535304191,-0.056
1747851447542990058,-0.115
1747851447550675925,-0.182
1747851447558361792,-0.23800000000000002
1747851447566047659,-0.28800000000000003
1747851447573733526,-0.329
1747851447581419393,-0.352
1747851447589105260,-0.361
1747851447596791127,-0.366
1747851447604476994,-0.361
1747851447612162861,-0.34700000000000003
1747851447619848728,-0.329
1747851447627534595,-0.315
1747851447635220462,-0.297
1747851447642906329,-0.28300000000000003
1747851447650592196,-0.278
1747851447658278063,-0.273
1747851447665963930,-0.268
1747851447673649797,-0.265
1747851447681335664,-0.258
1747851447689021531,-0.253
1747851447696707398,-0.256
1747851447704393265,-0.258
1747851447712079132,-0.253
1747851447719764999,-0.251
1747851447727450866,-0.248
1747851447735136733,-0.248
1747851447742822600,-0.251
1747851447750508467,-0.248
1747851447758194334,-0.241
1747851447765880201,-0.23800000000000002
1747851447773566068,-0.233
1747851447781251935,-0.224
1747851447788937802,-0.219
1747851447796623669,-0.221
1747851447804309536,-0.226
1747851447811995403,-0.214
1747851447819681270,-0.199
1747851447827367137,-0.184
1747851447835053004,-0.169
1747851447842738871,-0.157
1747851447850424738,-0.147
1747851447858110605,-0.152
1747851447865796472,-0.182
1747851447873482339,-0.201
1747851447881168206,-0.192
1747851447888854073,-0.177
1747851447896539940,-0.169
1747851447904225807,-0.16
1747851447911911674,-0.152
1747851447919597541,-0.155
1747851447927283408,-0.169
1747851447934969275,-0.216
1747851447942655142,-0.233
1747851447950341009,0.017
1747851447958026876,0.684
1747851447965712743,1.506
1747851447973398610,1.799
1747851447981084477,0.797
1747851447988770344,-0.64
1747851447996456211,-0.723
1747851448004142078,-0.157
1747851448011827945,-0.226
1747851448019513812,-0.352
1747851448027199679,-0.201
1747851448034885546,-0.182
1747851448042571465,-0.228,90,670
1747851448050257750,-0.177
1747851448057944035,-0.14
1747851448065630320,-0.147
1747851448073316605,-0.12
1747851448081002890,-0.088
1747851448088689175,-0.073
1747851448096375460,-0.051000000000000004
1747851448104061745,-0.022
1747851448111748030,0.007
1747851448119434315,0.039
1747851448127120600,0.073
1747851448134806885,0.1
1747851448142493170,0.13
1747851448150179455,0.155
1747851448157865740,0.16
1747851448165552025,0.147
1747851448173238310,0.128
1747851448180924595,0.10300000000000001
1747851448188610880,0.076
1747851448196297165,0.039
1747851448203983450,-0.007
1747851448211669735,-0.068
1747851448219356020,-0.137
1747851448227042305,-0.196
1747851448234728590,-0.23600000000000002
1747851448242414875,-0.265
1747851448250101160,-0.28500000000000003
1747851448257787445,-0.28800000000000003
1747851448265473730,-0.28800000000000003
1747851448273160015,-0.29
1747851448280846300,-0.275
1747851448288532585,-0.258
1747851448296218870,-0.253
1747851448303905155,-0.253
1747851448311591440,-0.246
1747851448319277725,-0.228
1747851448326964010,-0.219
1747851448334650295,-0.216
1747851448342336580,-0.216
1747851448350022865,-0.211
1747851448357709150,-0.20600000000000002
1747851448365395435,-0.20400000000000001
1747851448373081720,-0.201
1747851448380768005,-0.199
1747851448388454290,-0.192
1747851448396140575,-0.187
1747851448403826860,-0.189
1747851448411513145,-0.194
1747851448419199430,-0.184
1747851448426885715,-0.167
1747851448434572000,-0.157
1747851448442258285,-0.15
1747851448449944570,-0.135
1747851448457630855,-0.11800000000000001
1747851448465317140,-0.105
1747851448473003425,-0.083
1747851448480689710,-0.068
1747851448488375995,-0.064
1747851448496062280,-0.056
1747851448503748565,-0.056
1747851448511434850,-0.061
1747851448519121135,-0.061
1747851448526807420,-0.064
1747851448534493705,-0.088
1747851448542179990,-0.108
1747851448549866275,-0.1
1747851448557552560,-0.088
1747851448565238845,-0.078
1747851448572925130,-0.054
1747851448580611415,-0.032
1747851448588297700,-0.036000000000000004
1747851448595983985,-0.061
1747851448603670330,-0.12,90,665
1747851448611356197,-0.155,,666
1747851448619042064,0.096
1747851448626727931,0.785
1747851448634413798,1.612
1747851448642099665,1.895
1747851448649785532,0.896
1747851448657471399,-0.526
1747851448665157266,-0.593
1747851448672843133,-0.009000000000000001
1747851448680529000,-0.1
1747851448688214867,-0.241
1747851448695900734,-0.083
1747851448703586601,-0.056
1747851448711272468,-0.093
1747851448718958335,-0.002
1747851448726644202,0.054
1747851448734330069,0.034
1747851448742015936,0.059000000000000004
1747851448749701803,0.08600000000000001
1747851448757387670,0.07100000000000001
1747851448765073537,0.073
1747851448772759404,0.115
1747851448780445271,0.155
1747851448788131138,0.189
1747851448795817005,0.256
1747851448803502872,0.334
1747851448811188739,0.391
1747851448818874606,0.443
1747851448826560473,0.482
1747851448834246340,0.47200000000000003
1747851448841932207,0.44
1747851448849618074,0.41100000000000003
1747851448857303941,0.364
1747851448864989808,0.297
1747851448872675675,0.23600000000000002
1747851448880361542,0.167
1747851448888047409,0.088
1747851448895733276,0.007
1747851448903419143,-0.054
1747851448911105010,-0.098
1747851448918790877,-0.14200000000000002
1747851448926476744,-0.194
1747851448934162611,-0.221
1747851448941848478,-0.211
1747851448949534345,-0.20400000000000001
1747851448957220212,-0.20600000000000002
1747851448964906079,-0.192
1747851448972591946,-0.187
1747851448980277813,-0.219
1747851448987963680,-0.248
1747851448995649547,-0.253
1747851449003335414,-0.265
1747851449011021281,-0.29
1747851449018707148,-0.3
1747851449026393015,-0.29
1747851449034078882,-0.29
1747851449041764749,-0.3
1747851449049450616,-0.305
1747851449057136483,-0.302
1747851449064822350,-0.297
1747851449072508217,-0.295
1747851449080194084,-0.295
1747851449087879951,-0.3
1747851449095565818,-0.297
1747851449103251685,-0.28
1747851449110937552,-0.265
1747851449118623419,-0.27
1747851449126309286,-0.275
1747851449133995153,-0.26
1747851449141681020,-0.243
1747851449149366887,-0.228
1747851449157052754,-0.221
1747851449164738673,-0.224
1747851449172424749,-0.219
1747851449180110825,-0.219
1747851449187796901,-0.251
1747851449195482977,-0.273
1747851449203169053,-0.23600000000000002
1747851449210855129,-0.201
1747851449218541205,-0.20400000000000001
1747851449226227281,-0.20400000000000001
1747851449233913357,-0.192
1747851449241599433,-0.199
1747851449249285509,-0.209
1747851449256971585,-0.246
1747851449264657661,-0.273
1747851449272343737,-0.022
1747851449280029813,0.669
1747851449287715889,1.445
1747851449295401965,1.651
1747851449303088041,0.6960000000000001
1747851449310774117,-0.62
1747851449318460193,-0.679
1747851449326146269,-0.135
1747851449333832345,-0.194
1747851449341518421,-0.312
1747851449349204497,-0.177
1747851449356890573,-0.164
1747851449364576649,-0.201
1747851449372262725,-0.125
1747851449379948801,-0.08600000000000001
1747851449387634877,-0.115
1747851449395320953,-0.10300000000000001
1747851449403007029,-0.07100000000000001
1747851449410693105,-0.061
1747851449418379181,-0.034
1747851449426065257,-0.004
1747851449433751333,0.004
1747851449441437409,0.032
1747851449449123485,0.076
1747851449456809561,0.11
1747851449464495637,0.14
1747851449472181713,0.179
1747851449479867789,0.201
1747851449487553865,0.182
1747851449495239941,0.157
1747851449502926017,0.14200000000000002
1747851449510612093,0.113
1747851449518298169,0.064
1747851449525984245,0.012
1747851449533670321,-0.064
1747851449541356397,-0.157
1747851449549042473,-0.224
1747851449556728549,-0.263
1747851449564414625,-0.3
1747851449572100701,-0.317
1747851449579786777,-0.32
1747851449587472853,-0.34400000000000003
1747851449595158929,-0.371
1747851449602845005,-0.374
1747851449610531081,-0.369
1747851449618217157,-0.366
1747851449625903233,-0.354
1747851449633589309,-0.342
1747851449641275385,-0.337
1747851449648961461,-0.334
1747851449656647537,-0.317
1747851449664333613,-0.297
1747851449672019689,-0.273
1747851449679705765,-0.253
1747851449687391841,-0.278
1747851449695077917,-0.327
1747851449702763993,-0.337
1747851449710450069,-0.332
1747851449718136145,-0.34400000000000003
1747851449725822277,-0.34900000000000003,90,663
1747851449733508353,-0.34700000000000003
1747851449741194429,-0.34900000000000003
1747851449748880505,-0.34400000000000003
1747851449756566581,-0.337
1747851449764252657,-0.332
1747851449771938733,-0.327
1747851449779624809,-0.329
1747851449787310885,-0.327
1747851449794996961,-0.317
1747851449802683037,-0.302
1747851449810369113,-0.28
1747851449818055189,-0.26
1747851449825741265,-0.241
1747851449833427341,-0.209
1747851449841113417,-0.182
1747851449848799493,-0.20600000000000002
1747851449856485569,-0.253
1747851449864171645,-0.256
1747851449871857721,-0.228
1747851449879543797,-0.224
1747851449887229873,-0.226
1747851449894915949,-0.211
1747851449902602025,-0.20600000000000002
1747851449910288101,-0.221
1747851449917974177,-0.26
1747851449925660253,-0.315
1747851449933346329,-0.192
1747851449941032405,0.361
1747851449948718481,1.179
1747851449956404557,1.701
1747851449964090633,1.1440000000000001
1747851449971776709,-0.317
1747851449979462785,-0.905
1747851449987148861,-0.359
1747851449994834937,-0.20600000000000002
1747851450002521013,-0.428
1747851450010207089,-0.34700000000000003
1747851450017893165,-0.253
1747851450025579241,-0.312
1747851450033265317,-0.292
1747851450040951393,-0.233
1747851450048637469,-0.231
1747851450056323545,-0.221
1747851450064009621,-0.184
1747851450071695697,-0.164
1747851450079381773,-0.145
1747851450087067849,-0.113
1747851450094753925,-0.081
1747851450102440001,-0.049
1747851450110126077,-0.014
1747851450117812153,0.024
1747851450125498229,0.061
1747851450133184305,0.091
1747851450140870381,0.113
1747851450148556457,0.11800000000000001
1747851450156242533,0.108
1747851450163928609,0.08600000000000001
1747851450171614685,0.056
1747851450179300761,0.019
1747851450186986837,-0.024
1747851450194672913,-0.08600000000000001
1747851450202358989,-0.15
1747851450210045065,-0.209
1747851450217731141,-0.263
1747851450225417217,-0.302
1747851450233103293,-0.324
1747851450240789369,-0.332
1747851450248475445,-0.332
1747851450256161521,-0.324
1747851450263847597,-0.315
1747851450271533673,-0.3
1747851450279219749,-0.28500000000000003
1747851450286905877,-0.273
1747851450294591744,-0.265
1747851450302277611,-0.253
1747851450309963478,-0.243
1747851450317649345,-0.23800000000000002
1747851450325335212,-0.23600000000000002
1747851450333021079,-0.231
1747851450340706946,-0.226
1747851450348392813,-0.226
1747851450356078680,-0.226
1747851450363764547,-0.224
1747851450371450414,-0.221
1747851450379136281,-0.221
1747851450386822148,-0.216
1747851450394508015,-0.211
1747851450402193882,-0.209
1747851450409879749,-0.209
1747851450417565616,-0.20600000000000002
1747851450425251483,-0.201
1747851450432937350,-0.199
1747851450440623217,-0.194
1747851450448309084,-0.192
1747851450455994951,-0.194
1747851450463680818,-0.196
1747851450471366685,-0.189
1747851450479052552,-0.177
1747851450486738419,-0.16
1747851450494424286,-0.147
1747851450502110153,-0.135
1747851450509796020,-0.125
1747851450517481887,-0.135
1747851450525167754,-0.167
1747851450532853621,-0.184
1747851450540539488,-0.177
1747851450548225355,-0.169
1747851450555911222,-0.169
1747851450563597089,-0.162
1747851450571282956,-0.155
1747851450578968823,-0.16
1747851450586654690,-0.182
1747851450594340557,-0.23800000000000002
1747851450602026424,-0.263
1747851450609712291,0.009000000000000001
1747851450617398158,0.716
1747851450625084025,1.555
1747851450632769892,1.809
1747851450640455759,0.738
1747851450648141626,-0.679
1747851450655827493,-0.6990000000000001
1747851450663513360,-0.137
1747851450671199227,-0.23600000000000002
1747851450678885094,-0.359
1747851450686570961,-0.20400000000000001
1747851450694256828,-0.189
1747851450701942695,-0.23800000000000002
1747851450709628562,-0.177
1747851450717314429,-0.14
1747851450725000296,-0.145
1747851450732686163,-0.11800000000000001
1747851450740372030,-0.08600000000000001
1747851450748057897,-0.07100000000000001
1747851450755743764,-0.046
1747851450763429631,-0.017
1747851450771115498,0.012
1747851450778801365,0.044
1747851450786487232,0.081
1747851450794173099,0.11800000000000001
1747851450801858966,0.152
1747851450809544833,0.179
1747851450817230700,0.194
1747851450824916567,0.192
1747851450832602434,0.17400000000000002
1747851450840288301,0.15
1747851450847974220,0.115,90,669
1747851450855660505,0.076,,653
1747851450863346790,0.019
1747851450871033075,-0.049
1747851450878719360,-0.12
1747851450886405645,-0.182
1747851450894091930,-0.231
1747851450901778215,-0.268
1747851450909464500,-0.28500000000000003
1747851450917150785,-0.29
1747851450924837070,-0.292
1747851450932523355,-0.28500000000000003
1747851450940209640,-0.273
1747851450947895925,-0.258
1747851450955582210,-0.246
1747851450963268495,-0.23600000000000002
1747851450970954780,-0.228
1747851450978641065,-0.219
1747851450986327350,-0.211
1747851450994013635,-0.209
1747851451001699920,-0.20600000000000002
1747851451009386205,-0.20400000000000001
1747851451017072490,-0.201
1747851451024758775,-0.199
1747851451032445060,-0.201
1747851451040131345,-0.201
1747851451047817630,-0.199
1747851451055503915,-0.196
1747851451063190200,-0.196
1747851451070876485,-0.194
1747851451078562770,-0.189
1747851451086249055,-0.189
1747851451093935340,-0.184
1747851451101621625,-0.182
1747851451109307910,-0.179
1747851451116994195,-0.17400000000000002
1747851451124680480,-0.169
1747851451132366765,-0.17200000000000001
1747851451140053050,-0.179
1747851451147739335,-0.17400000000000002
1747851451155425620,-0.16
1747851451163111905,-0.147
1747851451170798190,-0.135
1747851451178484475,-0.123
1747851451186170760,-0.108
1747851451193857045,-0.108
1747851451201543330,-0.14
1747851451209229615,-0.169
1747851451216915900,-0.167
1747851451224602185,-0.152
1747851451232288470,-0.15
1747851451239974755,-0.147
1747851451247661040,-0.14200000000000002
1747851451255347325,-0.14
1747851451263033610,-0.155
1747851451270719895,-0.20400000000000001
1747851451278406180,-0.258
1747851451286092465,-0.113
1747851451293778750,0.47000000000000003
1747851451301465035,1.326
1747851451309151320,1.875
1747851451316837605,1.228
1747851451324523890,-0.324
1747851451332210175,-0.841
1747851451339896460,-0.258
1747851451347582745,-0.15
1747851451355269030,-0.356
1747851451362955315,-0.243
1747851451370641600,-0.164
1747851451378327885,-0.226
1747851451386014170,-0.194
1747851451393700455,-0.135
1747851451401386740,-0.137
1747851451409073081,-0.125
1747851451416758948,-0.08600000000000001
1747851451424444815,-0.07100000000000001
1747851451432130682,-0.054
1747851451439816549,-0.019
1747851451447502416,0.009000000000000001
1747851451455188283,0.034
1747851451462874150,0.07100000000000001
1747851451470560017,0.11
1747851451478245884,0.145
1747851451485931751,0.17200000000000001
1747851451493617618,0.194
1747851451501303485,0.196
1747851451508989352,0.182
1747851451516675219,0.157
1747851451524361086,0.128
1747851451532046953,0.091
1747851451539732820,0.039
1747851451547418687,-0.024
1747851451555104554,-0.093
1747851451562790421,-0.157
1747851451570476288,-0.211
1747851451578162155,-0.248
1747851451585848022,-0.273
1747851451593533889,-0.28300000000000003
1747851451601219756,-0.28500000000000003
1747851451608905623,-0.28
1747851451616591490,-0.268
1747851451624277357,-0.256
1747851451631963224,-0.246
1747851451639649091,-0.233
1747851451647334958,-0.224
1747851451655020825,-0.216
1747851451662706692,-0.211
1747851451670392559,-0.20600000000000002
1747851451678078426,-0.20400000000000001
1747851451685764293,-0.199
1747851451693450160,-0.199
1747851451701136027,-0.199
1747851451708821894,-0.196
1747851451716507761,-0.194
1747851451724193628,-0.196
1747851451731879495,-0.196
1747851451739565362,-0.194
1747851451747251229,-0.189
1747851451754937096,-0.187
1747851451762622963,-0.184
1747851451770308830,-0.184
1747851451777994697,-0.179
1747851451785680564,-0.17400000000000002
1747851451793366431,-0.17400000000000002
1747851451801052298,-0.17400000000000002
1747851451808738165,-0.169
1747851451816424032,-0.16
1747851451824109899,-0.16
1747851451831795766,-0.167
1747851451839481633,-0.167
1747851451847167500,-0.16
1747851451854853367,-0.145
1747851451862539234,-0.13
1747851451870225101,-0.12
1747851451877910968,-0.11
1747851451885596835,-0.098
1747851451893282702,-0.11
1747851451900968569,-0.145
1747851451908654436,-0.162
1747851451916340303,-0.152
1747851451924026170,-0.14200000000000002
1747851451931712037,-0.14200000000000002
1747851451939397904,-0.137
1747851451947083771,-0.132
1747851451954769638,-0.137
1747851451962455505,-0.16
1747851451970141428,-0.221,90,664
1747851451977827295,-0.23800000000000002
1747851451985513162,0.061
1747851451993199029,0.785
1747851452000884896,1.622
1747851452008570763,1.834
1747851452016256630,0.6910000000000001
1747851452023942497,-0.706
1747851452031628364,-0.662
1747851452039314231,-0.12
1747851452047000098,-0.246
1747851452054685965,-0.34900000000000003
1747851452062371832,-0.194
1747851452070057699,-0.189
1747851452077743566,-0.231
1747851452085429433,-0.169
1747851452093115300,-0.137
1747851452100801167,-0.14
1747851452108487034,-0.113
1747851452116172901,-0.083
1747851452123858768,-0.068
1747851452131544635,-0.044
1747851452139230502,-0.012
1747851452146916369,0.014
1747851452154602236,0.044
1747851452162288103,0.081
1747851452169973970,0.11800000000000001
1747851452177659837,0.152
1747851452185345704,0.179
1747851452193031571,0.192
1747851452200717438,0.187
1747851452208403305,0.17200000000000001
1747851452216089172,0.147
1747851452223775039,0.113
1747851452231460906,0.07100000000000001
1747851452239146773,0.019
1747851452246832640,-0.041
1747851452254518507,-0.11
1747851452262204374,-0.17200000000000001
1747851452269890241,-0.219
1747851452277576108,-0.256
1747851452285261975,-0.278
1747851452292947842,-0.28800000000000003
1747851452300633709,-0.28800000000000003
1747851452308319576,-0.28300000000000003
1747851452316005443,-0.27
1747851452323691310,-0.256
1747851452331377177,-0.243
1747851452339063044,-0.233
1747851452346748911,-0.224
1747851452354434778,-0.216
1747851452362120645,-0.209
1747851452369806512,-0.20400000000000001
1747851452377492379,-0.201
1747851452385178246,-0.199
1747851452392864113,-0.196
1747851452400549980,-0.194
1747851452408235847,-0.194
1747851452415921714,-0.194
1747851452423607581,-0.194
1747851452431293448,-0.192
1747851452438979315,-0.189
1747851452446665182,-0.189
1747851452454351049,-0.184
1747851452462036916,-0.179
1747851452469722783,-0.179
1747851452477408650,-0.179
1747851452485094517,-0.177
1747851452492780384,-0.17200000000000001
1747851452500466251,-0.167
1747851452508152118,-0.162
1747851452515837985,-0.157
1747851452523523852,-0.157
1747851452531209771,-0.164
1747851452538896056,-0.162
1747851452546582341,-0.15
1747851452554268626,-0.137
1747851452561954911,-0.123
1747851452569641196,-0.11
1747851452577327481,-0.1
1747851452585013766,-0.10300000000000001
1747851452592700051,-0.13
1747851452600386336,-0.16
1747851452608072621,-0.162
1747851452615758906,-0.15
1747851452623445191,-0.145
1747851452631131476,-0.14
1747851452638817761,-0.137
1747851452646504046,-0.14200000000000002
1747851452654190331,-0.155
1747851452661876616,-0.194
1747851452669562901,-0.251
1747851452677249186,-0.14
1747851452684935471,0.393
1747851452692621756,1.243
1747851452700308041,1.861
1747851452707994326,1.356
1747851452715680611,-0.182
1747851452723366896,-0.859
1747851452731053181,-0.315
1747851452738739466,-0.13
1747851452746425751,-0.342
1747851452754112036,-0.256
1747851452761798321,-0.16
1747851452769484606,-0.216
1747851452777170891,-0.196
1747851452784857176,-0.14
1747851452792543461,-0.14
1747851452800229746,-0.125
1747851452807916031,-0.091
1747851452815602316,-0.07100000000000001
1747851452823288601,-0.051000000000000004
1747851452830974886,-0.017
1747851452838661171,0.007
1747851452846347456,0.027
1747851452854033741,0.07100000000000001
1747851452861720026,0.12
1747851452869406311,0.147
1747851452877092596,0.17400000000000002
1747851452884778881,0.199
1747851452892465166,0.201
1747851452900151451,0.192
1747851452907837736,0.17400000000000002
1747851452915524021,0.147
1747851452923210306,0.11
1747851452930896591,0.066
1747851452938582876,0.0
1747851452946269161,-0.076
1747851452953955446,-0.135
1747851452961641731,-0.189
1747851452969328016,-0.243
1747851452977014301,-0.27
1747851452984700586,-0.28
1747851452992386871,-0.29
1747851453000073156,-0.28500000000000003
1747851453007759441,-0.275
1747851453015445726,-0.268
1747851453023132011,-0.26
1747851453030818296,-0.248
1747851453038504581,-0.233
1747851453046190866,-0.221
1747851453053877151,-0.214
1747851453061563436,-0.211
1747851453069249721,-0.209
1747851453076936006,-0.201
1747851453084622291,-0.199
1747851453092308632,-0.194,90,674
1747851453099994499,-0.192,,679
1747851453107680366,-0.199
1747851453115366233,-0.201
1747851453123052100,-0.194
1747851453130737967,-0.189
1747851453138423834,-0.187
1747851453146109701,-0.187
1747851453153795568,-0.189
1747851453161481435,-0.192
1747851453169167302,-0.189
1747851453176853169,-0.179
1747851453184539036,-0.17400000000000002
1747851453192224903,-0.182
1747851453199910770,-0.17200000000000001
1747851453207596637,-0.162
1747851453215282504,-0.164
1747851453222968371,-0.164
1747851453230654238,-0.155
1747851453238340105,-0.147
1747851453246025972,-0.137
1747851453253711839,-0.123
1747851453261397706,-0.105
1747851453269083573,-0.1
1747851453276769440,-0.123
1747851453284455307,-0.157
1747851453292141174,-0.167
1747851453299827041,-0.155
1747851453307512908,-0.145
1747851453315198775,-0.14200000000000002
1747851453322884642,-0.145
1747851453330570509,-0.147
1747851453338256376,-0.145
1747851453345942243,-0.167
1747851453353628110,-0.23800000000000002
1747851453361313977,-0.231
1747851453368999844,0.147
1747851453376685711,0.928
1747851453384371578,1.661
1747851453392057445,1.592
1747851453399743312,0.315
1747851453407429179,-0.802
1747851453415115046,-0.524
1747851453422800913,-0.105
1747851453430486780,-0.292
1747851453438172647,-0.307
1747851453445858514,-0.162
1747851453453544381,-0.196
1747851453461230248,-0.20400000000000001
1747851453468916115,-0.13
1747851453476601982,-0.123
1747851453484287849,-0.128
1747851453491973716,-0.093
1747851453499659583,-0.066
1747851453507345450,-0.044
1747851453515031317,-0.017
1747851453522717184,0.004
1747851453530403051,0.034
1747851453538088918,0.076
1747851453545774785,0.108
1747851453553460652,0.14
1747851453561146519,0.182
1747851453568832386,0.216
1747851453576518253,0.228
1747851453584204120,0.221
1747851453591889987,0.199
1747851453599575854,0.169
1747851453607261721,0.13
1747851453614947588,0.08600000000000001
1747851453622633455,0.024
1747851453630319322,-0.056
1747851453638005189,-0.13
1747851453645691056,-0.182
1747851453653376975,-0.231,90,696
1747851453661063260,-0.273
1747851453668749545,-0.29
1747851453676435830,-0.295
1747851453684122115,-0.3
1747851453691808400,-0.29
1747851453699494685,-0.27
1747851453707180970,-0.26
1747851453714867255,-0.256
1747851453722553540,-0.243
1747851453730239825,-0.228
1747851453737926110,-0.224
1747851453745612395,-0.219
1747851453753298680,-0.209
1747851453760984965,-0.20600000000000002
1747851453768671250,-0.201
1747851453776357535,-0.194
1747851453784043820,-0.196
1747851453791730105,-0.196
1747851453799416390,-0.192
1747851453807102675,-0.192
1747851453814788960,-0.192
1747851453822475245,-0.194
1747851453830161530,-0.201
1747851453837847815,-0.199
1747851453845534100,-0.189
1747851453853220385,-0.184
1747851453860906670,-0.189
1747851453868592955,-0.187
1747851453876279240,-0.177
1747851453883965525,-0.179
1747851453891651810,-0.187
1747851453899338095,-0.182
1747851453907024380,-0.169
1747851453914710665,-0.167
1747851453922396950,-0.155
1747851453930083235,-0.137
1747851453937769520,-0.128
1747851453945455805,-0.12
1747851453953142090,-0.14
1747851453960828375,-0.177
1747851453968514660,-0.201
1747851453976200945,-0.201
1747851453983887230,-0.189
1747851453991573515,-0.187
1747851453999259800,-0.192
1747851454006946085,-0.192
1747851454014632370,-0.199
1747851454022318655,-0.228
1747851454030004940,-0.31
1747851454037691225,-0.359
1747851454045377510,-0.14
1747851454053063795,0.467
1747851454060750080,1.272
1747851454068436365,1.747
1747851454076122650,1.016
1747851454083808935,-0.519
1747851454091495220,-0.928
1747851454099181505,-0.34400000000000003
1747851454106867790,-0.278
1747851454114554075,-0.465
1747851454122240360,-0.364
1747851454129926645,-0.292
1747851454137612930,-0.31
1747851454145299215,-0.268
1747851454152985500,-0.233
1747851454160671785,-0.219
1747851454168358070,-0.169
1747851454176044355,-0.145
1747851454183730640,-0.14
1747851454191416925,-0.113
1747851454199103210,-0.073
1747851454206789495,-0.044
1747851454214475836,-0.002
1747851454222161703,0.073
1747851454229847570,0.123
1747851454237533437,0.125
1747851454245219304,0.14200000000000002
1747851454252905171,0.179
1747851454260591038,0.194
1747851454268276905,0.182
1747851454275962772,0.157
1747851454283648639,0.135
1747851454291334506,0.098
1747851454299020373,0.044
1747851454306706240,-0.012
1747851454314392107,-0.066
1747851454322077974,-0.135
1747851454329763841,-0.201
1747851454337449708,-0.23600000000000002
1747851454345135575,-0.246
1747851454352821442,-0.253
1747851454360507309,-0.26
1747851454368193176,-0.251
1747851454375879043,-0.241
1747851454383564910,-0.243
1747851454391250777,-0.23800000000000002
1747851454398936644,-0.219
1747851454406622511,-0.20600000000000002
1747851454414308378,-0.20400000000000001
1747851454421994245,-0.199
1747851454429680112,-0.194
1747851454437365979,-0.187
1747851454445051846,-0.179
1747851454452737713,-0.182
1747851454460423580,-0.184
1747851454468109447,-0.177
1747851454475795314,-0.169
1747851454483481181,-0.17400000000000002
1747851454491167048,-0.17200000000000001
1747851454498852915,-0.164
1747851454506538782,-0.162
1747851454514224649,-0.164
1747851454521910516,-0.167
1747851454529596383,-0.162
1747851454537282250,-0.155
1747851454544968117,-0.152
1747851454552653984,-0.15
1747851454560339851,-0.14200000000000002
1747851454568025718,-0.128
1747851454575711585,-0.113
1747851454583397452,-0.10300000000000001
1747851454591083319,-0.088
1747851454598769186,-0.064
1747851454606455053,-0.051000000000000004
1747851454614140920,-0.068
1747851454621826787,-0.088
1747851454629512654,-0.083
1747851454637198521,-0.073
1747851454644884388,-0.078
1747851454652570255,-0.08600000000000001
1747851454660256122,-0.08600000000000001
1747851454667941989,-0.088
1747851454675627856,-0.10300000000000001
1747851454683313723,-0.15
1747851454690999590,-0.214
1747851454698685457,-0.091
1747851454706371324,0.462
1747851454714057191,1.331
1747851454721743058,2.0060000000000002
1747851454729428925,1.55
1747851454737114792,-0.012
1747851454744800659,-0.772
1747851454752486526,-0.297
1747851454760172393,-0.12
1747851454767858260,-0.315
1747851454775544179,-0.23600000000000002,89,695
1747851454783230464,-0.147,,687
1747851454790916749,-0.196
1747851454798603034,-0.169
1747851454806289319,-0.11
1747851454813975604,-0.108
1747851454821661889,-0.105
1747851454829348174,-0.076
1747851454837034459,-0.054
1747851454844720744,-0.036000000000000004
1747851454852407029,-0.007
1747851454860093314,0.032
1747851454867779599,0.068
1747851454875465884,0.098
1747851454883152169,0.132
1747851454890838454,0.17400000000000002
1747851454898524739,0.211
1747851454906211024,0.224
1747851454913897309,0.216
1747851454921583594,0.199
1747851454929269879,0.169
1747851454936956164,0.132
1747851454944642449,0.088
1747851454952328734,0.041
1747851454960015019,-0.017
1747851454967701304,-0.105
1747851454975387589,-0.194
1747851454983073874,-0.253
1747851454990760159,-0.302
1747851454998446444,-0.342
1747851455006132729,-0.364
1747851455013819014,-0.371
1747851455021505299,-0.364
1747851455029191584,-0.34700000000000003
1747851455036877869,-0.342
1747851455044564154,-0.324
1747851455052250439,-0.27
1747851455059936724,-0.226
1747851455067623009,-0.216
1747851455075309294,-0.216
1747851455082995579,-0.194
1747851455090681864,-0.16
1747851455098368149,-0.14200000000000002
1747851455106054434,-0.14200000000000002
1747851455113740719,-0.17200000000000001
1747851455121427004,-0.194
1747851455129113289,-0.187
1747851455136799574,-0.179
1747851455144485859,-0.192
1747851455152172144,-0.192
1747851455159858429,-0.17400000000000002
1747851455167544714,-0.152
1747851455175230999,-0.14
1747851455182917284,-0.135
1747851455190603569,-0.13
1747851455198289854,-0.125
1747851455205976139,-0.12
1747851455213662424,-0.115
1747851455221348709,-0.11800000000000001
1747851455229034994,-0.11800000000000001
1747851455236721279,-0.10300000000000001
1747851455244407564,-0.073
1747851455252093849,-0.054
1747851455259780134,-0.039
1747851455267466419,-0.017
1747851455275152704,0.0
1747851455282838989,-0.017
1747851455290525274,-0.049
1747851455298211559,-0.049
1747851455305897844,-0.019
1747851455313584129,0.004
1747851455321270414,0.017
1747851455328956699,0.027
1747851455336643044,0.034
1747851455344329051,0.022
1747851455352015058,-0.007
1747851455359701065,-0.07100000000000001
1747851455367387072,-0.068
1747851455375073079,0.292
1747851455382759086,1.088
1747851455390445093,1.964
1747851455398131100,2.102
1747851455405817107,0.861
1747851455413503114,-0.435
1747851455421189121,-0.297
1747851455428875128,0.162
1747851455436561135,0.036000000000000004
1747851455444247142,0.017
1747851455451933149,0.177
1747851455459619156,0.182
1747851455467305163,0.177
1747851455474991170,0.251
1747851455482677177,0.29
1747851455490363184,0.327
1747851455498049191,0.388
1747851455505735198,0.423
1747851455513421205,0.428
1747851455521107212,0.425
1747851455528793219,0.41100000000000003
1747851455536479226,0.403
1747851455544165233,0.438
1747851455551851240,0.504
1747851455559537247,0.558
1747851455567223254,0.5710000000000001
1747851455574909261,0.534
1747851455582595268,0.48
1747851455590281275,0.455
1747851455597967282,0.438
1747851455605653289,0.393
1747851455613339296,0.342
1747851455621025303,0.29
1747851455628711310,0.209
1747851455636397317,0.105
1747851455644083324,0.014
1747851455651769331,-0.059000000000000004
1747851455659455338,-0.123
1747851455667141345,-0.179
1747851455674827352,-0.20600000000000002
1747851455682513359,-0.20400000000000001
1747851455690199366,-0.182
1747851455697885373,-0.155
1747851455705571380,-0.128
1747851455713257387,-0.12
1747851455720943394,-0.137
1747851455728629401,-0.152
1747851455736315408,-0.13
1747851455744001415,-0.105
1747851455751687422,-0.105
1747851455759373429,-0.098
1747851455767059436,-0.073
1747851455774745443,-0.046
1747851455782431450,-0.029
1747851455790117457,-0.007
1747851455797803464,0.017
1747851455805489471,0.019
1747851455813175478,0.007
1747851455820861485,0.012
1747851455828547492,0.027
1747851455836233499,0.027
1747851455843919506,0.024
1747851455851605513,0.024
1747851455859291520,0.034
1747851455866977527,0.076
1747851455874663534,0.147
1747851455882349541,0.216
1747851455890035548,0.297
1747851455897721561,0.384,89,680
1747851455905407707,0.44
1747851455913093853,0.507
1747851455920779999,0.644
1747851455928466145,0.772
1747851455936152291,0.78
1747851455943838437,0.647
1747851455951524583,0.41600000000000004
1747851455959210729,0.268
1747851455966896875,0.278
1747851455974583021,0.209
1747851455982269167,0.096
1747851455989955313,0.132
1747851455997641459,0.091
1747851456005327605,-0.108
1747851456013013751,-0.243
1747851456020699897,-0.315
1747851456028386043,-0.214
1747851456036072189,0.391
1747851456043758335,1.302
1747851456051444481,1.8780000000000001
1747851456059130627,1.304
1747851456066816773,-0.184
1747851456074502919,-0.804
1747851456082189065,-0.41600000000000004
1747851456089875211,-0.396
1747851456097561357,-0.632
1747851456105247503,-0.593
1747851456112933649,-0.556
1747851456120619795,-0.61
1747851456128305941,-0.58
1747851456135992087,-0.546
1747851456143678233,-0.548
1747851456151364379,-0.492
1747851456159050525,-0.41100000000000003
1747851456166736671,-0.34700000000000003
1747851456174422817,-0.231
1747851456182108963,-0.083
1747851456189795109,-0.017
1747851456197481255,0.019
1747851456205167401,0.123
1747851456212853547,0.214
1747851456220539693,0.28500000000000003
1747851456228225839,0.445
1747851456235911985,0.676
1747851456243598131,0.8320000000000001
1747851456251284277,0.844
1747851456258970423,0.795
1747851456266656569,0.78
1747851456274342715,0.763
1747851456282028861,0.681
1747851456289715007,0.5660000000000001
1747851456297401153,0.462
1747851456305087299,0.41100000000000003
1747851456312773445,0.41600000000000004
1747851456320459591,0.418
1747851456328145737,0.376
1747851456335831883,0.315
1747851456343518029,0.273
1747851456351204175,0.243
1747851456358890321,0.221
1747851456366576467,0.214
1747851456374262613,0.201
1747851456381948759,0.162
1747851456389634905,0.12
1747851456397321051,0.096
1747851456405007197,0.08600000000000001
1747851456412693343,0.08600000000000001
1747851456420379489,0.091
1747851456428065635,0.1
1747851456435751781,0.068
1747851456443437927,-0.007
1747851456451124073,-0.059000000000000004
1747851456458810248,-0.073
1747851456466496115,-0.083
1747851456474181982,-0.10300000000000001
1747851456481867849,-0.135
1747851456489553716,-0.164
1747851456497239583,-0.192
1747851456504925450,-0.224
1747851456512611317,-0.258
1747851456520297184,-0.28
1747851456527983051,-0.273
1747851456535668918,-0.248
1747851456543354785,-0.258
1747851456551040652,-0.28800000000000003
1747851456558726519,-0.29
1747851456566412386,-0.263
1747851456574098253,-0.248
1747851456581784120,-0.275
1747851456589469987,-0.31
1747851456597155854,-0.32
1747851456604841721,-0.317
1747851456612527588,-0.322
1747851456620213455,-0.337
1747851456627899322,-0.339
1747851456635585189,-0.329
1747851456643271056,-0.332
1747851456650956923,-0.388
1747851456658642790,-0.47000000000000003
1747851456666328657,-0.361
1747851456674014524,0.17200000000000001
1747851456681700391,0.935
1747851456689386258,1.413
1747851456697072125,0.873
1747851456704757992,-0.541
1747851456712443859,-1.09
1747851456720129726,-0.47500000000000003
1747851456727815593,-0.233
1747851456735501460,-0.40800000000000003
1747851456743187327,-0.327
1747851456750873194,-0.265
1747851456758559061,-0.34400000000000003
1747851456766244928,-0.32
1747851456773930795,-0.265
1747851456781616662,-0.275
1747851456789302529,-0.273
1747851456796988396,-0.251
1747851456804674263,-0.226
1747851456812360130,-0.167
1747851456820045997,-0.07100000000000001
1747851456827731864,-0.012
1747851456835417731,-0.027
1747851456843103598,-0.076
1747851456850789465,-0.093
1747851456858475332,-0.039
1747851456866161199,0.044
1747851456873847066,0.098
1747851456881532933,0.11800000000000001
1747851456889218800,0.12
1747851456896904667,0.113
1747851456904590534,0.088
1747851456912276401,0.039
1747851456919962268,-0.017
1747851456927648135,-0.098
1747851456935334002,-0.179
1747851456943019869,-0.246
1747851456950705736,-0.34900000000000003
1747851456958391603,-0.47500000000000003
1747851456966077470,-0.536
1747851456973763337,-0.5680000000000001
1747851456981449204,-0.612
1747851456989135071,-0.622
1747851456996820938,-0.612
1747851457004506805,-0.605
1747851457012192672,-0.58
1747851457019878591,-0.556,89,655
1747851457027564876,-0.548,,672
1747851457035251161,-0.539
1747851457042937446,-0.534
1747851457050623731,-0.544
1747851457058310016,-0.558
1747851457065996301,-0.561
1747851457073682586,-0.558
1747851457081368871,-0.556
1747851457089055156,-0.546
1747851457096741441,-0.529
1747851457104427726,-0.521
1747851457112114011,-0.514
1747851457119800296,-0.494
1747851457127486581,-0.457
1747851457135172866,-0.425
1747851457142859151,-0.396
1747851457150545436,-0.356
1747851457158231721,-0.31
1747851457165918006,-0.256
1747851457173604291,-0.184
1747851457181290576,-0.115
1747851457188976861,-0.073
1747851457196663146,-0.039
1747851457204349431,0.022
1747851457212035716,0.096
1747851457219722001,0.145
1747851457227408286,0.15
1747851457235094571,0.13
1747851457242780856,0.145
1747851457250467141,0.199
1747851457258153426,0.243
1747851457265839711,0.273
1747851457273525996,0.3
1747851457281212281,0.32
1747851457288898566,0.34700000000000003
1747851457296584851,0.381
1747851457304271136,0.391
1747851457311957421,0.41100000000000003
1747851457319643706,0.632
1747851457327329991,1.245
1747851457335016276,2.104
1747851457342702561,2.661
1747851457350388846,2.0180000000000002
1747851457358075131,0.494
1747851457365761416,0.0
1747851457373447701,0.5760000000000001
1747851457381133986,0.672
1747851457388820271,0.438
1747851457396506556,0.499
1747851457404192841,0.541
1747851457411879126,0.457
1747851457419565411,0.47000000000000003
1747851457427251696,0.504
1747851457434937981,0.487
1747851457442624266,0.494
1747851457450310551,0.534
1747851457457996836,0.5660000000000001
1747851457465683121,0.59
1747851457473369406,0.62
1747851457481055691,0.657
1747851457488741976,0.6960000000000001
1747851457496428261,0.728
1747851457504114546,0.758
1747851457511800831,0.787
1747851457519487116,0.809
1747851457527173401,0.8220000000000001
1747851457534859686,0.8140000000000001
1747851457542545971,0.787
1747851457550232256,0.75
1747851457557918541,0.706
1747851457565604826,0.659
1747851457573291111,0.598
1747851457580977452,0.524
1747851457588663319,0.44
1747851457596349186,0.361
1747851457604035053,0.292
1747851457611720920,0.23800000000000002
1747851457619406787,0.201
1747851457627092654,0.177
1747851457634778521,0.164
1747851457642464388,0.155
1747851457650150255,0.152
1747851457657836122,0.155
1747851457665521989,0.16
1747851457673207856,0.155
1747851457680893723,0.155
1747851457688579590,0.157
1747851457696265457,0.152
1747851457703951324,0.147
1747851457711637191,0.14200000000000002
1747851457719323058,0.137
1747851457727008925,0.13
1747851457734694792,0.128
1747851457742380659,0.11800000000000001
1747851457750066526,0.105
1747851457757752393,0.098
1747851457765438260,0.088
1747851457773124127,0.076
1747851457780809994,0.012
1747851457788495861,-0.224
1747851457796181728,-0.5760000000000001
1747851457803867595,-0.8290000000000001
1747851457811553462,-0.969
1747851457819239329,-1.085
1747851457826925196,-1.154
1747851457834611063,-1.169
1747851457842296930,-1.179
1747851457849982797,-1.196
1747851457857668664,-1.211
1747851457865354531,-1.238
1747851457873040398,-1.282
1747851457880726265,-1.321
1747851457888412132,-1.349
1747851457896097999,-1.344
1747851457903783866,-1.324
1747851457911469733,-1.309
1747851457919155600,-1.292
1747851457926841467,-1.272
1747851457934527334,-1.245
1747851457942213201,-1.23
1747851457949899068,-1.238
1747851457957584935,-1.27
1747851457965270802,-1.198
1747851457972956669,-0.74
1747851457980642536,0.135
1747851457988328403,1.0210000000000001
1747851457996014270,1.063
1747851458003700137,-0.228
1747851458011386004,-1.339
1747851458019071871,-0.974
1747851458026757738,-0.482
1747851458034443605,-0.608
1747851458042129472,-0.524
1747851458049815339,-0.28
1747851458057501206,-0.305
1747851458065187073,-0.371
1747851458072872940,-0.305
1747851458080558807,-0.27
1747851458088244674,-0.329
1747851458095930541,-0.356
1747851458103616408,-0.322
1747851458111302275,-0.3
1747851458118988142,-0.26
1747851458126674009,-0.192
1747851458134359876,-0.179
1747851458142045795,-0.214,89,657
1747851458149731662,-0.211
1747851458157417529,-0.199
1747851458165103396,-0.221
1747851458172789263,-0.256
1747851458180475130,-0.28500000000000003
1747851458188160997,-0.32
1747851458195846864,-0.352
1747851458203532731,-0.379
1747851458211218598,-0.40800000000000003
1747851458218904465,-0.46
1747851458226590332,-0.531
1747851458234276199,-0.608
1747851458241962066,-0.676
1747851458249647933,-0.74
1747851458257333800,-0.785
1747851458265019667,-0.804
1747851458272705534,-0.8140000000000001
1747851458280391401,-0.8170000000000001
1747851458288077268,-0.802
1747851458295763135,-0.78
1747851458303449002,-0.765
1747851458311134869,-0.753
1747851458318820736,-0.728
1747851458326506603,-0.6990000000000001
1747851458334192470,-0.679
1747851458341878337,-0.657
1747851458349564204,-0.642
1747851458357250071,-0.637
1747851458364935938,-0.627
1747851458372621805,-0.61
1747851458380307672,-0.598
1747851458387993539,-0.59
1747851458395679406,-0.58
1747851458403365273,-0.5660000000000001
1747851458411051140,-0.553
1747851458418737007,-0.541
1747851458426422874,-0.526
1747851458434108741,-0.519
1747851458441794608,-0.526
1747851458449480475,-0.512
1747851458457166342,-0.487
1747851458464852209,-0.484
1747851458472538076,-0.484
1747851458480223943,-0.465
1747851458487909810,-0.445
1747851458495595677,-0.423
1747851458503281544,-0.401
1747851458510967411,-0.376
1747851458518653278,-0.356
1747851458526339145,-0.361
1747851458534025012,-0.386
1747851458541710879,-0.391
1747851458549396746,-0.364
1747851458557082613,-0.334
1747851458564768480,-0.315
1747851458572454347,-0.297
1747851458580140214,-0.27
1747851458587826081,-0.265
1747851458595511948,-0.295
1747851458603197815,-0.342
1747851458610883682,-0.391
1747851458618569549,-0.246
1747851458626255416,0.354
1747851458633941283,1.211
1747851458641627150,1.696
1747851458649313017,1.036
1747851458656998884,-0.425
1747851458664684751,-0.873
1747851458672370618,-0.295
1747851458680056485,-0.192
1747851458687742352,-0.374
1747851458695428219,-0.251
1747851458703114142,-0.157,90,638
1747851458710800427,-0.152,,653
1747851458718486712,0.0
1747851458726172997,0.167
1747851458733859282,0.231
1747851458741545567,0.312
1747851458749231852,0.445
1747851458756918137,0.534
1747851458764604422,0.59
1747851458772290707,0.672
1747851458779976992,0.753
1747851458787663277,0.807
1747851458795349562,0.864
1747851458803035847,0.9500000000000001
1747851458810722132,1.046
1747851458818408417,1.174
1747851458826094702,1.289
1747851458833780987,1.321
1747851458841467272,1.319
1747851458849153557,1.321
1747851458856839842,1.285
1747851458864526127,1.221
1747851458872212412,1.169
1747851458879898697,1.107
1747851458887584982,1.0110000000000001
1747851458895271267,0.92
1747851458902957552,0.849
1747851458910643837,0.797
1747851458918330122,0.76
1747851458926016407,0.7010000000000001
1747851458933702692,0.583
1747851458941388977,0.356
1747851458949075262,0.076
1747851458956761547,-0.014
1747851458964447832,0.11800000000000001
1747851458972134117,0.123
1747851458979820402,-0.061
1747851458987506687,-0.16
1747851458995192972,-0.164
1747851459002879257,-0.214
1747851459010565542,-0.243
1747851459018251827,-0.187
1747851459025938112,-0.228
1747851459033624397,-0.391
1747851459041310682,-0.452
1747851459048996967,-0.504
1747851459056683252,-0.664
1747851459064369537,-0.753
1747851459072055822,-0.758
1747851459079742107,-0.8
1747851459087428392,-0.839
1747851459095114677,-0.834
1747851459102800962,-0.8320000000000001
1747851459110487247,-0.834
1747851459118173532,-0.836
1747851459125859817,-0.841
1747851459133546102,-0.8240000000000001
1747851459141232387,-0.8
1747851459148918672,-0.78
1747851459156604957,-0.755
1747851459164291242,-0.738
1747851459171977527,-0.753
1747851459179663812,-0.777
1747851459187350097,-0.765
1747851459195036382,-0.738
1747851459202722667,-0.726
1747851459210408952,-0.708
1747851459218095237,-0.681
1747851459225781522,-0.664
1747851459233467807,-0.659
1747851459241154092,-0.676
1747851459248840377,-0.716
1747851459256526662,-0.736
1747851459264213003,-0.494
1747851459271898870,0.184
1747851459279584737,0.9500000000000001
1747851459287270604,1.203
1747851459294956471,0.386
1747851459302642338,-0.901
1747851459310328205,-1.093
1747851459318014072,-0.541
1747851459325699939,-0.489
1747851459333385806,-0.583
1747851459341071673,-0.428
1747851459348757540,-0.356
1747851459356443407,-0.376
1747851459364129274,-0.312
1747851459371815141,-0.251
1747851459379501008,-0.241
1747851459387186875,-0.214
1747851459394872742,-0.17400000000000002
1747851459402558609,-0.152
1747851459410244476,-0.135
1747851459417930343,-0.11
1747851459425616210,-0.08600000000000001
1747851459433302077,-0.046
1747851459440987944,0.012
1747851459448673811,0.066
1747851459456359678,0.098
1747851459464045545,0.105
1747851459471731412,0.093
1747851459479417279,0.083
1747851459487103146,0.076
1747851459494789013,0.036000000000000004
1747851459502474880,-0.017
1747851459510160747,-0.061
1747851459517846614,-0.12
1747851459525532481,-0.209
1747851459533218348,-0.302
1747851459540904215,-0.369
1747851459548590082,-0.41600000000000004
1747851459556275949,-0.455
1747851459563961816,-0.47500000000000003
1747851459571647683,-0.47700000000000004
1747851459579333550,-0.48
1747851459587019417,-0.487
1747851459594705284,-0.489
1747851459602391151,-0.484
1747851459610077018,-0.47700000000000004
1747851459617762885,-0.47500000000000003
1747851459625448752,-0.47000000000000003
1747851459633134619,-0.455
1747851459640820486,-0.443
1747851459648506353,-0.438
1747851459656192220,-0.43
1747851459663878087,-0.418
1747851459671563954,-0.41300000000000003
1747851459679249821,-0.41100000000000003
1747851459686935688,-0.40800000000000003
1747851459694621555,-0.403
1747851459702307422,-0.398
1747851459709993289,-0.391
1747851459717679156,-0.388
1747851459725365023,-0.386
1747851459733050890,-0.379
1747851459740736757,-0.366
1747851459748422624,-0.361
1747851459756108491,-0.359
1747851459763794358,-0.356
1747851459771480225,-0.352
1747851459779166092,-0.34400000000000003
1747851459786851959,-0.324
1747851459794537826,-0.307
1747851459802223693,-0.297
1747851459809909560,-0.28
1747851459817595427,-0.265
1747851459825281346,-0.28800000000000003,90,649
1747851459832967213,-0.322
1747851459840653080,-0.324
1747851459848338947,-0.305
1747851459856024814,-0.297
1747851459863710681,-0.292
1747851459871396548,-0.28500000000000003
1747851459879082415,-0.28300000000000003
1747851459886768282,-0.28500000000000003
1747851459894454149,-0.3
1747851459902140016,-0.354
1747851459909825883,-0.34900000000000003
1747851459917511750,-0.014
1747851459925197617,0.6910000000000001
1747851459932883484,1.405
1747851459940569351,1.472
1747851459948255218,0.34900000000000003
1747851459955941085,-0.844
1747851459963626952,-0.681
1747851459971312819,-0.187
1747851459978998686,-0.339
1747851459986684553,-0.42
1747851459994370420,-0.268
1747851460002056287,-0.27
1747851460009742154,-0.307
1747851460017428021,-0.246
1747851460025113888,-0.214
1747851460032799755,-0.216
1747851460040485622,-0.187
1747851460048171489,-0.157
1747851460055857356,-0.14200000000000002
1747851460063543223,-0.11800000000000001
1747851460071229090,-0.08600000000000001
1747851460078914957,-0.061
1747851460086600824,-0.029
1747851460094286691,0.004
1747851460101972558,0.041
1747851460109658425,0.073
1747851460117344292,0.098
1747851460125030159,0.11
1747851460132716026,0.108
1747851460140401893,0.091
1747851460148087760,0.066
1747851460155773627,0.039
1747851460163459494,0.0
1747851460171145361,-0.051000000000000004
1747851460178831228,-0.113
1747851460186517095,-0.179
1747851460194202962,-0.233
1747851460201888829,-0.278
1747851460209574696,-0.31
1747851460217260563,-0.329
1747851460224946430,-0.332
1747851460232632297,-0.327
1747851460240318164,-0.317
1747851460248004031,-0.305
1747851460255689898,-0.292
1747851460263375765,-0.28
1747851460271061632,-0.27
1747851460278747499,-0.26
1747851460286433366,-0.256
1747851460294119233,-0.253
1747851460301805100,-0.248
1747851460309490967,-0.241
1747851460317176834,-0.23800000000000002
1747851460324862701,-0.23800000000000002
1747851460332548568,-0.23800000000000002
1747851460340234435,-0.233
1747851460347920302,-0.231
1747851460355606169,-0.228
1747851460363292036,-0.226
1747851460370977903,-0.226
1747851460378663770,-0.224
1747851460386349689,-0.219
1747851460394035974,-0.216
1747851460401722259,-0.214
1747851460409408544,-0.214
1747851460417094829,-0.211
1747851460424781114,-0.20400000000000001
1747851460432467399,-0.20400000000000001
1747851460440153684,-0.20600000000000002
1747851460447839969,-0.209
1747851460455526254,-0.201
1747851460463212539,-0.189
1747851460470898824,-0.179
1747851460478585109,-0.17200000000000001
1747851460486271394,-0.16
1747851460493957679,-0.14200000000000002
1747851460501643964,-0.14200000000000002
1747851460509330249,-0.17200000000000001
1747851460517016534,-0.201
1747851460524702819,-0.199
1747851460532389104,-0.184
1747851460540075389,-0.184
1747851460547761674,-0.182
1747851460555447959,-0.17400000000000002
1747851460563134244,-0.17200000000000001
1747851460570820529,-0.184
1747851460578506814,-0.216
1747851460586193099,-0.28500000000000003
1747851460593879384,-0.246
1747851460601565669,0.184
1747851460609251954,0.974
1747851460616938239,1.669
1747851460624624524,1.5010000000000001
1747851460632310809,0.157
1747851460639997094,-0.849
1747851460647683379,-0.48
1747851460655369664,-0.108
1747851460663055949,-0.322
1747851460670742234,-0.332
1747851460678428519,-0.189
1747851460686114804,-0.221
1747851460693801089,-0.23800000000000002
1747851460701487374,-0.17400000000000002
1747851460709173659,-0.157
1747851460716859944,-0.155
1747851460724546229,-0.125
1747851460732232514,-0.1
1747851460739918799,-0.088
1747851460747605084,-0.061
1747851460755291369,-0.032
1747851460762977654,-0.007
1747851460770663939,0.022
1747851460778350224,0.054
1747851460786036509,0.08600000000000001
1747851460793722794,0.115
1747851460801409079,0.135
1747851460809095364,0.14200000000000002
1747851460816781649,0.137
1747851460824467934,0.11800000000000001
1747851460832154219,0.091
1747851460839840504,0.061
1747851460847526789,0.024
1747851460855213074,-0.017
1747851460862899359,-0.076
1747851460870585644,-0.14
1747851460878271929,-0.194
1747851460885958214,-0.23600000000000002
1747851460893644499,-0.263
1747851460901330784,-0.28
1747851460909017069,-0.28800000000000003
1747851460916703354,-0.28500000000000003
1747851460924389639,-0.275
1747851460932075924,-0.263
1747851460939762209,-0.253
1747851460947448550,-0.246,91,649
1747851460955134417,-0.23600000000000002,,645
1747851460962820284,-0.228
1747851460970506151,-0.224
1747851460978192018,-0.221
1747851460985877885,-0.219
1747851460993563752,-0.211
1747851461001249619,-0.209
1747851461008935486,-0.211
1747851461016621353,-0.209
1747851461024307220,-0.20600000000000002
1747851461031993087,-0.20400000000000001
1747851461039678954,-0.20600000000000002
1747851461047364821,-0.20600000000000002
1747851461055050688,-0.20400000000000001
1747851461062736555,-0.201
1747851461070422422,-0.199
1747851461078108289,-0.196
1747851461085794156,-0.194
1747851461093480023,-0.189
1747851461101165890,-0.187
1747851461108851757,-0.182
1747851461116537624,-0.179
1747851461124223491,-0.179
1747851461131909358,-0.184
1747851461139595225,-0.179
1747851461147281092,-0.169
1747851461154966959,-0.157
1747851461162652826,-0.15
1747851461170338693,-0.14
1747851461178024560,-0.123
1747851461185710427,-0.11800000000000001
1747851461193396294,-0.145
1747851461201082161,-0.177
1747851461208768028,-0.17400000000000002
1747851461216453895,-0.162
1747851461224139762,-0.16
1747851461231825629,-0.157
1747851461239511496,-0.152
1747851461247197363,-0.152
1747851461254883230,-0.16
1747851461262569097,-0.194
1747851461270254964,-0.263
1747851461277940831,-0.219
1747851461285626698,0.216
1747851461293312565,1.0110000000000001
1747851461300998432,1.71
1747851461308684299,1.5130000000000001
1747851461316370166,0.135
1747851461324056033,-0.839
1747851461331741900,-0.445
1747851461339427767,-0.1
1747851461347113634,-0.315
1747851461354799501,-0.307
1747851461362485368,-0.17400000000000002
1747851461370171235,-0.214
1747851461377857102,-0.224
1747851461385542969,-0.157
1747851461393228836,-0.147
1747851461400914703,-0.147
1747851461408600570,-0.113
1747851461416286437,-0.088
1747851461423972304,-0.073
1747851461431658171,-0.049
1747851461439344038,-0.022
1747851461447029905,0.002
1747851461454715772,0.032
1747851461462401639,0.064
1747851461470087506,0.093
1747851461477773373,0.11800000000000001
1747851461485459240,0.137
1747851461493145107,0.14200000000000002
1747851461500830974,0.13
1747851461508516893,0.11
1747851461516202830,0.08600000000000001
1747851461523888767,0.056
1747851461531574704,0.019
1747851461539260641,-0.027
1747851461546946578,-0.078
1747851461554632515,-0.135
1747851461562318452,-0.187
1747851461570004389,-0.228
1747851461577690326,-0.258
1747851461585376263,-0.278
1747851461593062200,-0.28500000000000003
1747851461600748137,-0.28
1747851461608434074,-0.273
1747851461616120011,-0.263
1747851461623805948,-0.253
1747851461631491885,-0.241
1747851461639177822,-0.231
1747851461646863759,-0.226
1747851461654549696,-0.216
1747851461662235633,-0.211
1747851461669921570,-0.209
1747851461677607507,-0.20600000000000002
1747851461685293444,-0.20400000000000001
1747851461692979381,-0.201
1747851461700665318,-0.201
1747851461708351255,-0.201
1747851461716037192,-0.199
1747851461723723129,-0.199
1747851461731409066,-0.194
1747851461739095003,-0.194
1747851461746780940,-0.196
1747851461754466877,-0.192
1747851461762152814,-0.184
1747851461769838751,-0.184
1747851461777524688,-0.184
1747851461785210625,-0.177
1747851461792896562,-0.17200000000000001
1747851461800582499,-0.17400000000000002
1747851461808268436,-0.182
1747851461815954373,-0.17400000000000002
1747851461823640310,-0.162
1747851461831326247,-0.15
1747851461839012184,-0.137
1747851461846698121,-0.13
1747851461854384058,-0.115
1747851461862069995,-0.115
1747851461869755932,-0.147
1747851461877441869,-0.17400000000000002
1747851461885127806,-0.164
1747851461892813743,-0.155
1747851461900499680,-0.155
1747851461908185617,-0.147
1747851461915871554,-0.14
1747851461923557491,-0.145
1747851461931243428,-0.157
1747851461938929365,-0.184
1747851461946615302,-0.243
1747851461954301239,-0.187
1747851461961987176,0.28
1747851461969673113,1.083
1747851461977359050,1.708
1747851461985044987,1.358
1747851461992730924,-0.049
1747851462000416861,-0.841
1747851462008102798,-0.364
1747851462015788735,-0.10300000000000001
1747851462023474672,-0.32
1747851462031160609,-0.27
1747851462038846546,-0.15
1747851462046532483,-0.201
1747851462054218420,-0.201
1747851462061904357,-0.137
1747851462069590327,-0.13,91,651
1747851462077276543,-0.12
1747851462084962759,-0.088
1747851462092648975,-0.068
1747851462100335191,-0.056
1747851462108021407,-0.032
1747851462115707623,-0.002
1747851462123393839,0.029
1747851462131080055,0.059000000000000004
1747851462138766271,0.091
1747851462146452487,0.125
1747851462154138703,0.152
1747851462161824919,0.162
1747851462169511135,0.167
1747851462177197351,0.16
1747851462184883567,0.13
1747851462192569783,0.1
1747851462200255999,0.081
1747851462207942215,0.046
1747851462215628431,-0.009000000000000001
1747851462223314647,-0.068
1747851462231000863,-0.123
1747851462238687079,-0.179
1747851462246373295,-0.224
1747851462254059511,-0.246
1747851462261745727,-0.263
1747851462269431943,-0.275
1747851462277118159,-0.268
1747851462284804375,-0.258
1747851462292490591,-0.248
1747851462300176807,-0.231
1747851462307863023,-0.221
1747851462315549239,-0.226
1747851462323235455,-0.214
1747851462330921671,-0.196
1747851462338607887,-0.199
1747851462346294103,-0.194
1747851462353980319,-0.189
1747851462361666535,-0.189
1747851462369352751,-0.189
1747851462377038967,-0.182
1747851462384725183,-0.184
1747851462392411399,-0.189
1747851462400097615,-0.189
1747851462407783831,-0.187
1747851462415470047,-0.179
1747851462423156263,-0.169
1747851462430842479,-0.17400000000000002
1747851462438528695,-0.177
1747851462446214911,-0.177
1747851462453901127,-0.182
1747851462461587343,-0.17400000000000002
1747851462469273559,-0.16
1747851462476959775,-0.16
1747851462484645991,-0.152
1747851462492332207,-0.125
1747851462500018423,-0.113
1747851462507704639,-0.123
1747851462515390855,-0.128
1747851462523077071,-0.14200000000000002
1747851462530763287,-0.164
1747851462538449503,-0.169
1747851462546135719,-0.16
1747851462553821935,-0.155
1747851462561508151,-0.155
1747851462569194367,-0.14
1747851462576880583,-0.137
1747851462584566799,-0.157
1747851462592253015,-0.201
1747851462599939231,-0.253
1747851462607625447,-0.073
1747851462615311663,0.553
1747851462622997879,1.309
1747851462630684101,1.59,91,683
1747851462638369968,0.8290000000000001,,684
1747851462646055835,-0.465
1747851462653741702,-0.726
1747851462661427569,-0.20600000000000002
1747851462669113436,-0.182
1747851462676799303,-0.322
1747851462684485170,-0.192
1747851462692171037,-0.15
1747851462699856904,-0.201
1747851462707542771,-0.152
1747851462715228638,-0.105
1747851462722914505,-0.115
1747851462730600372,-0.093
1747851462738286239,-0.056
1747851462745972106,-0.041
1747851462753657973,-0.027
1747851462761343840,0.0
1747851462769029707,0.032
1747851462776715574,0.066
1747851462784401441,0.096
1747851462792087308,0.125
1747851462799773175,0.155
1747851462807459042,0.17200000000000001
1747851462815144909,0.182
1747851462822830776,0.187
1747851462830516643,0.169
1747851462838202510,0.13
1747851462845888377,0.096
1747851462853574244,0.064
1747851462861260111,0.017
1747851462868945978,-0.036000000000000004
1747851462876631845,-0.098
1747851462884317712,-0.164
1747851462892003579,-0.211
1747851462899689446,-0.241
1747851462907375313,-0.268
1747851462915061180,-0.28
1747851462922747047,-0.278
1747851462930432914,-0.27
1747851462938118781,-0.258
1747851462945804648,-0.246
1747851462953490515,-0.243
1747851462961176382,-0.23800000000000002
1747851462968862249,-0.233
1747851462976548116,-0.224
1747851462984233983,-0.214
1747851462991919850,-0.20400000000000001
1747851462999605717,-0.201
1747851463007291584,-0.196
1747851463014977451,-0.194
1747851463022663318,-0.196
1747851463030349185,-0.196
1747851463038035052,-0.196
1747851463045720919,-0.199
1747851463053406786,-0.196
1747851463061092653,-0.194
1747851463068778520,-0.201
1747851463076464387,-0.20400000000000001
1747851463084150254,-0.192
1747851463091836121,-0.192
1747851463099521988,-0.199
1747851463107207855,-0.194
1747851463114893722,-0.184
1747851463122579589,-0.177
1747851463130265456,-0.169
1747851463137951323,-0.157
1747851463145637190,-0.14200000000000002
1747851463153323057,-0.137
1747851463161008924,-0.16
1747851463168694791,-0.189
1747851463176380658,-0.196
1747851463184066525,-0.189
1747851463191752444,-0.184
1747851463199438729,-0.179
1747851463207125014,-0.17200000000000001
1747851463214811299,-0.17200000000000001
1747851463222497584,-0.182
1747851463230183869,-0.201
1747851463237870154,-0.251
1747851463245556439,-0.233
1747851463253242724,0.135
1747851463260929009,0.846
1747851463268615294,1.454
1747851463276301579,1.368
1747851463283987864,0.246
1747851463291674149,-0.795
1747851463299360434,-0.5630000000000001
1747851463307046719,-0.128
1747851463314733004,-0.28300000000000003
1747851463322419289,-0.324
1747851463330105574,-0.187
1747851463337791859,-0.20600000000000002
1747851463345478144,-0.233
1747851463353164429,-0.17200000000000001
1747851463360850714,-0.152
1747851463368536999,-0.155
1747851463376223284,-0.125
1747851463383909569,-0.1
1747851463391595854,-0.088
1747851463399282139,-0.064
1747851463406968424,-0.036000000000000004
1747851463414654709,-0.017
1747851463422340994,0.009000000000000001
1747851463430027279,0.039
1747851463437713564,0.066
1747851463445399849,0.088
1747851463453086134,0.105
1747851463460772419,0.108
1747851463468458704,0.098
1747851463476144989,0.076
1747851463483831274,0.054
1747851463491517559,0.024
1747851463499203844,-0.009000000000000001
1747851463506890129,-0.054
1747851463514576414,-0.105
1747851463522262699,-0.16
1747851463529948984,-0.20400000000000001
1747851463537635269,-0.23800000000000002
1747851463545321554,-0.268
1747851463553007839,-0.28500000000000003
1747851463560694124,-0.29
1747851463568380409,-0.28300000000000003
1747851463576066694,-0.273
1747851463583752979,-0.263
1747851463591439264,-0.253
1747851463599125549,-0.243
1747851463606811834,-0.23600000000000002
1747851463614498119,-0.228
1747851463622184404,-0.224
1747851463629870689,-0.216
1747851463637556974,-0.214
1747851463645243259,-0.211
1747851463652929544,-0.209
1747851463660615829,-0.209
1747851463668302114,-0.20600000000000002
1747851463675988399,-0.20400000000000001
1747851463683674684,-0.20400000000000001
1747851463691360969,-0.20400000000000001
1747851463699047254,-0.201
1747851463706733539,-0.199
1747851463714419824,-0.199
1747851463722106109,-0.196
1747851463729792394,-0.192
1747851463737478679,-0.189
1747851463745164964,-0.196
1747851463752851305,-0.199,91,676
1747851463760537172,-0.189
1747851463768223039,-0.177
1747851463775908906,-0.169
1747851463783594773,-0.16
1747851463791280640,-0.15
1747851463798966507,-0.137
1747851463806652374,-0.14
1747851463814338241,-0.17200000000000001
1747851463822024108,-0.196
1747851463829709975,-0.192
1747851463837395842,-0.177
1747851463845081709,-0.177
1747851463852767576,-0.17200000000000001
1747851463860453443,-0.164
1747851463868139310,-0.169
1747851463875825177,-0.184
1747851463883511044,-0.228
1747851463891196911,-0.265
1747851463898882778,-0.056
1747851463906568645,0.5710000000000001
1747851463914254512,1.331
1747851463921940379,1.627
1747851463929626246,0.785
1747851463937312113,-0.5660000000000001
1747851463944997980,-0.733
1747851463952683847,-0.164
1747851463960369714,-0.187
1747851463968055581,-0.354
1747851463975741448,-0.226
1747851463983427315,-0.179
1747851463991113182,-0.228
1747851463998799049,-0.187
1747851464006484916,-0.14200000000000002
1747851464014170783,-0.147
1747851464021856650,-0.128
1747851464029542517,-0.098
1747851464037228384,-0.083
1747851464044914251,-0.066
1747851464052600118,-0.039
1747851464060285985,-0.014
1747851464067971852,0.009000000000000001
1747851464075657719,0.036000000000000004
1747851464083343586,0.064
1747851464091029453,0.091
1747851464098715320,0.115
1747851464106401187,0.123
1747851464114087054,0.115
1747851464121772921,0.1
1747851464129458788,0.076
1747851464137144655,0.046
1747851464144830522,0.012
1747851464152516389,-0.024
1747851464160202256,-0.076
1747851464167888123,-0.132
1747851464175573990,-0.182
1747851464183259857,-0.224
1747851464190945724,-0.256
1747851464198631591,-0.278
1747851464206317458,-0.28800000000000003
1747851464214003325,-0.28500000000000003
1747851464221689192,-0.278
1747851464229375059,-0.27
1747851464237060926,-0.26
1747851464244746793,-0.248
1747851464252432660,-0.23600000000000002
1747851464260118527,-0.231
1747851464267804394,-0.224
1747851464275490261,-0.219
1747851464283176128,-0.214
1747851464290861995,-0.209
1747851464298547862,-0.209
1747851464306233729,-0.209
1747851464313919648,-0.20600000000000002
1747851464321605515,-0.20400000000000001
1747851464329291382,-0.20400000000000001
1747851464336977249,-0.20400000000000001
1747851464344663116,-0.201
1747851464352348983,-0.199
1747851464360034850,-0.199
1747851464367720717,-0.194
1747851464375406584,-0.192
1747851464383092451,-0.192
1747851464390778318,-0.196
1747851464398464185,-0.196
1747851464406150052,-0.189
1747851464413835919,-0.177
1747851464421521786,-0.164
1747851464429207653,-0.152
1747851464436893520,-0.14200000000000002
1747851464444579387,-0.13
1747851464452265254,-0.14
1747851464459951121,-0.177
1747851464467636988,-0.194
1747851464475322855,-0.182
1747851464483008722,-0.17400000000000002
1747851464490694589,-0.169
1747851464498380456,-0.164
1747851464506066323,-0.162
1747851464513752190,-0.169
1747851464521438057,-0.194
1747851464529123924,-0.246
1747851464536809791,-0.246
1747851464544495658,0.078
1747851464552181525,0.807
1747851464559867392,1.56
1747851464567553259,1.617
1747851464575239126,0.445
1747851464582924993,-0.77
1747851464590610860,-0.6
1747851464598296727,-0.11
1747851464605982594,-0.268
1747851464613668461,-0.342
1747851464621354328,-0.192
1747851464629040195,-0.201
1747851464636726062,-0.23600000000000002
1747851464644411929,-0.17400000000000002
1747851464652097796,-0.147
1747851464659783663,-0.15
1747851464667469530,-0.123
1747851464675155397,-0.096
1747851464682841264,-0.083
1747851464690527131,-0.059000000000000004
1747851464698212998,-0.029
1747851464705898865,-0.004
1747851464713584732,0.022
1747851464721270599,0.049
1747851464728956466,0.078
1747851464736642333,0.10300000000000001
1747851464744328200,0.11800000000000001
1747851464752014067,0.12
1747851464759699934,0.113
1747851464767385801,0.093
1747851464775071668,0.068
1747851464782757535,0.036000000000000004
1747851464790443402,0.002
1747851464798129269,-0.036000000000000004
1747851464805815136,-0.088
1747851464813501003,-0.14200000000000002
1747851464821186870,-0.189
1747851464828872737,-0.226
1747851464836558604,-0.253
1747851464844244471,-0.273
1747851464851930338,-0.28
1747851464859616205,-0.275
1747851464867302072,-0.268
1747851464874987991,-0.258,90,650
1747851464882674276,-0.246,,643
1747851464890360561,-0.23800000000000002
1747851464898046846,-0.231
1747851464905733131,-0.221
1747851464913419416,-0.214
1747851464921105701,-0.211
1747851464928791986,-0.20600000000000002
1747851464936478271,-0.20400000000000001
1747851464944164556,-0.201
1747851464951850841,-0.201
1747851464959537126,-0.201
1747851464967223411,-0.199
1747851464974909696,-0.196
1747851464982595981,-0.194
1747851464990282266,-0.194
1747851464997968551,-0.194
1747851465005654836,-0.192
1747851465013341121,-0.187
1747851465021027406,-0.184
1747851465028713691,-0.192
1747851465036399976,-0.194
1747851465044086261,-0.187
1747851465051772546,-0.177
1747851465059458831,-0.164
1747851465067145116,-0.152
1747851465074831401,-0.14
1747851465082517686,-0.128
1747851465090203971,-0.125
1747851465097890256,-0.157
1747851465105576541,-0.187
1747851465113262826,-0.179
1747851465120949111,-0.169
1747851465128635396,-0.17200000000000001
1747851465136321681,-0.167
1747851465144007966,-0.155
1747851465151694251,-0.157
1747851465159380536,-0.177
1747851465167066821,-0.221
1747851465174753106,-0.263
1747851465182439391,-0.098
1747851465190125676,0.497
1747851465197811961,1.317
1747851465205498246,1.774
1747851465213184531,1.068
1747851465220870816,-0.406
1747851465228557101,-0.8140000000000001
1747851465236243386,-0.243
1747851465243929671,-0.17200000000000001
1747851465251615956,-0.359
1747851465259302241,-0.248
1747851465266988526,-0.184
1747851465274674811,-0.23800000000000002
1747851465282361096,-0.201
1747851465290047381,-0.152
1747851465297733666,-0.155
1747851465305419951,-0.137
1747851465313106236,-0.10300000000000001
1747851465320792521,-0.08600000000000001
1747851465328478806,-0.07100000000000001
1747851465336165091,-0.041
1747851465343851376,-0.014
1747851465351537661,0.009000000000000001
1747851465359223946,0.036000000000000004
1747851465366910231,0.066
1747851465374596516,0.091
1747851465382282801,0.11
1747851465389969086,0.12
1747851465397655371,0.11800000000000001
1747851465405341656,0.1
1747851465413027941,0.076
1747851465420714226,0.051000000000000004
1747851465428400511,0.019
1747851465436086856,-0.019
1747851465443772723,-0.061
1747851465451458590,-0.11
1747851465459144457,-0.16
1747851465466830324,-0.201
1747851465474516191,-0.23600000000000002
1747851465482202058,-0.258
1747851465489887925,-0.27
1747851465497573792,-0.273
1747851465505259659,-0.265
1747851465512945526,-0.256
1747851465520631393,-0.243
1747851465528317260,-0.23600000000000002
1747851465536003127,-0.226
1747851465543688994,-0.219
1747851465551374861,-0.214
1747851465559060728,-0.20600000000000002
1747851465566746595,-0.201
1747851465574432462,-0.199
1747851465582118329,-0.199
1747851465589804196,-0.196
1747851465597490063,-0.194
1747851465605175930,-0.194
1747851465612861797,-0.192
1747851465620547664,-0.189
1747851465628233531,-0.189
1747851465635919398,-0.189
1747851465643605265,-0.187
1747851465651291132,-0.184
1747851465658976999,-0.182
1747851465666662866,-0.184
1747851465674348733,-0.189
1747851465682034600,-0.187
1747851465689720467,-0.17400000000000002
1747851465697406334,-0.16
1747851465705092201,-0.147
1747851465712778068,-0.137
1747851465720463935,-0.125
1747851465728149802,-0.125
1747851465735835669,-0.155
1747851465743521536,-0.182
1747851465751207403,-0.179
1747851465758893270,-0.164
1747851465766579137,-0.162
1747851465774265004,-0.16
1747851465781950871,-0.155
1747851465789636738,-0.157
1747851465797322605,-0.17400000000000002
1747851465805008472,-0.224
1747851465812694339,-0.258
1747851465820380206,-0.044
1747851465828066073,0.598
1747851465835751940,1.41
1747851465843437807,1.7650000000000001
1747851465851123674,0.893
1747851465858809541,-0.551
1747851465866495408,-0.765
1747851465874181275,-0.189
1747851465881867142,-0.201
1747851465889553009,-0.356
1747851465897238876,-0.221
1747851465904924743,-0.179
1747851465912610610,-0.231
1747851465920296477,-0.184
1747851465927982344,-0.14
1747851465935668211,-0.14
1747851465943354078,-0.115
1747851465951039945,-0.088
1747851465958725812,-0.073
1747851465966411679,-0.051000000000000004
1747851465974097546,-0.022
1747851465981783413,0.0
1747851465989469280,0.024
1747851465997155199,0.056,91,648
1747851466004841066,0.08600000000000001,,644
1747851466012526933,0.115
1747851466020212800,0.14
1747851466027898667,0.15
1747851466035584534,0.137
1747851466043270401,0.11800000000000001
1747851466050956268,0.096
1747851466058642135,0.066
1747851466066328002,0.034
1747851466074013869,-0.004
1747851466081699736,-0.051000000000000004
1747851466089385603,-0.1
1747851466097071470,-0.152
1747851466104757337,-0.196
1747851466112443204,-0.228
1747851466120129071,-0.253
1747851466127814938,-0.265
1747851466135500805,-0.263
1747851466143186672,-0.258
1747851466150872539,-0.243
1747851466158558406,-0.231
1747851466166244273,-0.224
1747851466173930140,-0.216
1747851466181616007,-0.209
1747851466189301874,-0.199
1747851466196987741,-0.187
1747851466204673608,-0.184
1747851466212359475,-0.189
1747851466220045342,-0.184
1747851466227731209,-0.179
1747851466235417076,-0.179
1747851466243102943,-0.177
1747851466250788810,-0.177
1747851466258474677,-0.184
1747851466266160544,-0.179
1747851466273846411,-0.17200000000000001
1747851466281532278,-0.17200000000000001
1747851466289218145,-0.17200000000000001
1747851466296904012,-0.182
1747851466304589879,-0.184
1747851466312275746,-0.167
1747851466319961613,-0.147
1747851466327647480,-0.14200000000000002
1747851466335333347,-0.14
1747851466343019214,-0.11800000000000001
1747851466350705081,-0.11
1747851466358390948,-0.152
1747851466366076815,-0.187
1747851466373762682,-0.17200000000000001
1747851466381448549,-0.16
1747851466389134416,-0.167
1747851466396820283,-0.162
1747851466404506150,-0.15
1747851466412192017,-0.155
1747851466419877884,-0.177
1747851466427563751,-0.221
1747851466435249618,-0.26
1747851466442935485,-0.044
1747851466450621352,0.625
1747851466458307219,1.417
1747851466465993086,1.6640000000000001
1747851466473678953,0.743
1747851466481364820,-0.595
1747851466489050687,-0.713
1747851466496736554,-0.162
1747851466504422421,-0.196
1747851466512108288,-0.327
1747851466519794155,-0.189
1747851466527480022,-0.16
1747851466535165889,-0.211
1747851466542851756,-0.164
1747851466550537623,-0.12
1747851466558223542,-0.128
1747851466565909827,-0.115
1747851466573596112,-0.076
1747851466581282397,-0.046
1747851466588968682,-0.024
1747851466596654967,-0.002
1747851466604341252,0.014
1747851466612027537,0.039
1747851466619713822,0.078
1747851466627400107,0.11
1747851466635086392,0.135
1747851466642772677,0.157
1747851466650458962,0.164
1747851466658145247,0.155
1747851466665831532,0.14200000000000002
1747851466673517817,0.113
1747851466681204102,0.073
1747851466688890387,0.039
1747851466696576672,-0.004
1747851466704262957,-0.061
1747851466711949242,-0.11800000000000001
1747851466719635527,-0.164
1747851466727321812,-0.209
1747851466735008097,-0.23600000000000002
1747851466742694382,-0.253
1747851466750380667,-0.27
1747851466758066952,-0.275
1747851466765753237,-0.26
1747851466773439522,-0.248
1747851466781125807,-0.243
1747851466788812092,-0.23600000000000002
1747851466796498377,-0.221
1747851466804184662,-0.20400000000000001
1747851466811870947,-0.201
1747851466819557232,-0.199
1747851466827243517,-0.189
1747851466834929802,-0.184
1747851466842616087,-0.189
1747851466850302372,-0.189
1747851466857988657,-0.187
1747851466865674942,-0.194
1747851466873361227,-0.196
1747851466881047512,-0.187
1747851466888733797,-0.184
1747851466896420082,-0.192
1747851466904106367,-0.194
1747851466911792652,-0.196
1747851466919478937,-0.194
1747851466927165222,-0.184
1747851466934851507,-0.179
1747851466942537792,-0.169
1747851466950224077,-0.155
1747851466957910362,-0.14200000000000002
1747851466965596647,-0.147
1747851466973282932,-0.177
1747851466980969217,-0.201
1747851466988655502,-0.201
1747851466996341787,-0.192
1747851467004028072,-0.182
1747851467011714357,-0.177
1747851467019400642,-0.179
1747851467027086927,-0.187
1747851467034773212,-0.20400000000000001
1747851467042459497,-0.256
1747851467050145782,-0.292
1747851467057832067,-0.032
1747851467065518352,0.664
1747851467073204637,1.393
1747851467080890922,1.536
1747851467088577207,0.6
1747851467096263492,-0.64
1747851467103949777,-0.6990000000000001
1747851467111636062,-0.187
1747851467119322403,-0.23600000000000002,91,641
1747851467127008270,-0.34400000000000003
1747851467134694137,-0.216
1747851467142380004,-0.199
1747851467150065871,-0.23600000000000002
1747851467157751738,-0.187
1747851467165437605,-0.152
1747851467173123472,-0.155
1747851467180809339,-0.132
1747851467188495206,-0.105
1747851467196181073,-0.088
1747851467203866940,-0.066
1747851467211552807,-0.041
1747851467219238674,-0.017
1747851467226924541,0.012
1747851467234610408,0.041
1747851467242296275,0.07100000000000001
1747851467249982142,0.096
1747851467257668009,0.11
1747851467265353876,0.113
1747851467273039743,0.105
1747851467280725610,0.083
1747851467288411477,0.056
1747851467296097344,0.022
1747851467303783211,-0.009000000000000001
1747851467311469078,-0.051000000000000004
1747851467319154945,-0.105
1747851467326840812,-0.155
1747851467334526679,-0.201
1747851467342212546,-0.23800000000000002
1747851467349898413,-0.265
1747851467357584280,-0.28300000000000003
1747851467365270147,-0.29
1747851467372956014,-0.28800000000000003
1747851467380641881,-0.278
1747851467388327748,-0.268
1747851467396013615,-0.26
1747851467403699482,-0.253
1747851467411385349,-0.243
1747851467419071216,-0.233
1747851467426757083,-0.226
1747851467434442950,-0.219
1747851467442128817,-0.214
1747851467449814684,-0.209
1747851467457500551,-0.20600000000000002
1747851467465186418,-0.20600000000000002
1747851467472872285,-0.20400000000000001
1747851467480558152,-0.201
1747851467488244019,-0.20600000000000002
1747851467495929886,-0.20600000000000002
1747851467503615753,-0.20400000000000001
1747851467511301620,-0.201
1747851467518987487,-0.20600000000000002
1747851467526673354,-0.211
1747851467534359221,-0.209
1747851467542045088,-0.199
1747851467549730955,-0.189
1747851467557416822,-0.179
1747851467565102689,-0.17200000000000001
1747851467572788556,-0.16
1747851467580474423,-0.147
1747851467588160290,-0.16
1747851467595846157,-0.196
1747851467603532024,-0.209
1747851467611217891,-0.194
1747851467618903758,-0.187
1747851467626589625,-0.187
1747851467634275492,-0.182
1747851467641961359,-0.184
1747851467649647226,-0.201
1747851467657333093,-0.241
1747851467665018960,-0.292
1747851467672704827,-0.17200000000000001
1747851467680390746,0.379,92,637
1747851467688076613,1.191,,622
1747851467695762480,1.688
1747851467703448347,1.149
1747851467711134214,-0.26
1747851467718820081,-0.844
1747851467726505948,-0.317
1747851467734191815,-0.147
1747851467741877682,-0.361
1747851467749563549,-0.28800000000000003
1747851467757249416,-0.192
1747851467764935283,-0.243
1747851467772621150,-0.226
1747851467780307017,-0.169
1747851467787992884,-0.164
1747851467795678751,-0.155
1747851467803364618,-0.123
1747851467811050485,-0.10300000000000001
1747851467818736352,-0.08600000000000001
1747851467826422219,-0.059000000000000004
1747851467834108086,-0.032
1747851467841793953,-0.004
1747851467849479820,0.024
1747851467857165687,0.056
1747851467864851554,0.08600000000000001
1747851467872537421,0.108
1747851467880223288,0.12
1747851467887909155,0.11800000000000001
1747851467895595022,0.1
1747851467903280889,0.078
1747851467910966756,0.049
1747851467918652623,0.014
1747851467926338490,-0.024
1747851467934024357,-0.076
1747851467941710224,-0.135
1747851467949396091,-0.187
1747851467957081958,-0.231
1747851467964767825,-0.263
1747851467972453692,-0.28500000000000003
1747851467980139559,-0.295
1747851467987825426,-0.295
1747851467995511293,-0.28500000000000003
1747851468003197160,-0.273
1747851468010883027,-0.26
1747851468018568894,-0.251
1747851468026254761,-0.241
1747851468033940628,-0.231
1747851468041626495,-0.226
1747851468049312362,-0.224
1747851468056998229,-0.219
1747851468064684096,-0.214
1747851468072369963,-0.214
1747851468080055830,-0.211
1747851468087741697,-0.209
1747851468095427564,-0.209
1747851468103113431,-0.209
1747851468110799298,-0.20600000000000002
1747851468118485165,-0.20400000000000001
1747851468126171032,-0.20400000000000001
1747851468133856899,-0.199
1747851468141542766,-0.201
1747851468149228633,-0.20600000000000002
1747851468156914500,-0.20400000000000001
1747851468164600367,-0.194
1747851468172286234,-0.182
1747851468179972101,-0.17200000000000001
1747851468187657968,-0.162
1747851468195343835,-0.147
1747851468203029702,-0.135
1747851468210715569,-0.157
1747851468218401436,-0.192
1747851468226087303,-0.196
1747851468233773170,-0.184
1747851468241459089,-0.182
1747851468249145374,-0.177
1747851468256831659,-0.169
1747851468264517944,-0.17400000000000002
1747851468272204229,-0.194
1747851468279890514,-0.246
1747851468287576799,-0.292
1747851468295263084,-0.1
1747851468302949369,0.541
1747851468310635654,1.3880000000000001
1747851468318321939,1.802
1747851468326008224,1.004
1747851468333694509,-0.47500000000000003
1747851468341380794,-0.804
1747851468349067079,-0.226
1747851468356753364,-0.192
1747851468364439649,-0.376
1747851468372125934,-0.253
1747851468379812219,-0.194
1747851468387498504,-0.251
1747851468395184789,-0.214
1747851468402871074,-0.162
1747851468410557359,-0.164
1747851468418243644,-0.147
1747851468425929929,-0.113
1747851468433616214,-0.096
1747851468441302499,-0.076
1747851468448988784,-0.046
1747851468456675069,-0.019
1747851468464361354,0.009000000000000001
1747851468472047639,0.041
1747851468479733924,0.073
1747851468487420209,0.10300000000000001
1747851468495106494,0.128
1747851468502792779,0.137
1747851468510479064,0.132
1747851468518165349,0.11800000000000001
1747851468525851634,0.093
1747851468533537919,0.061
1747851468541224204,0.024
1747851468548910489,-0.022
1747851468556596774,-0.076
1747851468564283059,-0.132
1747851468571969344,-0.187
1747851468579655629,-0.231
1747851468587341914,-0.263
1747851468595028199,-0.28300000000000003
1747851468602714484,-0.29
1747851468610400769,-0.28800000000000003
1747851468618087054,-0.278
1747851468625773339,-0.265
1747851468633459624,-0.256
1747851468641145909,-0.246
1747851468648832194,-0.233
1747851468656518479,-0.224
1747851468664204764,-0.216
1747851468671891049,-0.214
1747851468679577334,-0.209
1747851468687263619,-0.20600000000000002
1747851468694949904,-0.20400000000000001
1747851468702636189,-0.20400000000000001
1747851468710322474,-0.201
1747851468718008759,-0.201
1747851468725695044,-0.199
1747851468733381329,-0.199
1747851468741067614,-0.196
1747851468748753899,-0.196
1747851468756440184,-0.194
1747851468764126469,-0.189
1747851468771812754,-0.192
1747851468779499039,-0.199
1747851468787185324,-0.196
1747851468794871609,-0.189
1747851468802557954,-0.17400000000000002,93,614
1747851468810244100,-0.157
1747851468817930246,-0.15
1747851468825616392,-0.137
1747851468833302538,-0.128
1747851468840988684,-0.147
1747851468848674830,-0.184
1747851468856360976,-0.189
1747851468864047122,-0.17400000000000002
1747851468871733268,-0.169
1747851468879419414,-0.169
1747851468887105560,-0.164
1747851468894791706,-0.162
1747851468902477852,-0.182
1747851468910163998,-0.233
1747851468917850144,-0.28
1747851468925536290,-0.10300000000000001
1747851468933222436,0.507
1747851468940908582,1.353
1747851468948594728,1.831
1747851468956280874,1.097
1747851468963967020,-0.41600000000000004
1747851468971653166,-0.8270000000000001
1747851468979339312,-0.251
1747851468987025458,-0.187
1747851468994711604,-0.374
1747851469002397750,-0.256
1747851469010083896,-0.192
1747851469017770042,-0.246
1747851469025456188,-0.211
1747851469033142334,-0.16
1747851469040828480,-0.162
1747851469048514626,-0.14200000000000002
1747851469056200772,-0.108
1747851469063886918,-0.091
1747851469071573064,-0.07100000000000001
1747851469079259210,-0.041
1747851469086945356,-0.014
1747851469094631502,0.012
1747851469102317648,0.044
1747851469110003794,0.081
1747851469117689940,0.108
1747851469125376086,0.13
1747851469133062232,0.14200000000000002
1747851469140748378,0.14
1747851469148434524,0.128
1747851469156120670,0.10300000000000001
1747851469163806816,0.07100000000000001
1747851469171492962,0.036000000000000004
1747851469179179108,-0.002
1747851469186865254,-0.056
1747851469194551400,-0.12
1747851469202237546,-0.177
1747851469209923692,-0.219
1747851469217609838,-0.253
1747851469225295984,-0.275
1747851469232982130,-0.28500000000000003
1747851469240668276,-0.28300000000000003
1747851469248354422,-0.273
1747851469256040568,-0.263
1747851469263726714,-0.256
1747851469271412860,-0.243
1747851469279099006,-0.231
1747851469286785152,-0.226
1747851469294471298,-0.219
1747851469302157444,-0.209
1747851469309843590,-0.20600000000000002
1747851469317529736,-0.20400000000000001
1747851469325215882,-0.196
1747851469332902028,-0.199
1747851469340588174,-0.20400000000000001
1747851469348274320,-0.199
1747851469355960466,-0.194
1747851469363646643,-0.201
1747851469371332232,-0.199
1747851469379017821,-0.194
1747851469386703410,-0.189
1747851469394388999,-0.184
1747851469402074588,-0.187
1747851469409760177,-0.196
1747851469417445766,-0.192
1747851469425131355,-0.184
1747851469432816944,-0.17400000000000002
1747851469440502533,-0.16
1747851469448188122,-0.145
1747851469455873711,-0.137
1747851469463559300,-0.13
1747851469471244889,-0.135
1747851469478930478,-0.164
1747851469486616067,-0.187
1747851469494301656,-0.182
1747851469501987245,-0.167
1747851469509672834,-0.157
1747851469517358423,-0.152
1747851469525044012,-0.157
1747851469532729601,-0.177
1747851469540415190,-0.20600000000000002
1747851469548100779,-0.258
1747851469555786368,-0.187
1747851469563471957,0.297
1747851469571157546,1.112
1747851469578843135,1.737
1747851469586528724,1.383
1747851469594214313,-0.044
1747851469601899902,-0.861
1747851469609585491,-0.391
1747851469617271080,-0.11800000000000001
1747851469624956669,-0.327
1747851469632642258,-0.28500000000000003
1747851469640327847,-0.17200000000000001
1747851469648013436,-0.216
1747851469655699025,-0.20400000000000001
1747851469663384614,-0.14200000000000002
1747851469671070203,-0.14200000000000002
1747851469678755792,-0.125
1747851469686441381,-0.083
1747851469694126970,-0.073
1747851469701812559,-0.064
1747851469709498148,-0.027
1747851469717183737,0.004
1747851469724869326,0.029
1747851469732554915,0.064
1747851469740240504,0.1
1747851469747926093,0.135
1747851469755611682,0.17200000000000001
1747851469763297271,0.196
1747851469770982860,0.184
1747851469778668449,0.16
1747851469786354038,0.145
1747851469794039627,0.128
1747851469801725216,0.088
1747851469809410805,0.039
1747851469817096394,-0.017
1747851469824781983,-0.076
1747851469832467572,-0.135
1747851469840153161,-0.189
1747851469847838750,-0.241
1747851469855524339,-0.268
1747851469863209928,-0.273
1747851469870895517,-0.273
1747851469878581106,-0.27
1747851469886266695,-0.265
1747851469893952284,-0.251
1747851469901637873,-0.23600000000000002
1747851469909323462,-0.231
1747851469917009051,-0.226
1747851469924694640,-0.211,94,618
1747851469932380507,-0.20400000000000001,,621
1747851469940066374,-0.199
1747851469947752241,-0.194
1747851469955438108,-0.187
1747851469963123975,-0.184
1747851469970809842,-0.189
1747851469978495709,-0.192
1747851469986181576,-0.189
1747851469993867443,-0.187
1747851470001553310,-0.192
1747851470009239177,-0.192
1747851470016925044,-0.179
1747851470024610911,-0.179
1747851470032296778,-0.192
1747851470039982645,-0.192
1747851470047668512,-0.177
1747851470055354379,-0.169
1747851470063040246,-0.162
1747851470070726113,-0.152
1747851470078411980,-0.132
1747851470086097847,-0.115
1747851470093783714,-0.14
1747851470101469581,-0.184
1747851470109155448,-0.189
1747851470116841315,-0.177
1747851470124527182,-0.17200000000000001
1747851470132213049,-0.164
1747851470139898916,-0.157
1747851470147584783,-0.162
1747851470155270650,-0.182
1747851470162956517,-0.216
1747851470170642384,-0.275
1747851470178328251,-0.167
1747851470186014118,0.388
1747851470193699985,1.191
1747851470201385852,1.6560000000000001
1747851470209071719,1.1320000000000001
1747851470216757586,-0.228
1747851470224443453,-0.8240000000000001
1747851470232129320,-0.332
1747851470239815187,-0.15
1747851470247501054,-0.329
1747851470255186921,-0.253
1747851470262872788,-0.17200000000000001
1747851470270558655,-0.221
1747851470278244522,-0.194
1747851470285930389,-0.14
1747851470293616256,-0.14200000000000002
1747851470301302123,-0.13
1747851470308987990,-0.093
1747851470316673857,-0.076
1747851470324359724,-0.059000000000000004
1747851470332045591,-0.027
1747851470339731458,0.0
1747851470347417325,0.027
1747851470355103192,0.064
1747851470362789059,0.098
1747851470370474926,0.128
1747851470378160793,0.155
1747851470385846660,0.17200000000000001
1747851470393532527,0.167
1747851470401218394,0.15
1747851470408904261,0.128
1747851470416590128,0.096
1747851470424275995,0.056
1747851470431961862,0.004
1747851470439647729,-0.054
1747851470447333596,-0.115
1747851470455019463,-0.17200000000000001
1747851470462705330,-0.221
1747851470470391197,-0.256
1747851470478077064,-0.278
1747851470485762983,-0.29
1747851470493449268,-0.29
1747851470501135553,-0.28300000000000003
1747851470508821838,-0.273
1747851470516508123,-0.263
1747851470524194408,-0.251
1747851470531880693,-0.241
1747851470539566978,-0.231
1747851470547253263,-0.226
1747851470554939548,-0.219
1747851470562625833,-0.211
1747851470570312118,-0.20600000000000002
1747851470577998403,-0.199
1747851470585684688,-0.199
1747851470593370973,-0.199
1747851470601057258,-0.196
1747851470608743543,-0.194
1747851470616429828,-0.196
1747851470624116113,-0.196
1747851470631802398,-0.194
1747851470639488683,-0.194
1747851470647174968,-0.194
1747851470654861253,-0.192
1747851470662547538,-0.196
1747851470670233823,-0.199
1747851470677920108,-0.189
1747851470685606393,-0.177
1747851470693292678,-0.164
1747851470700978963,-0.157
1747851470708665248,-0.145
1747851470716351533,-0.13
1747851470724037818,-0.14
1747851470731724103,-0.17400000000000002
1747851470739410388,-0.194
1747851470747096673,-0.182
1747851470754782958,-0.17400000000000002
1747851470762469243,-0.17400000000000002
1747851470770155528,-0.169
1747851470777841813,-0.167
1747851470785528098,-0.177
1747851470793214383,-0.211
1747851470800900668,-0.265
1747851470808586953,-0.17200000000000001
1747851470816273238,0.339
1747851470823959523,1.1340000000000001
1747851470831645808,1.698
1747851470839332093,1.2650000000000001
1747851470847018378,-0.152
1747851470854704663,-0.859
1747851470862390948,-0.354
1747851470870077233,-0.125
1747851470877763518,-0.342
1747851470885449803,-0.28500000000000003
1747851470893136088,-0.177
1747851470900822373,-0.228
1747851470908508658,-0.219
1747851470916194943,-0.157
1747851470923881228,-0.152
1747851470931567513,-0.147
1747851470939253798,-0.113
1747851470946940083,-0.091
1747851470954626368,-0.073
1747851470962312653,-0.046
1747851470969998938,-0.014
1747851470977685223,0.012
1747851470985371508,0.044
1747851470993057793,0.078
1747851471000744078,0.11
1747851471008430363,0.137
1747851471016116648,0.157
1747851471023802933,0.162
1747851471031489218,0.152
1747851471039175503,0.132
1747851471046861844,0.105,95,631
1747851471054547711,0.07100000000000001,,633
1747851471062233578,0.027
1747851471069919445,-0.029
1747851471077605312,-0.096
1747851471085291179,-0.16
1747851471092977046,-0.211
1747851471100662913,-0.253
1747851471108348780,-0.278
1747851471116034647,-0.28800000000000003
1747851471123720514,-0.29
1747851471131406381,-0.28300000000000003
1747851471139092248,-0.27
1747851471146778115,-0.258
1747851471154463982,-0.248
1747851471162149849,-0.23600000000000002
1747851471169835716,-0.226
1747851471177521583,-0.219
1747851471185207450,-0.214
1747851471192893317,-0.211
1747851471200579184,-0.209
1747851471208265051,-0.20400000000000001
1747851471215950918,-0.20400000000000001
1747851471223636785,-0.20400000000000001
1747851471231322652,-0.201
1747851471239008519,-0.199
1747851471246694386,-0.201
1747851471254380253,-0.199
1747851471262066120,-0.196
1747851471269751987,-0.196
1747851471277437854,-0.194
1747851471285123721,-0.189
1747851471292809588,-0.187
1747851471300495455,-0.192
1747851471308181322,-0.196
1747851471315867189,-0.192
1747851471323553056,-0.179
1747851471331238923,-0.167
1747851471338924790,-0.155
1747851471346610657,-0.145
1747851471354296524,-0.132
1747851471361982391,-0.128
1747851471369668258,-0.152
1747851471377354125,-0.184
1747851471385039992,-0.184
1747851471392725859,-0.17200000000000001
1747851471400411726,-0.169
1747851471408097593,-0.167
1747851471415783460,-0.162
1747851471423469327,-0.167
1747851471431155194,-0.187
1747851471438841061,-0.23800000000000002
1747851471446526928,-0.27
1747851471454212795,-0.029
1747851471461898662,0.652
1747851471469584529,1.489
1747851471477270396,1.797
1747851471484956263,0.8220000000000001
1747851471492642130,-0.615
1747851471500327997,-0.738
1747851471508013864,-0.167
1747851471515699731,-0.224
1747851471523385598,-0.371
1747851471531071465,-0.226
1747851471538757332,-0.196
1747851471546443199,-0.248
1747851471554129066,-0.199
1747851471561814933,-0.155
1747851471569500800,-0.157
1747851471577186667,-0.135
1747851471584872534,-0.10300000000000001
1747851471592558401,-0.088
1747851471600244268,-0.066
1747851471607930187,-0.034,95,621
1747851471615616054,-0.007
1747851471623301921,0.022
1747851471630987788,0.056
1747851471638673655,0.093
1747851471646359522,0.125
1747851471654045389,0.155
1747851471661731256,0.169
1747851471669417123,0.169
1747851471677102990,0.157
1747851471684788857,0.132
1747851471692474724,0.10300000000000001
1747851471700160591,0.066
1747851471707846458,0.017
1747851471715532325,-0.046
1747851471723218192,-0.115
1747851471730904059,-0.17400000000000002
1747851471738589926,-0.226
1747851471746275793,-0.263
1747851471753961660,-0.28500000000000003
1747851471761647527,-0.292
1747851471769333394,-0.292
1747851471777019261,-0.28300000000000003
1747851471784705128,-0.27
1747851471792390995,-0.258
1747851471800076862,-0.248
1747851471807762729,-0.23600000000000002
1747851471815448596,-0.228
1747851471823134463,-0.221
1747851471830820330,-0.216
1747851471838506197,-0.214
1747851471846192064,-0.211
1747851471853877931,-0.211
1747851471861563798,-0.20600000000000002
1747851471869249665,-0.20600000000000002
1747851471876935532,-0.20600000000000002
1747851471884621399,-0.20600000000000002
1747851471892307266,-0.20600000000000002
1747851471899993133,-0.20400000000000001
1747851471907679000,-0.20400000000000001
1747851471915364867,-0.199
1747851471923050734,-0.196
1747851471930736601,-0.196
1747851471938422468,-0.194
1747851471946108335,-0.189
1747851471953794202,-0.192
1747851471961480069,-0.196
1747851471969165936,-0.194
1747851471976851803,-0.184
1747851471984537670,-0.17200000000000001
1747851471992223537,-0.157
1747851471999909404,-0.145
1747851472007595271,-0.132
1747851472015281138,-0.128
1747851472022967005,-0.147
1747851472030652872,-0.182
1747851472038338739,-0.189
1747851472046024606,-0.17400000000000002
1747851472053710473,-0.169
1747851472061396340,-0.167
1747851472069082207,-0.162
1747851472076768074,-0.162
1747851472084453941,-0.179
1747851472092139808,-0.226
1747851472099825675,-0.27
1747851472107511542,-0.088
1747851472115197409,0.529
1747851472122883276,1.381
1747851472130569143,1.838
1747851472138255010,1.051
1747851472145940877,-0.465
1747851472153626744,-0.807
1747851472161312611,-0.226
1747851472168998534,-0.199
1747851472176684401,-0.374
1747851472184370268,-0.248
1747851472192056135,-0.192
1747851472199742002,-0.248
1747851472207427869,-0.209
1747851472215113736,-0.157
1747851472222799603,-0.16
1747851472230485470,-0.14200000000000002
1747851472238171337,-0.108
1747851472245857204,-0.093
1747851472253543071,-0.073
1747851472261228938,-0.044
1747851472268914805,-0.014
1747851472276600672,0.014
1747851472284286539,0.046
1747851472291972406,0.083
1747851472299658273,0.11800000000000001
1747851472307344140,0.145
1747851472315030007,0.164
1747851472322715874,0.167
1747851472330401741,0.155
1747851472338087608,0.135
1747851472345773475,0.105
1747851472353459342,0.073
1747851472361145209,0.029
1747851472368831076,-0.029
1747851472376516943,-0.096
1747851472384202810,-0.157
1747851472391888677,-0.209
1747851472399574544,-0.248
1747851472407260411,-0.275
1747851472414946278,-0.28800000000000003
1747851472422632145,-0.29
1747851472430318012,-0.28300000000000003
1747851472438003879,-0.273
1747851472445689746,-0.263
1747851472453375613,-0.251
1747851472461061480,-0.241
1747851472468747347,-0.233
1747851472476433214,-0.226
1747851472484119081,-0.221
1747851472491804948,-0.216
1747851472499490815,-0.214
1747851472507176682,-0.214
1747851472514862549,-0.211
1747851472522548416,-0.211
1747851472530234283,-0.209
1747851472537920150,-0.20600000000000002
1747851472545606017,-0.20600000000000002
1747851472553291884,-0.20600000000000002
1747851472560977751,-0.20400000000000001
1747851472568663618,-0.201
1747851472576349485,-0.199
1747851472584035352,-0.196
1747851472591721219,-0.194
1747851472599407086,-0.192
1747851472607092953,-0.189
1747851472614778820,-0.184
1747851472622464687,-0.182
1747851472630150554,-0.179
1747851472637836421,-0.182
1747851472645522288,-0.184
1747851472653208155,-0.182
1747851472660894022,-0.169
1747851472668579889,-0.152
1747851472676265756,-0.14200000000000002
1747851472683951623,-0.132
1747851472691637490,-0.12
1747851472699323357,-0.125
1747851472707009224,-0.155
1747851472714695091,-0.177
1747851472722380958,-0.169
1747851472730066877,-0.16,95,631
1747851472737752744,-0.157,,643
1747851472745438611,-0.152
1747851472753124478,-0.155
1747851472760810345,-0.162
1747851472768496212,-0.182
1747851472776182079,-0.23800000000000002
1747851472783867946,-0.265
1747851472791553813,0.004
1747851472799239680,0.708
1747851472806925547,1.553
1747851472814611414,1.806
1747851472822297281,0.726
1747851472829983148,-0.679
1747851472837669015,-0.686
1747851472845354882,-0.147
1747851472853040749,-0.258
1747851472860726616,-0.361
1747851472868412483,-0.20600000000000002
1747851472876098350,-0.199
1747851472883784217,-0.23800000000000002
1747851472891470084,-0.177
1747851472899155951,-0.14200000000000002
1747851472906841818,-0.152
1747851472914527685,-0.123
1747851472922213552,-0.091
1747851472929899419,-0.078
1747851472937585286,-0.054
1747851472945271153,-0.024
1747851472952957020,-0.007
1747851472960642887,0.019
1747851472968328754,0.064
1747851472976014621,0.105
1747851472983700488,0.14
1747851472991386355,0.164
1747851472999072222,0.182
1747851473006758089,0.184
1747851473014443956,0.167
1747851473022129823,0.14200000000000002
1747851473029815690,0.123
1747851473037501557,0.091
1747851473045187424,0.039
1747851473052873291,-0.022
1747851473060559158,-0.078
1747851473068245025,-0.135
1747851473075930892,-0.194
1747851473083616759,-0.23800000000000002
1747851473091302626,-0.258
1747851473098988493,-0.265
1747851473106674360,-0.27
1747851473114360227,-0.27
1747851473122046094,-0.263
1747851473129731961,-0.248
1747851473137417828,-0.233
1747851473145103695,-0.228
1747851473152789562,-0.221
1747851473160475429,-0.20600000000000002
1747851473168161296,-0.192
1747851473175847163,-0.187
1747851473183533030,-0.196
1747851473191218897,-0.199
1747851473198904764,-0.194
1747851473206590631,-0.192
1747851473214276498,-0.192
1747851473221962365,-0.192
1747851473229648232,-0.187
1747851473237334099,-0.187
1747851473245019966,-0.184
1747851473252705833,-0.177
1747851473260391700,-0.17400000000000002
1747851473268077567,-0.179
1747851473275763434,-0.179
1747851473283449301,-0.177
1747851473291135220,-0.179
1747851473298821505,-0.177
1747851473306507790,-0.17400000000000002
1747851473314194075,-0.17200000000000001
1747851473321880360,-0.164
1747851473329566645,-0.157
1747851473337252930,-0.145
1747851473344939215,-0.135
1747851473352625500,-0.128
1747851473360311785,-0.115
1747851473367998070,-0.108
1747851473375684355,-0.135
1747851473383370640,-0.17400000000000002
1747851473391056925,-0.169
1747851473398743210,-0.147
1747851473406429495,-0.145
1747851473414115780,-0.15
1747851473421802065,-0.14
1747851473429488350,-0.14
1747851473437174635,-0.157
1747851473444860920,-0.211
1747851473452547205,-0.273
1747851473460233490,-0.096
1747851473467919775,0.544
1747851473475606060,1.366
1747851473483292345,1.735
1747851473490978630,0.935
1747851473498664915,-0.48
1747851473506351200,-0.76
1747851473514037485,-0.209
1747851473521723770,-0.192
1747851473529410055,-0.342
1747851473537096340,-0.20600000000000002
1747851473544782625,-0.157
1747851473552468910,-0.209
1747851473560155195,-0.162
1747851473567841480,-0.123
1747851473575527765,-0.135
1747851473583214050,-0.113
1747851473590900335,-0.073
1747851473598586620,-0.064
1747851473606272905,-0.041
1747851473613959190,-0.004
1747851473621645475,0.019
1747851473629331760,0.046
1747851473637018045,0.091
1747851473644704330,0.128
1747851473652390615,0.15
1747851473660076900,0.179
1747851473667763185,0.209
1747851473675449470,0.219
1747851473683135755,0.201
1747851473690822040,0.17200000000000001
1747851473698508325,0.145
1747851473706194610,0.11
1747851473713880895,0.061
1747851473721567180,0.0
1747851473729253465,-0.066
1747851473736939750,-0.13
1747851473744626035,-0.187
1747851473752312320,-0.233
1747851473759998605,-0.263
1747851473767684890,-0.273
1747851473775371175,-0.275
1747851473783057460,-0.273
1747851473790743745,-0.263
1747851473798430030,-0.253
1747851473806116315,-0.246
1747851473813802600,-0.231
1747851473821488885,-0.219
1747851473829175170,-0.214
1747851473836861455,-0.209
1747851473844547740,-0.199
1747851473852234081,-0.196,95,654
1747851473859919948,-0.196
1747851473867605815,-0.196
1747851473875291682,-0.192
1747851473882977549,-0.189
1747851473890663416,-0.192
1747851473898349283,-0.196
1747851473906035150,-0.194
1747851473913721017,-0.194
1747851473921406884,-0.194
1747851473929092751,-0.192
1747851473936778618,-0.189
1747851473944464485,-0.189
1747851473952150352,-0.189
1747851473959836219,-0.184
1747851473967522086,-0.182
1747851473975207953,-0.192
1747851473982893820,-0.189
1747851473990579687,-0.17400000000000002
1747851473998265554,-0.16
1747851474005951421,-0.152
1747851474013637288,-0.14200000000000002
1747851474021323155,-0.128
1747851474029009022,-0.123
1747851474036694889,-0.145
1747851474044380756,-0.179
1747851474052066623,-0.184
1747851474059752490,-0.17200000000000001
1747851474067438357,-0.167
1747851474075124224,-0.162
1747851474082810091,-0.157
1747851474090495958,-0.157
1747851474098181825,-0.17200000000000001
1747851474105867692,-0.219
1747851474113553559,-0.27
1747851474121239426,-0.096
1747851474128925293,0.512
1747851474136611160,1.307
1747851474144297027,1.705
1747851474151982894,0.979
1747851474159668761,-0.44
1747851474167354628,-0.797
1747851474175040495,-0.233
1747851474182726362,-0.17400000000000002
1747851474190412229,-0.34900000000000003
1747851474198098096,-0.23600000000000002
1747851474205783963,-0.177
1747851474213469830,-0.233
1747851474221155697,-0.196
1747851474228841564,-0.147
1747851474236527431,-0.15
1747851474244213298,-0.135
1747851474251899165,-0.10300000000000001
1747851474259585032,-0.08600000000000001
1747851474267270899,-0.068
1747851474274956766,-0.041
1747851474282642633,-0.014
1747851474290328500,0.012
1747851474298014367,0.044
1747851474305700234,0.078
1747851474313386101,0.113
1747851474321071968,0.14200000000000002
1747851474328757835,0.162
1747851474336443702,0.167
1747851474344129569,0.157
1747851474351815436,0.135
1747851474359501303,0.105
1747851474367187170,0.073
1747851474374873037,0.032
1747851474382558904,-0.024
1747851474390244771,-0.088
1747851474397930638,-0.152
1747851474405616505,-0.20400000000000001
1747851474413302424,-0.246
1747851474420988291,-0.273
1747851474428674158,-0.28800000000000003
1747851474436360025,-0.292
1747851474444045892,-0.28800000000000003
1747851474451731759,-0.278
1747851474459417626,-0.268
1747851474467103493,-0.258
1747851474474789360,-0.248
1747851474482475227,-0.241
1747851474490161094,-0.231
1747851474497846961,-0.224
1747851474505532828,-0.219
1747851474513218695,-0.216
1747851474520904562,-0.211
1747851474528590429,-0.211
1747851474536276296,-0.209
1747851474543962163,-0.209
1747851474551648030,-0.209
1747851474559333897,-0.209
1747851474567019764,-0.20600000000000002
1747851474574705631,-0.20600000000000002
1747851474582391498,-0.20600000000000002
1747851474590077365,-0.20400000000000001
1747851474597763232,-0.201
1747851474605449099,-0.199
1747851474613134966,-0.199
1747851474620820833,-0.194
1747851474628506700,-0.189
1747851474636192567,-0.187
1747851474643878434,-0.184
1747851474651564301,-0.189
1747851474659250168,-0.189
1747851474666936035,-0.179
1747851474674621902,-0.164
1747851474682307769,-0.155
1747851474689993636,-0.145
1747851474697679503,-0.132
1747851474705365370,-0.123
1747851474713051237,-0.137
1747851474720737104,-0.177
1747851474728422971,-0.189
1747851474736108838,-0.17400000000000002
1747851474743794705,-0.167
1747851474751480572,-0.167
1747851474759166439,-0.162
1747851474766852306,-0.16
1747851474774538173,-0.17200000000000001
1747851474782224040,-0.211
1747851474789909907,-0.278
1747851474797595774,-0.201
1747851474805281641,0.28500000000000003
1747851474812967508,1.107
1747851474820653375,1.7670000000000001
1747851474828339242,1.42
1747851474836025109,-0.041
1747851474843710976,-0.871
1747851474851396843,-0.386
1747851474859082710,-0.11800000000000001
1747851474866768577,-0.34400000000000003
1747851474874454444,-0.3
1747851474882140311,-0.179
1747851474889826178,-0.228
1747851474897512045,-0.226
1747851474905197912,-0.164
1747851474912883779,-0.155
1747851474920569646,-0.152
1747851474928255513,-0.11800000000000001
1747851474935941380,-0.096
1747851474943627247,-0.081
1747851474951313114,-0.054
1747851474958998981,-0.027
1747851474966684848,-0.002
1747851474974370767,0.027,94,683
1747851474982056634,0.064,,670
1747851474989742501,0.098
1747851474997428368,0.128
1747851475005114235,0.152
1747851475012800102,0.164
1747851475020485969,0.157
1747851475028171836,0.14200000000000002
1747851475035857703,0.11800000000000001
1747851475043543570,0.08600000000000001
1747851475051229437,0.046
1747851475058915304,0.0
1747851475066601171,-0.061
1747851475074287038,-0.125
1747851475081972905,-0.184
1747851475089658772,-0.231
1747851475097344639,-0.268
1747851475105030506,-0.28500000000000003
1747851475112716373,-0.292
1747851475120402240,-0.29
1747851475128088107,-0.28
1747851475135773974,-0.27
1747851475143459841,-0.258
1747851475151145708,-0.248
1747851475158831575,-0.23800000000000002
1747851475166517442,-0.231
1747851475174203309,-0.224
1747851475181889176,-0.221
1747851475189575043,-0.219
1747851475197260910,-0.216
1747851475204946777,-0.216
1747851475212632644,-0.214
1747851475220318511,-0.211
1747851475228004378,-0.209
1747851475235690245,-0.209
1747851475243376112,-0.20400000000000001
1747851475251061979,-0.20400000000000001
1747851475258747846,-0.20400000000000001
1747851475266433713,-0.201
1747851475274119580,-0.199
1747851475281805447,-0.196
1747851475289491314,-0.194
1747851475297177181,-0.192
1747851475304863048,-0.187
1747851475312548915,-0.182
1747851475320234782,-0.179
1747851475327920649,-0.179
1747851475335606516,-0.182
1747851475343292383,-0.179
1747851475350978250,-0.167
1747851475358664117,-0.152
1747851475366349984,-0.14
1747851475374035851,-0.128
1747851475381721718,-0.115
1747851475389407585,-0.115
1747851475397093452,-0.147
1747851475404779319,-0.17400000000000002
1747851475412465186,-0.169
1747851475420151053,-0.16
1747851475427836920,-0.155
1747851475435522787,-0.152
1747851475443208654,-0.147
1747851475450894521,-0.15
1747851475458580388,-0.169
1747851475466266255,-0.224
1747851475473952122,-0.27
1747851475481637989,-0.07100000000000001
1747851475489323856,0.5680000000000001
1747851475497009723,1.427
1747851475504695590,1.846
1747851475512381457,0.979
1747851475520067324,-0.514
1747851475527753191,-0.76
1747851475535439114,-0.182
1747851475543125121,-0.194
1747851475550811128,-0.359
1747851475558497135,-0.224
1747851475566183142,-0.179
1747851475573869149,-0.231
1747851475581555156,-0.187
1747851475589241163,-0.14200000000000002
1747851475596927170,-0.147
1747851475604613177,-0.128
1747851475612299184,-0.096
1747851475619985191,-0.081
1747851475627671198,-0.059000000000000004
1747851475635357205,-0.032
1747851475643043212,-0.007
1747851475650729219,0.022
1747851475658415226,0.056
1747851475666101233,0.091
1747851475673787240,0.125
1747851475681473247,0.152
1747851475689159254,0.17200000000000001
1747851475696845261,0.177
1747851475704531268,0.167
1747851475712217275,0.145
1747851475719903282,0.12
1747851475727589289,0.088
1747851475735275296,0.046
1747851475742961303,-0.004
1747851475750647310,-0.066
1747851475758333317,-0.128
1747851475766019324,-0.182
1747851475773705331,-0.224
1747851475781391338,-0.256
1747851475789077345,-0.27
1747851475796763352,-0.275
1747851475804449359,-0.273
1747851475812135366,-0.263
1747851475819821373,-0.251
1747851475827507380,-0.241
1747851475835193387,-0.233
1747851475842879394,-0.224
1747851475850565401,-0.216
1747851475858251408,-0.214
1747851475865937415,-0.211
1747851475873623422,-0.20600000000000002
1747851475881309429,-0.20400000000000001
1747851475888995436,-0.20400000000000001
1747851475896681443,-0.201
1747851475904367450,-0.201
1747851475912053457,-0.201
1747851475919739464,-0.201
1747851475927425471,-0.199
1747851475935111478,-0.199
1747851475942797485,-0.196
1747851475950483492,-0.194
1747851475958169499,-0.194
1747851475965855506,-0.194
1747851475973541513,-0.192
1747851475981227520,-0.189
1747851475988913527,-0.184
1747851475996599534,-0.182
1747851476004285541,-0.177
1747851476011971548,-0.177
1747851476019657555,-0.179
1747851476027343562,-0.179
1747851476035029569,-0.17200000000000001
1747851476042715576,-0.157
1747851476050401583,-0.14200000000000002
1747851476058087590,-0.13
1747851476065773597,-0.12
1747851476073459604,-0.113
1747851476081145611,-0.132
1747851476088831618,-0.167
1747851476096517631,-0.177,93,661
1747851476104203777,-0.164
1747851476111889923,-0.16
1747851476119576069,-0.157
1747851476127262215,-0.152
1747851476134948361,-0.15
1747851476142634507,-0.162
1747851476150320653,-0.201
1747851476158006799,-0.268
1747851476165692945,-0.20600000000000002
1747851476173379091,0.251
1747851476181065237,1.063
1747851476188751383,1.7690000000000001
1747851476196437529,1.494
1747851476204123675,0.029
1747851476211809821,-0.866
1747851476219495967,-0.41300000000000003
1747851476227182113,-0.125
1747851476234868259,-0.34400000000000003
1747851476242554405,-0.3
1747851476250240551,-0.17400000000000002
1747851476257926697,-0.226
1747851476265612843,-0.226
1747851476273298989,-0.16
1747851476280985135,-0.147
1747851476288671281,-0.147
1747851476296357427,-0.115
1747851476304043573,-0.091
1747851476311729719,-0.073
1747851476319415865,-0.049
1747851476327102011,-0.019
1747851476334788157,0.007
1747851476342474303,0.039
1747851476350160449,0.068
1747851476357846595,0.1
1747851476365532741,0.132
1747851476373218887,0.157
1747851476380905033,0.164
1747851476388591179,0.16
1747851476396277325,0.14200000000000002
1747851476403963471,0.12
1747851476411649617,0.091
1747851476419335763,0.056
1747851476427021909,0.009000000000000001
1747851476434708055,-0.041
1747851476442394201,-0.1
1747851476450080347,-0.155
1747851476457766493,-0.199
1747851476465452639,-0.241
1747851476473138785,-0.27
1747851476480824931,-0.28
1747851476488511077,-0.28
1747851476496197223,-0.273
1747851476503883369,-0.26
1747851476511569515,-0.248
1747851476519255661,-0.241
1747851476526941807,-0.233
1747851476534627953,-0.219
1747851476542314099,-0.211
1747851476550000245,-0.20600000000000002
1747851476557686391,-0.20600000000000002
1747851476565372537,-0.20400000000000001
1747851476573058683,-0.199
1747851476580744829,-0.192
1747851476588430975,-0.194
1747851476596117121,-0.201
1747851476603803267,-0.196
1747851476611489413,-0.192
1747851476619175559,-0.196
1747851476626861705,-0.196
1747851476634547851,-0.189
1747851476642233997,-0.192
1747851476649920143,-0.192
1747851476657606318,-0.182,92,679
1747851476665292046,-0.177,,682
1747851476672977774,-0.177
1747851476680663502,-0.17200000000000001
1747851476688349230,-0.17200000000000001
1747851476696034958,-0.177
1747851476703720686,-0.177
1747851476711406414,-0.169
1747851476719092142,-0.152
1747851476726777870,-0.135
1747851476734463598,-0.125
1747851476742149326,-0.115
1747851476749835054,-0.11
1747851476757520782,-0.137
1747851476765206510,-0.17400000000000002
1747851476772892238,-0.17200000000000001
1747851476780577966,-0.15
1747851476788263694,-0.15
1747851476795949422,-0.152
1747851476803635150,-0.14200000000000002
1747851476811320878,-0.137
1747851476819006606,-0.162
1747851476826692334,-0.20600000000000002
1747851476834378062,-0.258
1747851476842063790,-0.16
1747851476849749518,0.361
1747851476857435246,1.184
1747851476865120974,1.7550000000000001
1747851476872806702,1.2530000000000001
1747851476880492430,-0.201
1747851476888178158,-0.8320000000000001
1747851476895863886,-0.302
1747851476903549614,-0.125
1747851476911235342,-0.334
1747851476918921070,-0.248
1747851476926606798,-0.16
1747851476934292526,-0.216
1747851476941978254,-0.192
1747851476949663982,-0.132
1747851476957349710,-0.135
1747851476965035438,-0.12
1747851476972721166,-0.081
1747851476980406894,-0.064
1747851476988092622,-0.051000000000000004
1747851476995778350,-0.024
1747851477003464078,0.004
1747851477011149806,0.027
1747851477018835534,0.054
1747851477026521262,0.093
1747851477034206990,0.13
1747851477041892718,0.16
1747851477049578446,0.179
1747851477057264174,0.192
1747851477064949902,0.187
1747851477072635630,0.162
1747851477080321358,0.132
1747851477088007086,0.1
1747851477095692814,0.061
1747851477103378542,0.012
1747851477111064270,-0.044
1747851477118749998,-0.108
1747851477126435726,-0.167
1747851477134121454,-0.211
1747851477141807182,-0.246
1747851477149492910,-0.27
1747851477157178638,-0.275
1747851477164864366,-0.268
1747851477172550094,-0.265
1747851477180235822,-0.263
1747851477187921550,-0.253
1747851477195607278,-0.23800000000000002
1747851477203293006,-0.228
1747851477210978734,-0.221
1747851477218664491,-0.216
1747851477226350498,-0.211
1747851477234036505,-0.20600000000000002
1747851477241722512,-0.199
1747851477249408519,-0.199
1747851477257094526,-0.20400000000000001
1747851477264780533,-0.199
1747851477272466540,-0.199
1747851477280152547,-0.199
1747851477287838554,-0.196
1747851477295524561,-0.199
1747851477303210568,-0.20400000000000001
