time,ecg,hr,rr,marker
1747683005251447482,-0.069
1747683005259133767,-0.074
1747683005266820052,-0.08600000000000001
1747683005274506337,-0.08600000000000001
1747683005282192622,-0.074
1747683005289878907,-0.061
1747683005297565192,-0.056
1747683005305251477,-0.056
1747683005312937762,-0.042
1747683005320624047,-0.014
1747683005328310332,-0.019
1747683005335996617,-0.061
1747683005343682902,-0.074
1747683005351369187,-0.061
1747683005359055472,-0.059000000000000004
1747683005366741757,-0.056
1747683005374428042,-0.051000000000000004
1747683005382114327,-0.054
1747683005389800612,-0.061
1747683005397486897,-0.069
1747683005405173182,0.022
1747683005412859467,0.398
1747683005420545752,0.794
1747683005428232037,0.5760000000000001
1747683005435918322,-0.123
1747683005443604607,-0.465
1747683005451290892,-0.304
1747683005458977177,-0.19
1747683005466663462,-0.188
1747683005474349747,-0.106
1747683005482036032,-0.049
1747683005489722317,-0.051000000000000004
1747683005497408602,-0.034
1747683005505094887,-0.024
1747683005512781172,-0.029
1747683005520467457,-0.007
1747683005528153742,0.007
1747683005535840027,-0.022
1747683005543526312,-0.032
1747683005551212597,0.004
1747683005558898882,0.014
1747683005566585167,-0.014
1747683005574271452,-0.007
1747683005581957737,0.019
1747683005589644022,0.014
1747683005597330307,0.014
1747683005605016592,0.032
1747683005612702877,0.047
1747683005620389162,0.051000000000000004
1747683005628075447,0.042
1747683005635761732,0.039
1747683005643448017,0.066
1747683005651134302,0.074
1747683005658820587,0.039
1747683005666506872,0.029
1747683005674193157,0.069
1747683005681879442,0.07100000000000001
1747683005689565727,0.032
1747683005697252012,0.037
1747683005704938297,0.047
1747683005712624582,0.002
1747683005720310867,-0.044
1747683005727997152,-0.047
1747683005735683437,-0.074
1747683005743369722,-0.128
1747683005751056007,-0.123
1747683005758742292,-0.081
1747683005766428577,-0.079
1747683005774114862,-0.108
1747683005781801147,-0.108
1747683005789487432,-0.079
1747683005797173717,-0.08600000000000001
1747683005804860002,-0.10300000000000001
1747683005812546343,-0.081,86,646
1747683005820233046,-0.076
1747683005827919749,-0.076
1747683005835606452,-0.061
1747683005843293155,-0.089
1747683005850979858,-0.108
1747683005858666561,-0.07100000000000001
1747683005866353264,-0.051000000000000004
1747683005874039967,-0.091
1747683005881726670,-0.111
1747683005889413373,-0.081
1747683005897100076,-0.089
1747683005904786779,-0.10300000000000001
1747683005912473482,-0.079
1747683005920160185,-0.066
1747683005927846888,-0.084
1747683005935533591,-0.091
1747683005943220294,-0.096
1747683005950906997,-0.094
1747683005958593700,-0.074
1747683005966280403,-0.032
1747683005973967106,-0.012
1747683005981653809,-0.047
1747683005989340512,-0.084
1747683005997027215,-0.059000000000000004
1747683006004713918,-0.029
1747683006012400621,-0.061
1747683006020087324,-0.08600000000000001
1747683006027774027,-0.049
1747683006035460730,-0.047
1747683006043147433,-0.07100000000000001
1747683006050834136,-0.051000000000000004
1747683006058520839,-0.019
1747683006066207542,0.111
1747683006073894245,0.529
1747683006081580948,0.799
1747683006089267651,0.356
1747683006096954354,-0.306
1747683006104641057,-0.455
1747683006112327760,-0.277
1747683006120014463,-0.195
1747683006127701166,-0.155
1747683006135387869,-0.069
1747683006143074572,-0.024
1747683006150761275,-0.042
1747683006158447978,-0.044
1747683006166134681,-0.019
1747683006173821384,-0.007
1747683006181508087,0.0
1747683006189194790,-0.007
1747683006196881493,-0.017
1747683006204568196,-0.002
1747683006212254899,0.012
1747683006219941602,0.002
1747683006227628305,0.007
1747683006235315008,0.034
1747683006243001711,0.034
1747683006250688414,0.017
1747683006258375117,0.027
1747683006266061820,0.056
1747683006273748523,0.064
1747683006281435226,0.049
1747683006289121929,0.064
1747683006296808632,0.091
1747683006304495335,0.076
1747683006312182038,0.049
1747683006319868741,0.074
1747683006327555444,0.10300000000000001
1747683006335242147,0.074
1747683006342928850,0.044
1747683006350615553,0.061
1747683006358302256,0.051000000000000004
1747683006365988959,0.007
1747683006373675722,-0.012
1747683006381362425,-0.029
1747683006389049128,-0.074
1747683006396735831,-0.096
1747683006404422534,-0.089
1747683006412109237,-0.094
1747683006419795940,-0.113
1747683006427482643,-0.116
1747683006435169346,-0.098
1747683006442856049,-0.081
1747683006450542752,-0.089
1747683006458229455,-0.096
1747683006465916158,-0.079
1747683006473602861,-0.081
1747683006481289564,-0.098
1747683006488976267,-0.089
1747683006496662970,-0.081
1747683006504349673,-0.08600000000000001
1747683006512036376,-0.07100000000000001
1747683006519723079,-0.064
1747683006527409782,-0.091
1747683006535096485,-0.10300000000000001
1747683006542783188,-0.096
1747683006550469891,-0.10300000000000001
1747683006558156594,-0.08600000000000001
1747683006565843297,-0.042
1747683006573530000,-0.044
1747683006581216703,-0.094
1747683006588903406,-0.106
1747683006596590109,-0.074
1747683006604276812,-0.07100000000000001
1747683006611963515,-0.076
1747683006619650218,-0.054
1747683006627336921,-0.049
1747683006635023624,-0.049
1747683006642710327,-0.034
1747683006650397030,-0.059000000000000004
1747683006658083733,-0.091
1747683006665770436,-0.074
1747683006673457139,-0.064
1747683006681143842,-0.081
1747683006688830545,-0.074
1747683006696517248,-0.061
1747683006704203951,-0.074
1747683006711890654,-0.084
1747683006719577357,-0.054
1747683006727264060,0.17300000000000001
1747683006734950763,0.618
1747683006742637466,0.749
1747683006750324169,0.20700000000000002
1747683006758010872,-0.398
1747683006765697575,-0.447
1747683006773384278,-0.249
1747683006781070981,-0.20700000000000002
1747683006788757684,-0.163
1747683006796444387,-0.049
1747683006804131090,-0.029
1747683006811817793,-0.056
1747683006819504496,-0.032
1747683006827191199,-0.012
1747683006834877902,-0.034
1747683006842564605,-0.027
1747683006850251308,-0.004
1747683006857938011,-0.004
1747683006865624714,-0.004
1747683006873311417,0.004
1747683006880998120,0.004
1747683006888684823,0.002
1747683006896371526,0.007
1747683006904058229,0.012
1747683006911744932,0.024
1747683006919431635,0.039
1747683006927118338,0.027
1747683006934805105,0.022,87,649
1747683006942491460,0.051000000000000004,,652
1747683006950177815,0.056
1747683006957864170,0.037
1747683006965550525,0.054
1747683006973236880,0.066
1747683006980923235,0.051000000000000004
1747683006988609590,0.054
1747683006996295945,0.064
1747683007003982300,0.051000000000000004
1747683007011668655,0.042
1747683007019355010,0.039
1747683007027041365,0.019
1747683007034727720,-0.022
1747683007042414075,-0.059000000000000004
1747683007050100430,-0.076
1747683007057786785,-0.091
1747683007065473140,-0.111
1747683007073159495,-0.11800000000000001
1747683007080845850,-0.116
1747683007088532205,-0.123
1747683007096218560,-0.113
1747683007103904915,-0.091
1747683007111591270,-0.091
1747683007119277625,-0.08600000000000001
1747683007126963980,-0.084
1747683007134650335,-0.096
1747683007142336690,-0.111
1747683007150023045,-0.111
1747683007157709400,-0.091
1747683007165395755,-0.079
1747683007173082110,-0.096
1747683007180768465,-0.10300000000000001
1747683007188454820,-0.096
1747683007196141175,-0.111
1747683007203827530,-0.113
1747683007211513885,-0.089
1747683007219200240,-0.091
1747683007226886595,-0.108
1747683007234572950,-0.098
1747683007242259305,-0.10300000000000001
1747683007249945660,-0.126
1747683007257632015,-0.106
1747683007265318370,-0.08600000000000001
1747683007273004725,-0.096
1747683007280691080,-0.076
1747683007288377435,-0.044
1747683007296063790,-0.047
1747683007303750145,-0.061
1747683007311436500,-0.079
1747683007319122855,-0.08600000000000001
1747683007326809210,-0.07100000000000001
1747683007334495565,-0.07100000000000001
1747683007342181920,-0.084
1747683007349868275,-0.074
1747683007357554630,-0.061
1747683007365240985,-0.074
1747683007372927340,-0.089
1747683007380613695,-0.007
1747683007388300050,0.326
1747683007395986405,0.717
1747683007403672760,0.588
1747683007411359115,-0.056
1747683007419045470,-0.457
1747683007426731825,-0.35100000000000003
1747683007434418180,-0.217
1747683007442104535,-0.202
1747683007449790890,-0.111
1747683007457477245,-0.032
1747683007465163600,-0.054
1747683007472849955,-0.064
1747683007480536310,-0.029
1747683007488222665,-0.017
1747683007495909053,-0.024
1747683007503595687,-0.017
1747683007511282321,-0.012
1747683007518968955,-0.014
1747683007526655589,-0.004
1747683007534342223,0.0
1747683007542028857,0.0
1747683007549715491,0.004
1747683007557402125,0.012
1747683007565088759,0.004
1747683007572775393,0.0
1747683007580462027,0.019
1747683007588148661,0.032
1747683007595835295,0.029
1747683007603521929,0.039
1747683007611208563,0.047
1747683007618895197,0.039
1747683007626581831,0.039
1747683007634268465,0.051000000000000004
1747683007641955099,0.061
1747683007649641733,0.056
1747683007657328367,0.044
1747683007665015001,0.037
1747683007672701635,0.034
1747683007680388269,0.017
1747683007688074903,-0.012
1747683007695761537,-0.049
1747683007703448171,-0.079
1747683007711134805,-0.094
1747683007718821439,-0.113
1747683007726508073,-0.133
1747683007734194707,-0.128
1747683007741881341,-0.11800000000000001
1747683007749567975,-0.113
1747683007757254609,-0.108
1747683007764941243,-0.113
1747683007772627877,-0.106
1747683007780314511,-0.094
1747683007788001145,-0.098
1747683007795687779,-0.094
1747683007803374413,-0.076
1747683007811061047,-0.081
1747683007818747681,-0.101
1747683007826434315,-0.10300000000000001
1747683007834120949,-0.096
1747683007841807583,-0.08600000000000001
1747683007849494217,-0.101
1747683007857180851,-0.113
1747683007864867485,-0.10300000000000001
1747683007872554119,-0.101
1747683007880240753,-0.101
1747683007887927387,-0.098
1747683007895614021,-0.108
1747683007903300655,-0.11800000000000001
1747683007910987289,-0.113
1747683007918673923,-0.10300000000000001
1747683007926360557,-0.094
1747683007934047191,-0.07100000000000001
1747683007941733825,-0.056
1747683007949420459,-0.066
1747683007957107093,-0.076
1747683007964793727,-0.084
1747683007972480361,-0.089
1747683007980166995,-0.091
1747683007987853629,-0.08600000000000001
1747683007995540263,-0.084
1747683008003226897,-0.101
1747683008010913531,-0.11800000000000001
1747683008018600165,-0.11800000000000001
1747683008026286799,-0.108
1747683008033973433,-0.047
1747683008041660067,0.212
1747683008049346701,0.62
1747683008057033345,0.66,88,659
1747683008064720048,0.081
1747683008072406751,-0.452
1747683008080093454,-0.43
1747683008087780157,-0.262
1747683008095466860,-0.247
1747683008103153563,-0.178
1747683008110840266,-0.051000000000000004
1747683008118526969,-0.039
1747683008126213672,-0.066
1747683008133900375,-0.044
1747683008141587078,-0.019
1747683008149273781,-0.024
1747683008156960484,-0.034
1747683008164647187,-0.027
1747683008172333890,-0.024
1747683008180020593,-0.029
1747683008187707296,-0.022
1747683008195393999,-0.017
1747683008203080702,-0.007
1747683008210767405,0.009000000000000001
1747683008218454108,0.004
1747683008226140811,-0.004
1747683008233827514,0.0
1747683008241514217,0.004
1747683008249200920,0.012
1747683008256887623,0.032
1747683008264574326,0.051000000000000004
1747683008272261029,0.047
1747683008279947732,0.032
1747683008287634435,0.027
1747683008295321138,0.037
1747683008303007841,0.049
1747683008310694544,0.032
1747683008318381247,0.014
1747683008326067950,0.029
1747683008333754653,0.024
1747683008341441356,-0.027
1747683008349128059,-0.061
1747683008356814762,-0.079
1747683008364501465,-0.113
1747683008372188168,-0.138
1747683008379874871,-0.128
1747683008387561574,-0.111
1747683008395248277,-0.106
1747683008402934980,-0.131
1747683008410621683,-0.14100000000000001
1747683008418308386,-0.08600000000000001
1747683008425995089,-0.061
1747683008433681792,-0.10300000000000001
1747683008441368495,-0.111
1747683008449055198,-0.098
1747683008456741901,-0.116
1747683008464428604,-0.11800000000000001
1747683008472115307,-0.098
1747683008479802010,-0.106
1747683008487488713,-0.121
1747683008495175416,-0.126
1747683008502862119,-0.106
1747683008510548822,-0.084
1747683008518235525,-0.11800000000000001
1747683008525922228,-0.148
1747683008533608931,-0.108
1747683008541295634,-0.101
1747683008548982337,-0.165
1747683008556669040,-0.158
1747683008564355743,-0.079
1747683008572042446,-0.089
1747683008579729149,-0.15
1747683008587415852,-0.11800000000000001
1747683008595102555,-0.069
1747683008602789258,-0.076
1747683008610475961,-0.084
1747683008618162724,-0.08600000000000001
1747683008625849427,-0.101
1747683008633536130,-0.10300000000000001
1747683008641222833,-0.106
1747683008648909536,-0.10300000000000001
1747683008656596239,-0.08600000000000001
1747683008664282942,-0.076
1747683008671969645,-0.081
1747683008679656348,-0.11800000000000001
1747683008687343051,-0.138
1747683008695029754,0.069
1747683008702716457,0.47900000000000004
1747683008710403160,0.596
1747683008718089863,0.183
1747683008725776566,-0.267
1747683008733463269,-0.331
1747683008741149972,-0.23500000000000001
1747683008748836675,-0.217
1747683008756523378,-0.17
1747683008764210081,-0.074
1747683008771896784,-0.042
1747683008779583487,-0.066
1747683008787270190,-0.07100000000000001
1747683008794956893,-0.061
1747683008802643596,-0.032
1747683008810330299,0.004
1747683008818017002,-0.017
1747683008825703705,-0.056
1747683008833390408,-0.032
1747683008841077111,-0.004
1747683008848763814,-0.017
1747683008856450517,-0.039
1747683008864137220,-0.042
1747683008871823923,0.009000000000000001
1747683008879510626,0.047
1747683008887197329,0.017
1747683008894884032,0.012
1747683008902570735,0.027
1747683008910257438,0.022
1747683008917944141,0.022
1747683008925630844,0.032
1747683008933317547,0.044
1747683008941004250,0.051000000000000004
1747683008948690953,0.051000000000000004
1747683008956377656,0.056
1747683008964064359,0.047
1747683008971751062,0.029
1747683008979437765,0.022
1747683008987124468,0.004
1747683008994811171,-0.009000000000000001
1747683009002497874,-0.017
1747683009010184577,-0.042
1747683009017871280,-0.08600000000000001
1747683009025557983,-0.108
1747683009033244686,-0.101
1747683009040931389,-0.111
1747683009048618092,-0.131
1747683009056304795,-0.113
1747683009063991498,-0.08600000000000001
1747683009071678201,-0.096
1747683009079364904,-0.096
1747683009087051607,-0.059000000000000004
1747683009094738310,-0.066
1747683009102425013,-0.108
1747683009110111716,-0.10300000000000001
1747683009117798419,-0.094
1747683009125485122,-0.11800000000000001
1747683009133171825,-0.101
1747683009140858528,-0.056
1747683009148545231,-0.081
1747683009156231934,-0.121
1747683009163918637,-0.113
1747683009171605340,-0.096
1747683009179292103,-0.108,89,659
1747683009186978806,-0.11800000000000001,,658
1747683009194665509,-0.106
1747683009202352212,-0.098
1747683009210038915,-0.108
1747683009217725618,-0.101
1747683009225412321,-0.079
1747683009233099024,-0.07100000000000001
1747683009240785727,-0.061
1747683009248472430,-0.051000000000000004
1747683009256159133,-0.066
1747683009263845836,-0.084
1747683009271532539,-0.081
1747683009279219242,-0.081
1747683009286905945,-0.08600000000000001
1747683009294592648,-0.084
1747683009302279351,-0.079
1747683009309966054,-0.094
1747683009317652757,-0.116
1747683009325339460,-0.101
1747683009333026163,-0.074
1747683009340712866,0.0
1747683009348399569,0.254
1747683009356086272,0.539
1747683009363772975,0.383
1747683009371459678,-0.14300000000000002
1747683009379146381,-0.423
1747683009386833084,-0.321
1747683009394519787,-0.227
1747683009402206490,-0.21
1747683009409893193,-0.11800000000000001
1747683009417579896,-0.032
1747683009425266599,-0.037
1747683009432953302,-0.051000000000000004
1747683009440640005,-0.047
1747683009448326708,-0.032
1747683009456013411,-0.027
1747683009463700114,-0.039
1747683009471386817,-0.024
1747683009479073520,0.012
1747683009486760223,0.017
1747683009494446926,0.002
1747683009502133629,0.007
1747683009509820332,0.009000000000000001
1747683009517507035,0.009000000000000001
1747683009525193738,0.004
1747683009532880441,0.0
1747683009540567144,0.019
1747683009548253847,0.037
1747683009555940550,0.034
1747683009563627253,0.039
1747683009571313956,0.051000000000000004
1747683009579000659,0.064
1747683009586687362,0.07100000000000001
1747683009594374065,0.051000000000000004
1747683009602060768,0.024
1747683009609747471,0.029
1747683009617434174,0.047
1747683009625120877,0.051000000000000004
1747683009632807580,0.034
1747683009640494283,-0.002
1747683009648180986,-0.034
1747683009655867689,-0.044
1747683009663554392,-0.054
1747683009671241095,-0.091
1747683009678927798,-0.136
1747683009686614501,-0.133
1747683009694301204,-0.106
1747683009701987907,-0.113
1747683009709674610,-0.128
1747683009717361313,-0.111
1747683009725048016,-0.096
1747683009732734719,-0.098
1747683009740421482,-0.101,89,655
1747683009748108185,-0.101
1747683009755794888,-0.106
1747683009763481591,-0.094
1747683009771168294,-0.094
1747683009778854997,-0.111
1747683009786541700,-0.111
1747683009794228403,-0.106
1747683009801915106,-0.116
1747683009809601809,-0.113
1747683009817288512,-0.096
1747683009824975215,-0.098
1747683009832661918,-0.11800000000000001
1747683009840348621,-0.113
1747683009848035324,-0.096
1747683009855722027,-0.116
1747683009863408730,-0.138
1747683009871095433,-0.126
1747683009878782136,-0.113
1747683009886468839,-0.10300000000000001
1747683009894155542,-0.089
1747683009901842245,-0.096
1747683009909528948,-0.094
1747683009917215651,-0.084
1747683009924902354,-0.098
1747683009932589057,-0.11800000000000001
1747683009940275760,-0.106
1747683009947962463,-0.106
1747683009955649166,-0.126
1747683009963335869,-0.121
1747683009971022572,-0.10300000000000001
1747683009978709275,-0.113
1747683009986395978,-0.113
1747683009994082681,-0.08600000000000001
1747683010001769384,0.037
1747683010009456087,0.324
1747683010017142790,0.457
1747683010024829493,0.10300000000000001
1747683010032516196,-0.338
1747683010040202899,-0.39
1747683010047889602,-0.257
1747683010055576305,-0.23
1747683010063263008,-0.185
1747683010070949711,-0.07100000000000001
1747683010078636414,-0.044
1747683010086323117,-0.076
1747683010094009820,-0.059000000000000004
1747683010101696523,-0.037
1747683010109383226,-0.044
1747683010117069929,-0.047
1747683010124756632,-0.032
1747683010132443335,-0.009000000000000001
1747683010140130038,-0.004
1747683010147816741,-0.017
1747683010155503444,-0.014
1747683010163190147,-0.004
1747683010170876850,-0.007
1747683010178563553,-0.012
1747683010186250256,-0.004
1747683010193936959,0.004
1747683010201623662,0.004
1747683010209310365,0.009000000000000001
1747683010216997068,0.034
1747683010224683771,0.047
1747683010232370474,0.034
1747683010240057177,0.027
1747683010247743880,0.037
1747683010255430583,0.039
1747683010263117286,0.032
1747683010270803989,0.029
1747683010278490692,0.044
1747683010286177395,0.044
1747683010293864098,0.007
1747683010301550865,-0.022
1747683010309237220,-0.029
1747683010316923575,-0.059000000000000004
1747683010324609930,-0.108
1747683010332296285,-0.133
1747683010339982640,-0.126
1747683010347668995,-0.11800000000000001
1747683010355355350,-0.136
1747683010363041705,-0.148
1747683010370728060,-0.14100000000000001
1747683010378414415,-0.128
1747683010386100770,-0.111
1747683010393787125,-0.113
1747683010401473480,-0.128
1747683010409159835,-0.131
1747683010416846190,-0.126
1747683010424532545,-0.11800000000000001
1747683010432218900,-0.121
1747683010439905255,-0.133
1747683010447591610,-0.15
1747683010455277965,-0.148
1747683010462964320,-0.128
1747683010470650675,-0.108
1747683010478337030,-0.116
1747683010486023385,-0.14300000000000002
1747683010493709740,-0.15
1747683010501396095,-0.14300000000000002
1747683010509082450,-0.14300000000000002
1747683010516768805,-0.14300000000000002
1747683010524455160,-0.145
1747683010532141515,-0.133
1747683010539827870,-0.108
1747683010547514225,-0.094
1747683010555200580,-0.08600000000000001
1747683010562886935,-0.08600000000000001
1747683010570573290,-0.116
1747683010578259645,-0.14100000000000001
1747683010585946000,-0.131
1747683010593632355,-0.126
1747683010601318710,-0.131
1747683010609005065,-0.113
1747683010616691420,-0.108
1747683010624377775,-0.136
1747683010632064130,-0.136
1747683010639750485,-0.094
1747683010647436840,0.024
1747683010655123195,0.306
1747683010662809550,0.502
1747683010670495905,0.215
1747683010678182260,-0.28600000000000003
1747683010685868615,-0.445
1747683010693554970,-0.311
1747683010701241325,-0.254
1747683010708927680,-0.242
1747683010716614035,-0.138
1747683010724300390,-0.084
1747683010731986745,-0.089
1747683010739673100,-0.061
1747683010747359455,-0.049
1747683010755045810,-0.059000000000000004
1747683010762732165,-0.047
1747683010770418520,-0.037
1747683010778104875,-0.044
1747683010785791230,-0.054
1747683010793477585,-0.051000000000000004
1747683010801163940,-0.044
1747683010808850295,-0.047
1747683010816536650,-0.047
1747683010824223005,-0.027
1747683010831909360,-0.017
1747683010839595715,-0.022
1747683010847282070,-0.012
1747683010854968425,0.004
1747683010862654813,0.014,90,654
1747683010870341447,0.017,,649
1747683010878028081,0.004
1747683010885714715,0.007
1747683010893401349,0.032
1747683010901087983,0.039
1747683010908774617,0.029
1747683010916461251,0.047
1747683010924147885,0.051000000000000004
1747683010931834519,0.019
1747683010939521153,0.0
1747683010947207787,-0.012
1747683010954894421,-0.056
1747683010962581055,-0.089
1747683010970267689,-0.101
1747683010977954323,-0.133
1747683010985640957,-0.155
1747683010993327591,-0.131
1747683011001014225,-0.116
1747683011008700859,-0.14100000000000001
1747683011016387493,-0.163
1747683011024074127,-0.138
1747683011031760761,-0.10300000000000001
1747683011039447395,-0.10300000000000001
1747683011047134029,-0.123
1747683011054820663,-0.123
1747683011062507297,-0.113
1747683011070193931,-0.101
1747683011077880565,-0.084
1747683011085567199,-0.10300000000000001
1747683011093253833,-0.133
1747683011100940467,-0.11800000000000001
1747683011108627101,-0.098
1747683011116313735,-0.10300000000000001
1747683011124000369,-0.11800000000000001
1747683011131687003,-0.123
1747683011139373637,-0.094
1747683011147060271,-0.076
1747683011154746905,-0.113
1747683011162433539,-0.14300000000000002
1747683011170120173,-0.128
1747683011177806807,-0.108
1747683011185493441,-0.096
1747683011193180075,-0.081
1747683011200866709,-0.076
1747683011208553343,-0.064
1747683011216239977,-0.061
1747683011223926611,-0.079
1747683011231613245,-0.094
1747683011239299879,-0.089
1747683011246986513,-0.091
1747683011254673147,-0.106
1747683011262359781,-0.098
1747683011270046415,-0.074
1747683011277733049,-0.074
1747683011285419683,-0.098
1747683011293106317,-0.096
1747683011300792951,0.024
1747683011308479585,0.331
1747683011316166219,0.549
1747683011323852853,0.301
1747683011331539487,-0.188
1747683011339226121,-0.39
1747683011346912755,-0.279
1747683011354599389,-0.195
1747683011362286023,-0.17500000000000002
1747683011369972657,-0.106
1747683011377659291,-0.059000000000000004
1747683011385345925,-0.066
1747683011393032559,-0.061
1747683011400719193,-0.049
1747683011408405827,-0.047
1747683011416092461,-0.042
1747683011423779105,-0.044
1747683011431465808,-0.049
1747683011439152511,-0.037
1747683011446839214,-0.022
1747683011454525917,-0.014
1747683011462212620,-0.019
1747683011469899323,-0.024
1747683011477586026,-0.022
1747683011485272729,-0.014
1747683011492959432,-0.014
1747683011500646135,-0.012
1747683011508332838,-0.002
1747683011516019541,0.007
1747683011523706244,0.012
1747683011531392947,0.019
1747683011539079650,0.029
1747683011546766353,0.034
1747683011554453056,0.027
1747683011562139759,0.037
1747683011569826462,0.042
1747683011577513165,0.017
1747683011585199868,0.007
1747683011592886571,0.009000000000000001
1747683011600573274,-0.007
1747683011608259977,-0.034
1747683011615946680,-0.066
1747683011623633383,-0.096
1747683011631320086,-0.111
1747683011639006789,-0.11800000000000001
1747683011646693492,-0.138
1747683011654380195,-0.138
1747683011662066898,-0.113
1747683011669753601,-0.108
1747683011677440304,-0.126
1747683011685127007,-0.123
1747683011692813710,-0.108
1747683011700500413,-0.101
1747683011708187116,-0.106
1747683011715873819,-0.116
1747683011723560522,-0.108
1747683011731247225,-0.08600000000000001
1747683011738933928,-0.084
1747683011746620631,-0.101
1747683011754307334,-0.123
1747683011761994037,-0.123
1747683011769680740,-0.101
1747683011777367443,-0.106
1747683011785054146,-0.126
1747683011792740849,-0.116
1747683011800427552,-0.089
1747683011808114255,-0.084
1747683011815800958,-0.101
1747683011823487661,-0.116
1747683011831174364,-0.108
1747683011838861067,-0.096
1747683011846547770,-0.106
1747683011854234473,-0.108
1747683011861921176,-0.089
1747683011869607879,-0.076
1747683011877294582,-0.074
1747683011884981285,-0.069
1747683011892667988,-0.081
1747683011900354691,-0.094
1747683011908041394,-0.094
1747683011915728097,-0.101
1747683011923414800,-0.106
1747683011931101503,-0.094
1747683011938788206,-0.091
1747683011946474909,-0.106
1747683011954161612,-0.10300000000000001
1747683011961848315,-0.081
1747683011969535018,0.032
1747683011977221721,0.343
1747683011984908484,0.5730000000000001,90,657
1747683011992595187,0.296
1747683012000281890,-0.242
1747683012007968593,-0.437
1747683012015655296,-0.28600000000000003
1747683012023341999,-0.185
1747683012031028702,-0.165
1747683012038715405,-0.098
1747683012046402108,-0.074
1747683012054088811,-0.10300000000000001
1747683012061775514,-0.084
1747683012069462217,-0.044
1747683012077148920,-0.049
1747683012084835623,-0.074
1747683012092522326,-0.061
1747683012100209029,-0.032
1747683012107895732,-0.042
1747683012115582435,-0.061
1747683012123269138,-0.039
1747683012130955841,-0.027
1747683012138642544,-0.044
1747683012146329247,-0.051000000000000004
1747683012154015950,-0.051000000000000004
1747683012161702653,-0.042
1747683012169389356,-0.019
1747683012177076059,-0.004
1747683012184762762,0.012
1747683012192449465,0.024
1747683012200136168,0.019
1747683012207822871,0.027
1747683012215509574,0.037
1747683012223196277,0.027
1747683012230882980,0.019
1747683012238569683,0.027
1747683012246256386,0.032
1747683012253943089,0.027
1747683012261629792,0.014
1747683012269316495,-0.012
1747683012277003198,-0.051000000000000004
1747683012284689901,-0.08600000000000001
1747683012292376604,-0.11800000000000001
1747683012300063307,-0.138
1747683012307750010,-0.14100000000000001
1747683012315436713,-0.14300000000000002
1747683012323123416,-0.14300000000000002
1747683012330810119,-0.14300000000000002
1747683012338496822,-0.14100000000000001
1747683012346183525,-0.133
1747683012353870228,-0.136
1747683012361556931,-0.14100000000000001
1747683012369243634,-0.136
1747683012376930337,-0.128
1747683012384617040,-0.131
1747683012392303743,-0.138
1747683012399990446,-0.131
1747683012407677149,-0.121
1747683012415363852,-0.123
1747683012423050555,-0.133
1747683012430737258,-0.14300000000000002
1747683012438423961,-0.131
1747683012446110664,-0.106
1747683012453797367,-0.111
1747683012461484070,-0.123
1747683012469170773,-0.126
1747683012476857476,-0.138
1747683012484544179,-0.138
1747683012492230882,-0.11800000000000001
1747683012499917585,-0.116
1747683012507604288,-0.123
1747683012515290991,-0.108
1747683012522977694,-0.091
1747683012530664397,-0.094
1747683012538351100,-0.091
1747683012546037863,-0.081
1747683012553724566,-0.084
1747683012561411269,-0.101
1747683012569097972,-0.116
1747683012576784675,-0.108
1747683012584471378,-0.091
1747683012592158081,-0.08600000000000001
1747683012599844784,-0.096
1747683012607531487,-0.111
1747683012615218190,-0.11800000000000001
1747683012622904893,-0.121
1747683012630591596,-0.126
1747683012638278299,-0.024
1747683012645965002,0.301
1747683012653651705,0.5760000000000001
1747683012661338408,0.329
1747683012669025111,-0.242
1747683012676711814,-0.47700000000000004
1747683012684398517,-0.319
1747683012692085220,-0.22
1747683012699771923,-0.217
1747683012707458626,-0.126
1747683012715145329,-0.064
1747683012722832032,-0.091
1747683012730518735,-0.076
1747683012738205438,-0.047
1747683012745892141,-0.056
1747683012753578844,-0.056
1747683012761265547,-0.037
1747683012768952250,-0.034
1747683012776638953,-0.042
1747683012784325656,-0.042
1747683012792012359,-0.039
1747683012799699062,-0.034
1747683012807385765,-0.034
1747683012815072468,-0.032
1747683012822759171,-0.017
1747683012830445874,0.0
1747683012838132577,-0.002
1747683012845819280,-0.002
1747683012853505983,0.007
1747683012861192686,0.019
1747683012868879389,0.042
1747683012876566092,0.061
1747683012884252795,0.056
1747683012891939498,0.042
1747683012899626201,0.042
1747683012907312904,0.054
1747683012914999607,0.061
1747683012922686310,0.042
1747683012930373013,0.007
1747683012938059716,-0.004
1747683012945746419,-0.014
1747683012953433122,-0.061
1747683012961119825,-0.108
1747683012968806528,-0.11800000000000001
1747683012976493231,-0.128
1747683012984179934,-0.15
1747683012991866637,-0.14300000000000002
1747683012999553340,-0.131
1747683013007240043,-0.14300000000000002
1747683013014926746,-0.145
1747683013022613449,-0.126
1747683013030300152,-0.113
1747683013037986855,-0.121
1747683013045673558,-0.126
1747683013053360261,-0.111
1747683013061046964,-0.10300000000000001
1747683013068733667,-0.111
1747683013076420370,-0.106
1747683013084107073,-0.094
1747683013091793776,-0.096
1747683013099480479,-0.101
1747683013107167242,-0.108,91,647
1747683013114853945,-0.111,,654
1747683013122540648,-0.10300000000000001
1747683013130227351,-0.11800000000000001
1747683013137914054,-0.131
1747683013145600757,-0.113
1747683013153287460,-0.094
1747683013160974163,-0.096
1747683013168660866,-0.101
1747683013176347569,-0.101
1747683013184034272,-0.116
1747683013191720975,-0.123
1747683013199407678,-0.11800000000000001
1747683013207094381,-0.121
1747683013214781084,-0.113
1747683013222467787,-0.084
1747683013230154490,-0.07100000000000001
1747683013237841193,-0.059000000000000004
1747683013245527896,-0.047
1747683013253214599,-0.076
1747683013260901302,-0.106
1747683013268588005,-0.091
1747683013276274708,-0.091
1747683013283961411,-0.113
1747683013291648114,-0.106
1747683013299334817,-0.081
1747683013307021520,-0.084
1747683013314708223,-0.111
1747683013322394926,-0.094
1747683013330081629,0.094
1747683013337768332,0.457
1747683013345455035,0.5660000000000001
1747683013353141738,0.116
1747683013360828441,-0.385
1747683013368515144,-0.425
1747683013376201847,-0.264
1747683013383888550,-0.227
1747683013391575253,-0.17500000000000002
1747683013399261956,-0.076
1747683013406948659,-0.066
1747683013414635362,-0.079
1747683013422322065,-0.051000000000000004
1747683013430008768,-0.051000000000000004
1747683013437695471,-0.066
1747683013445382174,-0.051000000000000004
1747683013453068877,-0.042
1747683013460755580,-0.049
1747683013468442283,-0.037
1747683013476128986,-0.022
1747683013483815689,-0.019
1747683013491502392,-0.019
1747683013499189095,-0.027
1747683013506875798,-0.032
1747683013514562501,-0.024
1747683013522249204,-0.022
1747683013529935907,-0.014
1747683013537622610,0.007
1747683013545309313,0.024
1747683013552996016,0.027
1747683013560682719,0.034
1747683013568369422,0.047
1747683013576056125,0.051000000000000004
1747683013583742828,0.056
1747683013591429531,0.047
1747683013599116234,0.029
1747683013606802937,0.029
1747683013614489640,0.029
1747683013622176343,0.012
1747683013629863046,-0.012
1747683013637549749,-0.044
1747683013645236452,-0.074
1747683013652923155,-0.091
1747683013660609858,-0.108
1747683013668296621,-0.123,91,669
1747683013675983324,-0.128
1747683013683670027,-0.133
1747683013691356730,-0.131
1747683013699043433,-0.138
1747683013706730136,-0.15
1747683013714416839,-0.138
1747683013722103542,-0.128
1747683013729790245,-0.131
1747683013737476948,-0.11800000000000001
1747683013745163651,-0.101
1747683013752850354,-0.101
1747683013760537057,-0.101
1747683013768223760,-0.106
1747683013775910463,-0.116
1747683013783597166,-0.111
1747683013791283869,-0.101
1747683013798970572,-0.106
1747683013806657275,-0.113
1747683013814343978,-0.111
1747683013822030681,-0.10300000000000001
1747683013829717384,-0.10300000000000001
1747683013837404087,-0.108
1747683013845090790,-0.10300000000000001
1747683013852777493,-0.101
1747683013860464196,-0.10300000000000001
1747683013868150899,-0.10300000000000001
1747683013875837602,-0.101
1747683013883524305,-0.096
1747683013891211008,-0.098
1747683013898897711,-0.10300000000000001
1747683013906584414,-0.098
1747683013914271117,-0.094
1747683013921957820,-0.094
1747683013929644523,-0.091
1747683013937331226,-0.076
1747683013945017929,-0.064
1747683013952704632,-0.061
1747683013960391335,-0.064
1747683013968078038,-0.076
1747683013975764741,-0.089
1747683013983451444,-0.081
1747683013991138147,-0.074
1747683013998824850,-0.089
1747683014006511553,-0.089
1747683014014198256,-0.069
1747683014021884959,-0.07100000000000001
1747683014029571662,-0.081
1747683014037258365,-0.089
1747683014044945068,-0.032
1747683014052631771,0.23500000000000001
1747683014060318474,0.591
1747683014068005177,0.526
1747683014075691880,-0.039
1747683014083378583,-0.45
1747683014091065286,-0.366
1747683014098751989,-0.195
1747683014106438692,-0.17300000000000001
1747683014114125395,-0.126
1747683014121812098,-0.064
1747683014129498801,-0.081
1747683014137185504,-0.094
1747683014144872207,-0.049
1747683014152558910,-0.022
1747683014160245613,-0.032
1747683014167932316,-0.034
1747683014175619019,-0.022
1747683014183305722,-0.029
1747683014190992425,-0.042
1747683014198679128,-0.029
1747683014206365831,-0.007
1747683014214052534,-0.012
1747683014221739237,-0.024
1747683014229426004,-0.017
1747683014237112429,-0.004
1747683014244798854,0.004
1747683014252485279,0.027
1747683014260171704,0.034
1747683014267858129,0.019
1747683014275544554,0.019
1747683014283230979,0.037
1747683014290917404,0.032
1747683014298603829,0.034
1747683014306290254,0.047
1747683014313976679,0.039
1747683014321663104,0.032
1747683014329349529,0.039
1747683014337035954,0.032
1747683014344722379,0.007
1747683014352408804,-0.017
1747683014360095229,-0.061
1747683014367781654,-0.101
1747683014375468079,-0.113
1747683014383154504,-0.121
1747683014390840929,-0.133
1747683014398527354,-0.138
1747683014406213779,-0.138
1747683014413900204,-0.136
1747683014421586629,-0.126
1747683014429273054,-0.116
1747683014436959479,-0.121
1747683014444645904,-0.128
1747683014452332329,-0.108
1747683014460018754,-0.101
1747683014467705179,-0.11800000000000001
1747683014475391604,-0.123
1747683014483078029,-0.111
1747683014490764454,-0.106
1747683014498450879,-0.108
1747683014506137304,-0.108
1747683014513823729,-0.111
1747683014521510154,-0.106
1747683014529196579,-0.094
1747683014536883004,-0.101
1747683014544569429,-0.11800000000000001
1747683014552255854,-0.106
1747683014559942279,-0.091
1747683014567628704,-0.096
1747683014575315129,-0.10300000000000001
1747683014583001554,-0.098
1747683014590687979,-0.096
1747683014598374404,-0.101
1747683014606060829,-0.113
1747683014613747254,-0.113
1747683014621433679,-0.094
1747683014629120104,-0.084
1747683014636806529,-0.094
1747683014644492954,-0.106
1747683014652179379,-0.113
1747683014659865804,-0.096
1747683014667552229,-0.074
1747683014675238654,-0.069
1747683014682925079,-0.066
1747683014690611504,-0.059000000000000004
1747683014698297929,-0.059000000000000004
1747683014705984354,-0.07100000000000001
1747683014713670779,-0.089
1747683014721357204,-0.081
1747683014729043629,-0.064
1747683014736730054,-0.074
1747683014744416479,-0.094
1747683014752102904,-0.089
1747683014759789329,-0.076
1747683014767475754,-0.08600000000000001
1747683014775162179,-0.111
1747683014782848604,-0.012
1747683014790535039,0.333,91,669
1747683014798221603,0.653,,688
1747683014805908167,0.427
1747683014813594731,-0.183
1747683014821281295,-0.47000000000000003
1747683014828967859,-0.329
1747683014836654423,-0.20500000000000002
1747683014844340987,-0.17500000000000002
1747683014852027551,-0.108
1747683014859714115,-0.079
1747683014867400679,-0.08600000000000001
1747683014875087243,-0.074
1747683014882773807,-0.061
1747683014890460371,-0.056
1747683014898146935,-0.047
1747683014905833499,-0.044
1747683014913520063,-0.047
1747683014921206627,-0.044
1747683014928893191,-0.039
1747683014936579755,-0.027
1747683014944266319,-0.027
1747683014951952883,-0.034
1747683014959639447,-0.029
1747683014967326011,-0.017
1747683014975012575,-0.002
1747683014982699139,-0.007
1747683014990385703,-0.012
1747683014998072267,-0.004
1747683015005758831,0.009000000000000001
1747683015013445395,0.017
1747683015021131959,0.027
1747683015028818523,0.029
1747683015036505087,0.027
1747683015044191651,0.029
1747683015051878215,0.029
1747683015059564779,0.019
1747683015067251343,0.017
1747683015074937907,0.009000000000000001
1747683015082624471,-0.017
1747683015090311035,-0.039
1747683015097997599,-0.056
1747683015105684163,-0.091
1747683015113370727,-0.11800000000000001
1747683015121057291,-0.128
1747683015128743855,-0.14100000000000001
1747683015136430419,-0.145
1747683015144116983,-0.14300000000000002
1747683015151803547,-0.15
1747683015159490111,-0.14300000000000002
1747683015167176675,-0.128
1747683015174863239,-0.133
1747683015182549803,-0.131
1747683015190236367,-0.111
1747683015197922931,-0.111
1747683015205609495,-0.121
1747683015213296059,-0.126
1747683015220982623,-0.123
1747683015228669187,-0.11800000000000001
1747683015236355751,-0.126
1747683015244042315,-0.136
1747683015251728879,-0.128
1747683015259415443,-0.106
1747683015267102007,-0.098
1747683015274788571,-0.111
1747683015282475135,-0.128
1747683015290161699,-0.128
1747683015297848263,-0.121
1747683015305534827,-0.121
1747683015313221391,-0.121
1747683015320907955,-0.116
1747683015328594519,-0.101
1747683015336281083,-0.094
1747683015343967647,-0.108
1747683015351654244,-0.121
1747683015359340947,-0.111
1747683015367027650,-0.108
1747683015374714353,-0.113
1747683015382401056,-0.106
1747683015390087759,-0.113
1747683015397774462,-0.14300000000000002
1747683015405461165,-0.14300000000000002
1747683015413147868,-0.106
1747683015420834571,-0.074
1747683015428521274,-0.079
1747683015436207977,-0.096
1747683015443894680,-0.081
1747683015451581383,-0.076
1747683015459268086,-0.108
1747683015466954789,-0.11800000000000001
1747683015474641492,-0.089
1747683015482328195,-0.081
1747683015490014898,-0.10300000000000001
1747683015497701601,-0.098
1747683015505388304,-0.081
1747683015513075007,-0.08600000000000001
1747683015520761710,-0.10300000000000001
1747683015528448413,-0.10300000000000001
1747683015536135116,0.014
1747683015543821819,0.356
1747683015551508522,0.611
1747683015559195225,0.324
1747683015566881928,-0.254
1747683015574568631,-0.47000000000000003
1747683015582255334,-0.299
1747683015589942037,-0.197
1747683015597628740,-0.188
1747683015605315443,-0.111
1747683015613002146,-0.069
1747683015620688849,-0.096
1747683015628375552,-0.098
1747683015636062255,-0.079
1747683015643748958,-0.066
1747683015651435661,-0.051000000000000004
1747683015659122364,-0.039
1747683015666809067,-0.039
1747683015674495770,-0.044
1747683015682182473,-0.049
1747683015689869176,-0.034
1747683015697555879,-0.034
1747683015705242582,-0.049
1747683015712929285,-0.039
1747683015720615988,-0.012
1747683015728302691,-0.009000000000000001
1747683015735989394,-0.017
1747683015743676097,-0.009000000000000001
1747683015751362800,0.002
1747683015759049503,0.012
1747683015766736206,0.014
1747683015774422909,0.004
1747683015782109612,0.002
1747683015789796315,0.009000000000000001
1747683015797483018,0.012
1747683015805169721,0.017
1747683015812856424,0.024
1747683015820543127,0.007
1747683015828229830,-0.017
1747683015835916533,-0.022
1747683015843603236,-0.047
1747683015851289939,-0.081
1747683015858976642,-0.094
1747683015866663345,-0.116
1747683015874350048,-0.153
1747683015882036751,-0.153
1747683015889723454,-0.128
1747683015897410157,-0.123
1747683015905096860,-0.136
1747683015912783623,-0.15,90,721
1747683015920470326,-0.158
1747683015928157029,-0.138
1747683015935843732,-0.121
1747683015943530435,-0.121
1747683015951217138,-0.126
1747683015958903841,-0.126
1747683015966590544,-0.121
1747683015974277247,-0.126
1747683015981963950,-0.123
1747683015989650653,-0.10300000000000001
1747683015997337356,-0.108
1747683016005024059,-0.128
1747683016012710762,-0.121
1747683016020397465,-0.111
1747683016028084168,-0.133
1747683016035770871,-0.15
1747683016043457574,-0.136
1747683016051144277,-0.121
1747683016058830980,-0.128
1747683016066517683,-0.121
1747683016074204386,-0.10300000000000001
1747683016081891089,-0.11800000000000001
1747683016089577792,-0.128
1747683016097264495,-0.11800000000000001
1747683016104951198,-0.116
1747683016112637901,-0.111
1747683016120324604,-0.106
1747683016128011307,-0.108
1747683016135698010,-0.10300000000000001
1747683016143384713,-0.106
1747683016151071416,-0.116
1747683016158758119,-0.11800000000000001
1747683016166444822,-0.11800000000000001
1747683016174131525,-0.113
1747683016181818228,-0.091
1747683016189504931,-0.074
1747683016197191634,-0.076
1747683016204878337,-0.079
1747683016212565040,-0.074
1747683016220251743,-0.076
1747683016227938446,-0.091
1747683016235625149,-0.111
1747683016243311852,-0.106
1747683016250998555,-0.084
1747683016258685258,-0.089
1747683016266371961,-0.108
1747683016274058664,-0.10300000000000001
1747683016281745367,-0.106
1747683016289432070,-0.024
1747683016297118773,0.306
1747683016304805476,0.611
1747683016312492179,0.388
1747683016320178882,-0.19
1747683016327865585,-0.462
1747683016335552288,-0.331
1747683016343238991,-0.215
1747683016350925694,-0.183
1747683016358612397,-0.111
1747683016366299100,-0.081
1747683016373985803,-0.098
1747683016381672506,-0.076
1747683016389359209,-0.047
1747683016397045912,-0.049
1747683016404732615,-0.059000000000000004
1747683016412419318,-0.059000000000000004
1747683016420106021,-0.044
1747683016427792724,-0.039
1747683016435479427,-0.032
1747683016443166130,-0.024
1747683016450852833,-0.032
1747683016458539536,-0.024
1747683016466226239,-0.009000000000000001
1747683016473913002,-0.024
1747683016481599705,-0.034
1747683016489286408,-0.019
1747683016496973111,-0.004
1747683016504659814,0.009000000000000001
1747683016512346517,0.007
1747683016520033220,0.0
1747683016527719923,0.007
1747683016535406626,0.007
1747683016543093329,0.004
1747683016550780032,0.014
1747683016558466735,0.009000000000000001
1747683016566153438,-0.014
1747683016573840141,-0.022
1747683016581526844,-0.002
1747683016589213547,-0.002
1747683016596900250,-0.037
1747683016604586953,-0.064
1747683016612273656,-0.08600000000000001
1747683016619960359,-0.113
1747683016627647062,-0.126
1747683016635333765,-0.128
1747683016643020468,-0.14100000000000001
1747683016650707171,-0.153
1747683016658393874,-0.155
1747683016666080577,-0.145
1747683016673767280,-0.11800000000000001
1747683016681453983,-0.098
1747683016689140686,-0.116
1747683016696827389,-0.148
1747683016704514092,-0.138
1747683016712200795,-0.10300000000000001
1747683016719887498,-0.101
1747683016727574201,-0.126
1747683016735260904,-0.136
1747683016742947607,-0.136
1747683016750634310,-0.14300000000000002
1747683016758321013,-0.133
1747683016766007716,-0.11800000000000001
1747683016773694419,-0.11800000000000001
1747683016781381122,-0.116
1747683016789067825,-0.108
1747683016796754528,-0.121
1747683016804441231,-0.133
1747683016812127934,-0.121
1747683016819814637,-0.121
1747683016827501340,-0.128
1747683016835188043,-0.10300000000000001
1747683016842874746,-0.08600000000000001
1747683016850561449,-0.10300000000000001
1747683016858248152,-0.113
1747683016865934855,-0.101
1747683016873621558,-0.108
1747683016881308261,-0.123
1747683016888994964,-0.123
1747683016896681667,-0.116
1747683016904368370,-0.106
1747683016912055073,-0.081
1747683016919741776,-0.079
1747683016927428479,-0.084
1747683016935115182,-0.051000000000000004
1747683016942801885,-0.042
1747683016950488588,-0.091
1747683016958175291,-0.106
1747683016965861994,-0.084
1747683016973548697,-0.079
1747683016981235400,-0.084
1747683016988922103,-0.091
1747683016996608806,-0.101
1747683017004295509,-0.098
1747683017011982212,-0.098
1747683017019668915,-0.059000000000000004
1747683017027355618,0.18
1747683017035042381,0.526,90,736
1747683017042729084,0.47900000000000004
1747683017050415787,-0.056
1747683017058102490,-0.437
1747683017065789193,-0.34600000000000003
1747683017073475896,-0.212
1747683017081162599,-0.202
1747683017088849302,-0.128
1747683017096536005,-0.064
1747683017104222708,-0.098
1747683017111909411,-0.108
1747683017119596114,-0.069
1747683017127282817,-0.039
1747683017134969520,-0.037
1747683017142656223,-0.047
1747683017150342926,-0.047
1747683017158029629,-0.037
1747683017165716332,-0.034
1747683017173403035,-0.034
1747683017181089738,-0.034
1747683017188776441,-0.039
1747683017196463144,-0.032
1747683017204149847,-0.022
1747683017211836550,-0.029
1747683017219523253,-0.037
1747683017227209956,-0.024
1747683017234896659,-0.012
1747683017242583362,-0.002
1747683017250270065,0.004
1747683017257956768,0.004
1747683017265643471,0.007
1747683017273330174,0.017
1747683017281016877,0.019
1747683017288703580,0.012
1747683017296390283,0.004
1747683017304076986,-0.004
1747683017311763689,-0.017
1747683017319450392,-0.027
1747683017327137095,-0.034
1747683017334823798,-0.059000000000000004
1747683017342510501,-0.089
1747683017350197204,-0.101
1747683017357883907,-0.116
1747683017365570610,-0.133
1747683017373257313,-0.131
1747683017380944016,-0.131
1747683017388630719,-0.131
1747683017396317422,-0.11800000000000001
1747683017404004125,-0.106
1747683017411690828,-0.111
1747683017419377531,-0.133
1747683017427064234,-0.131
1747683017434750937,-0.108
1747683017442437640,-0.106
1747683017450124343,-0.11800000000000001
1747683017457811046,-0.111
1747683017465497749,-0.101
1747683017473184452,-0.101
1747683017480871155,-0.096
1747683017488557858,-0.111
1747683017496244561,-0.126
1747683017503931264,-0.101
1747683017511617967,-0.091
1747683017519304670,-0.11800000000000001
1747683017526991373,-0.121
1747683017534678076,-0.096
1747683017542364779,-0.094
1747683017550051482,-0.108
1747683017557738185,-0.101
1747683017565424888,-0.094
1747683017573111591,-0.094
1747683017580798294,-0.098
1747683017588484997,-0.113
1747683017596171764,-0.121
1747683017603858467,-0.116
1747683017611545170,-0.101
1747683017619231873,-0.079
1747683017626918576,-0.064
1747683017634605279,-0.074
1747683017642291982,-0.084
1747683017649978685,-0.076
1747683017657665388,-0.084
1747683017665352091,-0.10300000000000001
1747683017673038794,-0.098
1747683017680725497,-0.084
1747683017688412200,-0.08600000000000001
1747683017696098903,-0.096
1747683017703785606,-0.098
1747683017711472309,-0.096
1747683017719159012,-0.101
1747683017726845715,-0.047
1747683017734532418,0.192
1747683017742219121,0.517
1747683017749905824,0.47000000000000003
1747683017757592527,-0.042
1747683017765279230,-0.418
1747683017772965933,-0.358
1747683017780652636,-0.23700000000000002
1747683017788339339,-0.212
1747683017796026042,-0.136
1747683017803712745,-0.064
1747683017811399448,-0.07100000000000001
1747683017819086151,-0.074
1747683017826772854,-0.049
1747683017834459557,-0.044
1747683017842146260,-0.051000000000000004
1747683017849832963,-0.044
1747683017857519666,-0.027
1747683017865206369,-0.027
1747683017872893072,-0.037
1747683017880579775,-0.039
1747683017888266478,-0.024
1747683017895953181,-0.019
1747683017903639884,-0.022
1747683017911326587,-0.009000000000000001
1747683017919013290,0.002
1747683017926699993,-0.009000000000000001
1747683017934386696,-0.014
1747683017942073399,0.002
1747683017949760102,0.012
1747683017957446805,0.012
1747683017965133508,0.017
1747683017972820211,0.019
1747683017980506914,0.012
1747683017988193617,0.012
1747683017995880320,0.019
1747683018003567023,0.017
1747683018011253726,0.007
1747683018018940429,0.002
1747683018026627132,-0.012
1747683018034313835,-0.037
1747683018042000538,-0.059000000000000004
1747683018049687241,-0.096
1747683018057373944,-0.121
1747683018065060647,-0.121
1747683018072747350,-0.126
1747683018080434053,-0.136
1747683018088120756,-0.128
1747683018095807459,-0.128
1747683018103494162,-0.133
1747683018111180865,-0.123
1747683018118867568,-0.11800000000000001
1747683018126554271,-0.11800000000000001
1747683018134240974,-0.116
1747683018141927677,-0.113
1747683018149614380,-0.113
1747683018157301143,-0.116,87,753
1747683018164987846,-0.113,,754
1747683018172674549,-0.113
1747683018180361252,-0.116
1747683018188047955,-0.111
1747683018195734658,-0.111
1747683018203421361,-0.11800000000000001
1747683018211108064,-0.111
1747683018218794767,-0.10300000000000001
1747683018226481470,-0.113
1747683018234168173,-0.126
1747683018241854876,-0.113
1747683018249541579,-0.101
1747683018257228282,-0.116
1747683018264914985,-0.121
1747683018272601688,-0.108
1747683018280288391,-0.111
1747683018287975094,-0.116
1747683018295661797,-0.113
1747683018303348500,-0.116
1747683018311035203,-0.106
1747683018318721906,-0.074
1747683018326408609,-0.064
1747683018334095312,-0.074
1747683018341782015,-0.074
1747683018349468718,-0.079
1747683018357155421,-0.096
1747683018364842124,-0.101
1747683018372528827,-0.094
1747683018380215530,-0.096
1747683018387902233,-0.096
1747683018395588936,-0.089
1747683018403275639,-0.08600000000000001
1747683018410962342,-0.089
1747683018418649045,-0.091
1747683018426335748,0.0
1747683018434022451,0.311
1747683018441709154,0.578
1747683018449395857,0.341
1747683018457082560,-0.20700000000000002
1747683018464769263,-0.427
1747683018472455966,-0.304
1747683018480142669,-0.227
1747683018487829372,-0.197
1747683018495516075,-0.106
1747683018503202778,-0.059000000000000004
1747683018510889481,-0.07100000000000001
1747683018518576184,-0.066
1747683018526262887,-0.059000000000000004
1747683018533949590,-0.051000000000000004
1747683018541636293,-0.047
1747683018549322996,-0.044
1747683018557009699,-0.027
1747683018564696402,-0.027
1747683018572383105,-0.042
1747683018580069808,-0.034
1747683018587756511,-0.022
1747683018595443214,-0.024
1747683018603129917,-0.014
1747683018610816620,0.0
1747683018618503323,0.0
1747683018626190026,-0.004
1747683018633876729,-0.007
1747683018641563432,0.0
1747683018649250135,0.017
1747683018656936838,0.027
1747683018664623541,0.034
1747683018672310244,0.029
1747683018679996947,0.014
1747683018687683650,0.007
1747683018695370353,0.007
1747683018703057056,0.007
1747683018710743759,0.009000000000000001
1747683018718430522,0.012,86,732
1747683018726117086,0.0
1747683018733803650,-0.037
1747683018741490214,-0.079
1747683018749176778,-0.101
1747683018756863342,-0.108
1747683018764549906,-0.123
1747683018772236470,-0.136
1747683018779923034,-0.133
1747683018787609598,-0.128
1747683018795296162,-0.123
1747683018802982726,-0.111
1747683018810669290,-0.116
1747683018818355854,-0.133
1747683018826042418,-0.128
1747683018833728982,-0.106
1747683018841415546,-0.106
1747683018849102110,-0.121
1747683018856788674,-0.111
1747683018864475238,-0.096
1747683018872161802,-0.111
1747683018879848366,-0.123
1747683018887534930,-0.116
1747683018895221494,-0.108
1747683018902908058,-0.106
1747683018910594622,-0.111
1747683018918281186,-0.126
1747683018925967750,-0.11800000000000001
1747683018933654314,-0.108
1747683018941340878,-0.111
1747683018949027442,-0.106
1747683018956714006,-0.10300000000000001
1747683018964400570,-0.11800000000000001
1747683018972087134,-0.116
1747683018979773698,-0.108
1747683018987460262,-0.128
1747683018995146826,-0.128
1747683019002833390,-0.08600000000000001
1747683019010519954,-0.069
1747683019018206518,-0.081
1747683019025893082,-0.079
1747683019033579646,-0.061
1747683019041266210,-0.076
1747683019048952774,-0.106
1747683019056639338,-0.106
1747683019064325902,-0.094
1747683019072012466,-0.091
1747683019079699030,-0.08600000000000001
1747683019087385594,-0.079
1747683019095072158,-0.091
1747683019102758722,-0.10300000000000001
1747683019110445286,-0.081
1747683019118131850,0.061
1747683019125818414,0.39
1747683019133504978,0.561
1747683019141191542,0.2
1747683019148878106,-0.306
1747683019156564670,-0.405
1747683019164251234,-0.259
1747683019171937798,-0.217
1747683019179624362,-0.183
1747683019187310926,-0.084
1747683019194997490,-0.061
1747683019202684054,-0.084
1747683019210370618,-0.066
1747683019218057182,-0.051000000000000004
1747683019225743746,-0.047
1747683019233430310,-0.032
1747683019241116874,-0.032
1747683019248803438,-0.047
1747683019256490002,-0.034
1747683019264176566,-0.017
1747683019271863130,-0.027
1747683019279549731,-0.022
1747683019287236504,-0.004
1747683019294923277,-0.014
1747683019302610050,-0.029
1747683019310296823,-0.012
1747683019317983596,0.004
1747683019325670369,0.002
1747683019333357142,0.009000000000000001
1747683019341043915,0.019
1747683019348730688,0.014
1747683019356417461,0.009000000000000001
1747683019364104234,0.014
1747683019371791007,0.022
1747683019379477780,0.019
1747683019387164553,0.007
1747683019394851326,0.009000000000000001
1747683019402538099,0.019
1747683019410224872,0.002
1747683019417911645,-0.027
1747683019425598418,-0.044
1747683019433285191,-0.059000000000000004
1747683019440971964,-0.084
1747683019448658737,-0.108
1747683019456345510,-0.116
1747683019464032283,-0.11800000000000001
1747683019471719056,-0.126
1747683019479405829,-0.126
1747683019487092602,-0.11800000000000001
1747683019494779375,-0.116
1747683019502466148,-0.116
1747683019510152921,-0.106
1747683019517839694,-0.106
1747683019525526467,-0.116
1747683019533213240,-0.101
1747683019540900013,-0.091
1747683019548586786,-0.10300000000000001
1747683019556273559,-0.106
1747683019563960332,-0.101
1747683019571647105,-0.101
1747683019579333878,-0.106
1747683019587020651,-0.108
1747683019594707424,-0.101
1747683019602394197,-0.098
1747683019610080970,-0.106
1747683019617767743,-0.106
1747683019625454516,-0.10300000000000001
1747683019633141289,-0.106
1747683019640828062,-0.106
1747683019648514835,-0.098
1747683019656201608,-0.096
1747683019663888381,-0.10300000000000001
1747683019671575154,-0.113
1747683019679261927,-0.113
1747683019686948700,-0.096
1747683019694635473,-0.081
1747683019702322246,-0.076
1747683019710009019,-0.069
1747683019717695792,-0.064
1747683019725382565,-0.07100000000000001
1747683019733069338,-0.089
1747683019740756111,-0.098
1747683019748442884,-0.098
1747683019756129657,-0.096
1747683019763816430,-0.094
1747683019771503203,-0.098
1747683019779189976,-0.094
1747683019786876749,-0.081
1747683019794563522,-0.096
1747683019802250295,-0.094
1747683019809937068,0.08600000000000001
1747683019817623841,0.445
1747683019825310614,0.546
1747683019832997387,0.121
1747683019840684197,-0.35100000000000003,85,707
1747683019848370552,-0.398,,697
1747683019856056907,-0.264
1747683019863743262,-0.23
1747683019871429617,-0.168
1747683019879115972,-0.076
1747683019886802327,-0.074
1747683019894488682,-0.091
1747683019902175037,-0.07100000000000001
1747683019909861392,-0.064
1747683019917547747,-0.064
1747683019925234102,-0.049
1747683019932920457,-0.042
1747683019940606812,-0.039
1747683019948293167,-0.032
1747683019955979522,-0.034
1747683019963665877,-0.042
1747683019971352232,-0.034
1747683019979038587,-0.022
1747683019986724942,-0.017
1747683019994411297,-0.012
1747683020002097652,-0.009000000000000001
1747683020009784007,-0.019
1747683020017470362,-0.009000000000000001
1747683020025156717,0.012
1747683020032843072,0.017
1747683020040529427,0.009000000000000001
1747683020048215782,0.017
1747683020055902137,0.022
1747683020063588492,0.014
1747683020071274847,0.012
1747683020078961202,0.014
1747683020086647557,0.007
1747683020094333912,0.0
1747683020102020267,-0.009000000000000001
1747683020109706622,-0.032
1747683020117392977,-0.054
1747683020125079332,-0.07100000000000001
1747683020132765687,-0.10300000000000001
1747683020140452042,-0.128
1747683020148138397,-0.123
1747683020155824752,-0.121
1747683020163511107,-0.128
1747683020171197462,-0.133
1747683020178883817,-0.133
1747683020186570172,-0.131
1747683020194256527,-0.121
1747683020201942882,-0.113
1747683020209629237,-0.101
1747683020217315592,-0.096
1747683020225001947,-0.113
1747683020232688302,-0.136
1747683020240374657,-0.128
1747683020248061012,-0.113
1747683020255747367,-0.108
1747683020263433722,-0.098
1747683020271120077,-0.101
1747683020278806432,-0.121
1747683020286492787,-0.121
1747683020294179142,-0.113
1747683020301865497,-0.121
1747683020309551852,-0.121
1747683020317238207,-0.111
1747683020324924562,-0.113
1747683020332610917,-0.123
1747683020340297272,-0.11800000000000001
1747683020347983627,-0.111
1747683020355669982,-0.101
1747683020363356337,-0.076
1747683020371042692,-0.059000000000000004
1747683020378729047,-0.064
1747683020386415402,-0.081
1747683020394101757,-0.08600000000000001
1747683020401788141,-0.08600000000000001
1747683020409474844,-0.106
1747683020417161547,-0.116
1747683020424848250,-0.094
1747683020432534953,-0.08600000000000001
1747683020440221656,-0.098
1747683020447908359,-0.089
1747683020455595062,-0.081
1747683020463281765,-0.10300000000000001
1747683020470968468,-0.012
1747683020478655171,0.336
1747683020486341874,0.593
1747683020494028577,0.28400000000000003
1747683020501715280,-0.28200000000000003
1747683020509401983,-0.447
1747683020517088686,-0.28400000000000003
1747683020524775389,-0.22
1747683020532462092,-0.20700000000000002
1747683020540148795,-0.106
1747683020547835498,-0.059000000000000004
1747683020555522201,-0.076
1747683020563208904,-0.061
1747683020570895607,-0.049
1747683020578582310,-0.049
1747683020586269013,-0.037
1747683020593955716,-0.029
1747683020601642419,-0.032
1747683020609329122,-0.027
1747683020617015825,-0.019
1747683020624702528,-0.012
1747683020632389231,-0.009000000000000001
1747683020640075934,-0.004
1747683020647762637,-0.002
1747683020655449340,-0.007
1747683020663136043,-0.002
1747683020670822746,0.004
1747683020678509449,0.007
1747683020686196152,0.017
1747683020693882855,0.032
1747683020701569558,0.032
1747683020709256261,0.029
1747683020716942964,0.042
1747683020724629667,0.039
1747683020732316370,0.027
1747683020740003073,0.024
1747683020747689776,0.022
1747683020755376479,0.017
1747683020763063182,0.009000000000000001
1747683020770749885,-0.007
1747683020778436588,-0.034
1747683020786123291,-0.066
1747683020793809994,-0.091
1747683020801496697,-0.11800000000000001
1747683020809183400,-0.128
1747683020816870103,-0.11800000000000001
1747683020824556806,-0.113
1747683020832243509,-0.121
1747683020839930212,-0.131
1747683020847616915,-0.11800000000000001
1747683020855303618,-0.10300000000000001
1747683020862990321,-0.101
1747683020870677024,-0.106
1747683020878363727,-0.111
1747683020886050430,-0.111
1747683020893737133,-0.111
1747683020901423836,-0.108
1747683020909110539,-0.106
1747683020916797242,-0.108
1747683020924483945,-0.106
1747683020932170648,-0.101
1747683020939857351,-0.106
1747683020947544054,-0.113
1747683020955230757,-0.121
1747683020962917524,-0.116,85,689
1747683020970604227,-0.113
1747683020978290930,-0.121
1747683020985977633,-0.123
1747683020993664336,-0.113
1747683021001351039,-0.11800000000000001
1747683021009037742,-0.128
1747683021016724445,-0.108
1747683021024411148,-0.081
1747683021032097851,-0.089
1747683021039784554,-0.091
1747683021047471257,-0.079
1747683021055157960,-0.084
1747683021062844663,-0.098
1747683021070531366,-0.10300000000000001
1747683021078218069,-0.111
1747683021085904772,-0.11800000000000001
1747683021093591475,-0.106
1747683021101278178,-0.094
1747683021108964881,-0.098
1747683021116651584,-0.10300000000000001
1747683021124338287,-0.08600000000000001
1747683021132024990,0.039
1747683021139711693,0.376
1747683021147398396,0.593
1747683021155085099,0.272
1747683021162771802,-0.267
1747683021170458505,-0.423
1747683021178145208,-0.277
1747683021185831911,-0.21
1747683021193518614,-0.17500000000000002
1747683021201205317,-0.098
1747683021208892020,-0.091
1747683021216578723,-0.106
1747683021224265426,-0.07100000000000001
1747683021231952129,-0.047
1747683021239638832,-0.064
1747683021247325535,-0.07100000000000001
1747683021255012238,-0.056
1747683021262698941,-0.044
1747683021270385644,-0.039
1747683021278072347,-0.034
1747683021285759050,-0.039
1747683021293445753,-0.039
1747683021301132456,-0.019
1747683021308819159,-0.014
1747683021316505862,-0.019
1747683021324192565,-0.014
1747683021331879268,-0.002
1747683021339565971,0.004
1747683021347252674,0.002
1747683021354939377,0.007
1747683021362626080,0.022
1747683021370312783,0.027
1747683021377999486,0.019
1747683021385686189,0.019
1747683021393372892,0.019
1747683021401059595,0.017
1747683021408746298,0.014
1747683021416433001,0.004
1747683021424119704,-0.019
1747683021431806407,-0.037
1747683021439493110,-0.049
1747683021447179813,-0.069
1747683021454866516,-0.096
1747683021462553219,-0.121
1747683021470239922,-0.136
1747683021477926625,-0.133
1747683021485613328,-0.121
1747683021493300031,-0.11800000000000001
1747683021500986734,-0.126
1747683021508673437,-0.121
1747683021516360140,-0.11800000000000001
1747683021524046903,-0.108
1747683021531733606,-0.096
1747683021539420309,-0.106
1747683021547107012,-0.11800000000000001
1747683021554793715,-0.10300000000000001
1747683021562480418,-0.091
1747683021570167121,-0.10300000000000001
1747683021577853824,-0.113
1747683021585540527,-0.113
1747683021593227230,-0.108
1747683021600913933,-0.108
1747683021608600636,-0.111
1747683021616287339,-0.111
1747683021623974042,-0.113
1747683021631660745,-0.121
1747683021639347448,-0.113
1747683021647034151,-0.111
1747683021654720854,-0.11800000000000001
1747683021662407557,-0.11800000000000001
1747683021670094260,-0.116
1747683021677780963,-0.121
1747683021685467666,-0.116
1747683021693154369,-0.096
1747683021700841072,-0.081
1747683021708527775,-0.079
1747683021716214478,-0.079
1747683021723901181,-0.084
1747683021731587884,-0.101
1747683021739274587,-0.111
1747683021746961290,-0.10300000000000001
1747683021754647993,-0.108
1747683021762334696,-0.113
1747683021770021399,-0.10300000000000001
1747683021777708102,-0.101
1747683021785394805,-0.111
1747683021793081508,-0.11800000000000001
1747683021800768211,-0.074
1747683021808454914,0.148
1747683021816141617,0.502
1747683021823828320,0.519
1747683021831515023,0.029
1747683021839201726,-0.395
1747683021846888429,-0.378
1747683021854575132,-0.23900000000000002
1747683021862261835,-0.212
1747683021869948538,-0.158
1747683021877635241,-0.08600000000000001
1747683021885321944,-0.084
1747683021893008647,-0.094
1747683021900695350,-0.074
1747683021908382053,-0.061
1747683021916068756,-0.064
1747683021923755459,-0.054
1747683021931442162,-0.037
1747683021939128865,-0.042
1747683021946815568,-0.049
1747683021954502271,-0.034
1747683021962188974,-0.034
1747683021969875677,-0.044
1747683021977562380,-0.032
1747683021985249083,-0.024
1747683021992935786,-0.024
1747683022000622489,-0.017
1747683022008309192,-0.009000000000000001
1747683022015995895,-0.009000000000000001
1747683022023682598,-0.002
1747683022031369301,0.004
1747683022039056004,0.004
1747683022046742707,0.014
1747683022054429410,0.022
1747683022062116113,0.012
1747683022069802816,0.0
1747683022077489519,0.007
1747683022085176282,0.014,86,690
1747683022092862985,0.004,,663
1747683022100549688,-0.017
1747683022108236391,-0.039
1747683022115923094,-0.064
1747683022123609797,-0.098
1747683022131296500,-0.11800000000000001
1747683022138983203,-0.128
1747683022146669906,-0.133
1747683022154356609,-0.136
1747683022162043312,-0.14100000000000001
1747683022169730015,-0.14100000000000001
1747683022177416718,-0.126
1747683022185103421,-0.121
1747683022192790124,-0.126
1747683022200476827,-0.121
1747683022208163530,-0.113
1747683022215850233,-0.11800000000000001
1747683022223536936,-0.116
1747683022231223639,-0.106
1747683022238910342,-0.106
1747683022246597045,-0.116
1747683022254283748,-0.111
1747683022261970451,-0.10300000000000001
1747683022269657154,-0.111
1747683022277343857,-0.116
1747683022285030560,-0.121
1747683022292717263,-0.136
1747683022300403966,-0.123
1747683022308090669,-0.106
1747683022315777372,-0.108
1747683022323464075,-0.116
1747683022331150778,-0.111
1747683022338837481,-0.111
1747683022346524184,-0.116
1747683022354210887,-0.111
1747683022361897590,-0.113
1747683022369584293,-0.126
1747683022377270996,-0.126
1747683022384957699,-0.116
1747683022392644402,-0.10300000000000001
1747683022400331105,-0.08600000000000001
1747683022408017808,-0.076
1747683022415704511,-0.07100000000000001
1747683022423391214,-0.069
1747683022431077917,-0.079
1747683022438764620,-0.101
1747683022446451323,-0.10300000000000001
1747683022454138026,-0.091
1747683022461824729,-0.096
1747683022469511432,-0.111
1747683022477198135,-0.10300000000000001
1747683022484884838,-0.089
1747683022492571541,-0.10300000000000001
1747683022500258244,-0.121
1747683022507944947,-0.054
1747683022515631650,0.21
1747683022523318353,0.541
1747683022531005056,0.447
1747683022538691759,-0.089
1747683022546378462,-0.427
1747683022554065165,-0.34800000000000003
1747683022561751868,-0.23500000000000001
1747683022569438571,-0.217
1747683022577125274,-0.148
1747683022584811977,-0.074
1747683022592498680,-0.081
1747683022600185383,-0.096
1747683022607872086,-0.069
1747683022615558789,-0.054
1747683022623245492,-0.059000000000000004
1747683022630932195,-0.051000000000000004
1747683022638618898,-0.044
1747683022646305661,-0.044
1747683022653992364,-0.039
1747683022661679067,-0.039
1747683022669365770,-0.042
1747683022677052473,-0.034
1747683022684739176,-0.022
1747683022692425879,-0.022
1747683022700112582,-0.029
1747683022707799285,-0.022
1747683022715485988,-0.007
1747683022723172691,0.0
1747683022730859394,0.002
1747683022738546097,0.004
1747683022746232800,0.004
1747683022753919503,0.004
1747683022761606206,0.007
1747683022769292909,0.009000000000000001
1747683022776979612,0.004
1747683022784666315,0.009000000000000001
1747683022792353018,0.007
1747683022800039721,-0.007
1747683022807726424,-0.024
1747683022815413127,-0.042
1747683022823099830,-0.076
1747683022830786533,-0.10300000000000001
1747683022838473236,-0.113
1747683022846159939,-0.123
1747683022853846642,-0.138
1747683022861533345,-0.14100000000000001
1747683022869220048,-0.14100000000000001
1747683022876906751,-0.14300000000000002
1747683022884593454,-0.14100000000000001
1747683022892280157,-0.138
1747683022899966860,-0.138
1747683022907653563,-0.133
1747683022915340266,-0.126
1747683022923026969,-0.131
1747683022930713672,-0.136
1747683022938400375,-0.123
1747683022946087078,-0.113
1747683022953773781,-0.113
1747683022961460484,-0.116
1747683022969147187,-0.131
1747683022976833890,-0.14100000000000001
1747683022984520593,-0.133
1747683022992207296,-0.128
1747683022999893999,-0.126
1747683023007580702,-0.123
1747683023015267405,-0.123
1747683023022954108,-0.128
1747683023030640811,-0.126
1747683023038327514,-0.116
1747683023046014217,-0.121
1747683023053700920,-0.131
1747683023061387623,-0.126
1747683023069074326,-0.121
1747683023076761029,-0.133
1747683023084447732,-0.133
1747683023092134435,-0.128
1747683023099821138,-0.131
1747683023107507841,-0.128
1747683023115194544,-0.10300000000000001
1747683023122881247,-0.079
1747683023130567950,-0.081
1747683023138254653,-0.089
1747683023145941356,-0.091
1747683023153628059,-0.108
1747683023161314762,-0.113
1747683023169001465,-0.101
1747683023176688168,-0.106
1747683023184374871,-0.113
1747683023192061574,-0.10300000000000001
1747683023199748277,-0.10300000000000001
1747683023207435040,-0.111,86,661
1747683023215121743,-0.108
1747683023222808446,-0.079
1747683023230495149,0.101
1747683023238181852,0.442
1747683023245868555,0.492
1747683023253555258,0.027
1747683023261241961,-0.40800000000000003
1747683023268928664,-0.41300000000000003
1747683023276615367,-0.269
1747683023284302070,-0.23900000000000002
1747683023291988773,-0.19
1747683023299675476,-0.094
1747683023307362179,-0.076
1747683023315048882,-0.091
1747683023322735585,-0.07100000000000001
1747683023330422288,-0.056
1747683023338108991,-0.064
1747683023345795694,-0.061
1747683023353482397,-0.047
1747683023361169100,-0.049
1747683023368855803,-0.054
1747683023376542506,-0.039
1747683023384229209,-0.029
1747683023391915912,-0.027
1747683023399602615,-0.017
1747683023407289318,-0.012
1747683023414976021,-0.014
1747683023422662724,-0.014
1747683023430349427,-0.002
1747683023438036130,0.007
1747683023445722833,0.019
1747683023453409536,0.044
1747683023461096239,0.039
1747683023468782942,0.014
1747683023476469645,0.009000000000000001
1747683023484156348,0.022
1747683023491843051,0.024
1747683023499529754,0.019
1747683023507216457,0.024
1747683023514903160,0.029
1747683023522589863,0.004
1747683023530276566,-0.037
1747683023537963269,-0.069
1747683023545649972,-0.096
1747683023553336675,-0.121
1747683023561023378,-0.133
1747683023568710081,-0.14300000000000002
1747683023576396784,-0.145
1747683023584083487,-0.148
1747683023591770190,-0.15
1747683023599456893,-0.14300000000000002
1747683023607143596,-0.136
1747683023614830299,-0.14100000000000001
1747683023622517002,-0.133
1747683023630203705,-0.11800000000000001
1747683023637890408,-0.128
1747683023645577111,-0.138
1747683023653263814,-0.126
1747683023660950517,-0.113
1747683023668637220,-0.116
1747683023676323923,-0.11800000000000001
1747683023684010626,-0.116
1747683023691697329,-0.111
1747683023699384032,-0.111
1747683023707070735,-0.128
1747683023714757438,-0.138
1747683023722444141,-0.126
1747683023730130844,-0.11800000000000001
1747683023737817547,-0.121
1747683023745504250,-0.11800000000000001
1747683023753190953,-0.113
1747683023760877656,-0.121
1747683023768564423,-0.133,87,673
1747683023776250778,-0.133,,706
1747683023783937133,-0.123
1747683023791623488,-0.123
1747683023799309843,-0.138
1747683023806996198,-0.126
1747683023814682553,-0.094
1747683023822368908,-0.08600000000000001
1747683023830055263,-0.094
1747683023837741618,-0.089
1747683023845427973,-0.096
1747683023853114328,-0.126
1747683023860800683,-0.126
1747683023868487038,-0.111
1747683023876173393,-0.111
1747683023883859748,-0.11800000000000001
1747683023891546103,-0.121
1747683023899232458,-0.116
1747683023906918813,-0.11800000000000001
1747683023914605168,-0.111
1747683023922291523,0.002
1747683023929977878,0.326
1747683023937664233,0.551
1747683023945350588,0.22
1747683023953036943,-0.361
1747683023960723298,-0.512
1747683023968409653,-0.338
1747683023976096008,-0.279
1747683023983782363,-0.254
1747683023991468718,-0.123
1747683023999155073,-0.059000000000000004
1747683024006841428,-0.091
1747683024014527783,-0.08600000000000001
1747683024022214138,-0.054
1747683024029900493,-0.051000000000000004
1747683024037586848,-0.051000000000000004
1747683024045273203,-0.042
1747683024052959558,-0.044
1747683024060645913,-0.039
1747683024068332268,-0.022
1747683024076018623,-0.017
1747683024083704978,-0.022
1747683024091391333,-0.017
1747683024099077688,-0.009000000000000001
1747683024106764043,0.0
1747683024114450398,0.004
1747683024122136753,0.007
1747683024129823108,0.019
1747683024137509463,0.032
1747683024145195818,0.039
1747683024152882173,0.044
1747683024160568528,0.042
1747683024168254883,0.051000000000000004
1747683024175941238,0.069
1747683024183627593,0.059000000000000004
1747683024191313948,0.047
1747683024199000303,0.051000000000000004
1747683024206686658,0.047
1747683024214373013,0.029
1747683024222059368,0.009000000000000001
1747683024229745723,-0.027
1747683024237432078,-0.064
1747683024245118433,-0.08600000000000001
1747683024252804788,-0.111
1747683024260491143,-0.138
1747683024268177498,-0.145
1747683024275863853,-0.14300000000000002
1747683024283550208,-0.153
1747683024291236563,-0.15
1747683024298922918,-0.133
1747683024306609273,-0.126
1747683024314295628,-0.128
1747683024321981983,-0.123
1747683024329668371,-0.10300000000000001
1747683024337355005,-0.098
1747683024345041639,-0.106
1747683024352728273,-0.096
1747683024360414907,-0.091
1747683024368101541,-0.111
1747683024375788175,-0.116
1747683024383474809,-0.108
1747683024391161443,-0.113
1747683024398848077,-0.113
1747683024406534711,-0.108
1747683024414221345,-0.108
1747683024421907979,-0.108
1747683024429594613,-0.116
1747683024437281247,-0.116
1747683024444967881,-0.111
1747683024452654515,-0.116
1747683024460341149,-0.111
1747683024468027783,-0.10300000000000001
1747683024475714417,-0.116
1747683024483401051,-0.126
1747683024491087685,-0.128
1747683024498774319,-0.123
1747683024506460953,-0.106
1747683024514147587,-0.08600000000000001
1747683024521834221,-0.081
1747683024529520855,-0.079
1747683024537207489,-0.074
1747683024544894123,-0.091
1747683024552580757,-0.108
1747683024560267391,-0.094
1747683024567954025,-0.089
1747683024575640659,-0.111
1747683024583327293,-0.108
1747683024591013927,-0.091
1747683024598700561,-0.098
1747683024606387195,-0.113
1747683024614073829,-0.121
1747683024621760463,-0.049
1747683024629447097,0.23900000000000002
1747683024637133731,0.591
1747683024644820365,0.512
1747683024652506999,-0.047
1747683024660193633,-0.435
1747683024667880267,-0.356
1747683024675566901,-0.222
1747683024683253535,-0.20500000000000002
1747683024690940169,-0.133
1747683024698626803,-0.074
1747683024706313437,-0.096
1747683024714000071,-0.08600000000000001
1747683024721686705,-0.054
1747683024729373339,-0.061
1747683024737059973,-0.069
1747683024744746607,-0.049
1747683024752433241,-0.037
1747683024760119875,-0.037
1747683024767806509,-0.037
1747683024775493143,-0.042
1747683024783179777,-0.039
1747683024790866411,-0.027
1747683024798553045,-0.019
1747683024806239679,-0.019
1747683024813926313,-0.017
1747683024821612947,-0.009000000000000001
1747683024829299581,-0.004
1747683024836986215,0.004
1747683024844672849,0.012
1747683024852359483,0.012
1747683024860046117,0.027
1747683024867732751,0.037
1747683024875419385,0.034
1747683024883106019,0.032
1747683024890792663,0.029,87,717
1747683024898479366,0.032
1747683024906166069,0.029
1747683024913852772,0.014
1747683024921539475,-0.009000000000000001
1747683024929226178,-0.042
1747683024936912881,-0.064
1747683024944599584,-0.089
1747683024952286287,-0.11800000000000001
1747683024959972990,-0.138
1747683024967659693,-0.14100000000000001
1747683024975346396,-0.14100000000000001
1747683024983033099,-0.148
1747683024990719802,-0.145
1747683024998406505,-0.138
1747683025006093208,-0.14100000000000001
1747683025013779911,-0.136
1747683025021466614,-0.128
1747683025029153317,-0.14300000000000002
1747683025036840020,-0.14300000000000002
1747683025044526723,-0.126
1747683025052213426,-0.11800000000000001
1747683025059900129,-0.121
1747683025067586832,-0.11800000000000001
1747683025075273535,-0.113
1747683025082960238,-0.108
1747683025090646941,-0.10300000000000001
1747683025098333644,-0.10300000000000001
1747683025106020347,-0.11800000000000001
1747683025113707050,-0.136
1747683025121393753,-0.128
1747683025129080456,-0.113
1747683025136767159,-0.116
1747683025144453862,-0.11800000000000001
1747683025152140565,-0.108
1747683025159827268,-0.108
1747683025167513971,-0.121
1747683025175200674,-0.11800000000000001
1747683025182887377,-0.113
1747683025190574080,-0.116
1747683025198260783,-0.111
1747683025205947486,-0.101
1747683025213634189,-0.111
1747683025221320892,-0.116
1747683025229007595,-0.106
1747683025236694298,-0.111
1747683025244381001,-0.121
1747683025252067704,-0.123
1747683025259754407,-0.11800000000000001
1747683025267441110,-0.101
1747683025275127813,-0.081
1747683025282814516,-0.074
1747683025290501219,-0.076
1747683025298187922,-0.07100000000000001
1747683025305874625,-0.081
1747683025313561328,-0.101
1747683025321248031,-0.098
1747683025328934734,-0.089
1747683025336621437,-0.089
1747683025344308140,-0.089
1747683025351994843,-0.084
1747683025359681546,-0.089
1747683025367368249,-0.101
1747683025375054952,-0.108
1747683025382741655,-0.039
1747683025390428358,0.254
1747683025398115061,0.601
1747683025405801764,0.492
1747683025413488467,-0.081
1747683025421175170,-0.45
1747683025428861873,-0.353
1747683025436548576,-0.225
1747683025444235279,-0.212
1747683025451922042,-0.138
1747683025459608745,-0.076
1747683025467295448,-0.094
1747683025474982151,-0.08600000000000001
1747683025482668854,-0.059000000000000004
1747683025490355557,-0.064
1747683025498042260,-0.066
1747683025505728963,-0.054
1747683025513415666,-0.051000000000000004
1747683025521102369,-0.054
1747683025528789072,-0.047
1747683025536475775,-0.037
1747683025544162478,-0.037
1747683025551849181,-0.037
1747683025559535884,-0.029
1747683025567222587,-0.027
1747683025574909290,-0.032
1747683025582595993,-0.027
1747683025590282696,-0.009000000000000001
1747683025597969399,-0.007
1747683025605656102,-0.004
1747683025613342805,0.007
1747683025621029508,0.017
1747683025628716211,0.012
1747683025636402914,0.009000000000000001
1747683025644089617,0.012
1747683025651776320,0.012
1747683025659463023,0.004
1747683025667149726,0.004
1747683025674836429,0.007
1747683025682523132,-0.014
1747683025690209835,-0.044
1747683025697896538,-0.066
1747683025705583241,-0.08600000000000001
1747683025713269944,-0.116
1747683025720956647,-0.136
1747683025728643350,-0.138
1747683025736330053,-0.14100000000000001
1747683025744016756,-0.15
1747683025751703459,-0.145
1747683025759390162,-0.138
1747683025767076865,-0.148
1747683025774763568,-0.145
1747683025782450271,-0.131
1747683025790136974,-0.126
1747683025797823677,-0.131
1747683025805510380,-0.128
1747683025813197083,-0.116
1747683025820883786,-0.111
1747683025828570489,-0.121
1747683025836257192,-0.138
1747683025843943895,-0.133
1747683025851630598,-0.116
1747683025859317301,-0.11800000000000001
1747683025867004004,-0.126
1747683025874690707,-0.123
1747683025882377410,-0.123
1747683025890064113,-0.126
1747683025897750816,-0.123
1747683025905437519,-0.121
1747683025913124222,-0.123
1747683025920810925,-0.123
1747683025928497628,-0.111
1747683025936184331,-0.11800000000000001
1747683025943871034,-0.136
1747683025951557737,-0.121
1747683025959244440,-0.108
1747683025966931143,-0.121
1747683025974617846,-0.123
1747683025982304549,-0.111
1747683025989991252,-0.111
1747683025997677955,-0.108
1747683026005364658,-0.10300000000000001
1747683026013051421,-0.098,87,694
1747683026020738194,-0.098
1747683026028424967,-0.106
1747683026036111740,-0.116
1747683026043798513,-0.111
1747683026051485286,-0.10300000000000001
1747683026059172059,-0.10300000000000001
1747683026066858832,-0.10300000000000001
1747683026074545605,-0.10300000000000001
1747683026082232378,-0.106
1747683026089919151,-0.108
1747683026097605924,-0.116
1747683026105292697,-0.11800000000000001
1747683026112979470,-0.10300000000000001
1747683026120666243,-0.081
1747683026128353016,-0.076
1747683026136039789,-0.081
1747683026143726562,-0.069
1747683026151413335,-0.074
1747683026159100108,-0.091
1747683026166786881,-0.091
1747683026174473654,-0.084
1747683026182160427,-0.096
1747683026189847200,-0.108
1747683026197533973,-0.091
1747683026205220746,-0.081
1747683026212907519,-0.098
1747683026220594292,-0.111
1747683026228281065,-0.07100000000000001
1747683026235967838,0.148
1747683026243654611,0.514
1747683026251341384,0.5690000000000001
1747683026259028157,0.076
1747683026266714930,-0.4
1747683026274401703,-0.393
1747683026282088476,-0.23
1747683026289775249,-0.20500000000000002
1747683026297462022,-0.168
1747683026305148795,-0.091
1747683026312835568,-0.089
1747683026320522341,-0.094
1747683026328209114,-0.069
1747683026335895887,-0.066
1747683026343582660,-0.079
1747683026351269433,-0.066
1747683026358956206,-0.054
1747683026366642979,-0.047
1747683026374329752,-0.044
1747683026382016525,-0.047
1747683026389703298,-0.042
1747683026397390071,-0.042
1747683026405076844,-0.044
1747683026412763617,-0.037
1747683026420450390,-0.027
1747683026428137163,-0.022
1747683026435823936,-0.012
1747683026443510709,-0.009000000000000001
1747683026451197482,-0.014
1747683026458884255,-0.004
1747683026466571028,0.007
1747683026474257801,0.002
1747683026481944574,0.002
1747683026489631347,0.009000000000000001
1747683026497318120,0.007
1747683026505004893,0.007
1747683026512691666,0.002
1747683026520378439,0.004
1747683026528065212,0.004
1747683026535751985,-0.022
1747683026543438758,-0.047
1747683026551125531,-0.061
1747683026558812304,-0.081
1747683026566499077,-0.101
1747683026574185888,-0.11800000000000001
1747683026581872522,-0.121
1747683026589559156,-0.116
1747683026597245790,-0.11800000000000001
1747683026604932424,-0.128
1747683026612619058,-0.126
1747683026620305692,-0.116
1747683026627992326,-0.111
1747683026635678960,-0.123
1747683026643365594,-0.126
1747683026651052228,-0.108
1747683026658738862,-0.101
1747683026666425496,-0.108
1747683026674112130,-0.108
1747683026681798764,-0.101
1747683026689485398,-0.106
1747683026697172032,-0.111
1747683026704858666,-0.106
1747683026712545300,-0.111
1747683026720231934,-0.116
1747683026727918568,-0.113
1747683026735605202,-0.106
1747683026743291836,-0.101
1747683026750978470,-0.10300000000000001
1747683026758665104,-0.108
1747683026766351738,-0.108
1747683026774038372,-0.101
1747683026781725006,-0.108
1747683026789411640,-0.108
1747683026797098274,-0.096
1747683026804784908,-0.096
1747683026812471542,-0.10300000000000001
1747683026820158176,-0.101
1747683026827844810,-0.101
1747683026835531444,-0.098
1747683026843218078,-0.091
1747683026850904712,-0.094
1747683026858591346,-0.098
1747683026866277980,-0.094
1747683026873964614,-0.084
1747683026881651248,-0.084
1747683026889337882,-0.091
1747683026897024516,-0.089
1747683026904711150,-0.089
1747683026912397784,-0.089
1747683026920084418,-0.089
1747683026927771052,-0.096
1747683026935457686,-0.10300000000000001
1747683026943144320,-0.096
1747683026950830954,-0.076
1747683026958517588,-0.056
1747683026966204222,-0.059000000000000004
1747683026973890856,-0.064
1747683026981577490,-0.059000000000000004
1747683026989264124,-0.069
1747683026996950758,-0.081
1747683027004637392,-0.081
1747683027012324026,-0.084
1747683027020010660,-0.08600000000000001
1747683027027697294,-0.081
1747683027035383928,-0.079
1747683027043070562,-0.08600000000000001
1747683027050757196,-0.091
1747683027058443830,-0.074
1747683027066130464,0.096
1747683027073817098,0.46
1747683027081503732,0.598
1747683027089190366,0.178
1747683027096877000,-0.34600000000000003
1747683027104563634,-0.437
1747683027112250268,-0.279
1747683027119936902,-0.22
1747683027127623536,-0.168
1747683027135310179,-0.08600000000000001,86,703
1747683027142996882,-0.079
1747683027150683585,-0.091
1747683027158370288,-0.081
1747683027166056991,-0.076
1747683027173743694,-0.069
1747683027181430397,-0.054
1747683027189117100,-0.051000000000000004
1747683027196803803,-0.049
1747683027204490506,-0.047
1747683027212177209,-0.054
1747683027219863912,-0.049
1747683027227550615,-0.034
1747683027235237318,-0.037
1747683027242924021,-0.032
1747683027250610724,-0.017
1747683027258297427,-0.022
1747683027265984130,-0.037
1747683027273670833,-0.019
1747683027281357536,-0.002
1747683027289044239,-0.002
1747683027296730942,0.007
1747683027304417645,0.014
1747683027312104348,0.004
1747683027319791051,0.007
1747683027327477754,0.014
1747683027335164457,0.004
1747683027342851160,-0.002
1747683027350537863,-0.004
1747683027358224566,-0.009000000000000001
1747683027365911269,-0.024
1747683027373597972,-0.047
1747683027381284675,-0.066
1747683027388971378,-0.084
1747683027396658081,-0.111
1747683027404344784,-0.131
1747683027412031487,-0.128
1747683027419718190,-0.128
1747683027427404893,-0.138
1747683027435091596,-0.14100000000000001
1747683027442778299,-0.133
1747683027450465002,-0.131
1747683027458151705,-0.123
1747683027465838408,-0.116
1747683027473525111,-0.111
1747683027481211814,-0.111
1747683027488898517,-0.116
1747683027496585220,-0.126
1747683027504271923,-0.123
1747683027511958626,-0.106
1747683027519645329,-0.10300000000000001
1747683027527332032,-0.121
1747683027535018735,-0.123
1747683027542705438,-0.108
1747683027550392141,-0.111
1747683027558078844,-0.123
1747683027565765547,-0.116
1747683027573452250,-0.108
1747683027581138953,-0.116
1747683027588825656,-0.123
1747683027596512359,-0.136
1747683027604199062,-0.126
1747683027611885765,-0.108
1747683027619572468,-0.108
1747683027627259171,-0.11800000000000001
1747683027634945874,-0.11800000000000001
1747683027642632577,-0.11800000000000001
1747683027650319280,-0.113
1747683027658005983,-0.098
1747683027665692686,-0.098
1747683027673379389,-0.108
1747683027681066092,-0.098
1747683027688752795,-0.094
1747683027696439562,-0.108,86,761
1747683027704125847,-0.116,,848
1747683027711812132,-0.11800000000000001
1747683027719498417,-0.116
1747683027727184702,-0.106
1747683027734870987,-0.089
1747683027742557272,-0.076
1747683027750243557,-0.069
1747683027757929842,-0.066
1747683027765616127,-0.074
1747683027773302412,-0.101
1747683027780988697,-0.10300000000000001
1747683027788674982,-0.089
1747683027796361267,-0.098
1747683027804047552,-0.101
1747683027811733837,-0.079
1747683027819420122,-0.079
1747683027827106407,-0.10300000000000001
1747683027834792692,-0.091
1747683027842478977,0.017
1747683027850165262,0.321
1747683027857851547,0.581
1747683027865537832,0.294
1747683027873224117,-0.306
1747683027880910402,-0.497
1747683027888596687,-0.321
1747683027896282972,-0.259
1747683027903969257,-0.249
1747683027911655542,-0.136
1747683027919341827,-0.069
1747683027927028112,-0.076
1747683027934714397,-0.061
1747683027942400682,-0.042
1747683027950086967,-0.042
1747683027957773252,-0.039
1747683027965459537,-0.032
1747683027973145822,-0.024
1747683027980832107,-0.027
1747683027988518392,-0.029
1747683027996204677,-0.022
1747683028003890962,-0.019
1747683028011577247,-0.014
1747683028019263532,-0.009000000000000001
1747683028026949817,-0.004
1747683028034636102,0.004
1747683028042322387,0.022
1747683028050008672,0.027
1747683028057694957,0.017
1747683028065381242,0.017
1747683028073067527,0.044
1747683028080753812,0.059000000000000004
1747683028088440097,0.047
1747683028096126382,0.042
1747683028103812667,0.054
1747683028111498952,0.049
1747683028119185237,0.047
1747683028126871522,0.049
1747683028134557807,0.039
1747683028142244092,0.017
1747683028149930377,-0.014
1747683028157616662,-0.047
1747683028165302947,-0.069
1747683028172989232,-0.098
1747683028180675517,-0.126
1747683028188361802,-0.131
1747683028196048087,-0.133
1747683028203734372,-0.136
1747683028211420657,-0.128
1747683028219106942,-0.121
1747683028226793227,-0.116
1747683028234479512,-0.121
1747683028242165797,-0.123
1747683028249852082,-0.113
1747683028257538423,-0.106
1747683028265225126,-0.10300000000000001
1747683028272911829,-0.101
1747683028280598532,-0.094
1747683028288285235,-0.089
1747683028295971938,-0.094
1747683028303658641,-0.108
1747683028311345344,-0.106
1747683028319032047,-0.101
1747683028326718750,-0.111
1747683028334405453,-0.108
1747683028342092156,-0.096
1747683028349778859,-0.108
1747683028357465562,-0.11800000000000001
1747683028365152265,-0.10300000000000001
1747683028372838968,-0.10300000000000001
1747683028380525671,-0.113
1747683028388212374,-0.111
1747683028395899077,-0.106
1747683028403585780,-0.106
1747683028411272483,-0.106
1747683028418959186,-0.098
1747683028426645889,-0.094
1747683028434332592,-0.094
1747683028442019295,-0.098
1747683028449705998,-0.106
1747683028457392701,-0.113
1747683028465079404,-0.116
1747683028472766107,-0.106
1747683028480452810,-0.089
1747683028488139513,-0.074
1747683028495826216,-0.064
1747683028503512919,-0.069
1747683028511199622,-0.066
1747683028518886325,-0.064
1747683028526573028,-0.081
1747683028534259731,-0.098
1747683028541946434,-0.094
1747683028549633137,-0.084
1747683028557319840,-0.084
1747683028565006543,-0.08600000000000001
1747683028572693246,-0.084
1747683028580379949,-0.091
1747683028588066652,-0.106
1747683028595753355,-0.017
1747683028603440058,0.304
1747683028611126761,0.623
1747683028618813464,0.43
1747683028626500167,-0.183
1747683028634186870,-0.494
1747683028641873573,-0.341
1747683028649560276,-0.215
1747683028657246979,-0.21
1747683028664933682,-0.131
1747683028672620385,-0.066
1747683028680307088,-0.08600000000000001
1747683028687993791,-0.089
1747683028695680494,-0.064
1747683028703367197,-0.051000000000000004
1747683028711053900,-0.047
1747683028718740603,-0.044
1747683028726427306,-0.047
1747683028734114009,-0.044
1747683028741800712,-0.039
1747683028749487415,-0.032
1747683028757174118,-0.027
1747683028764860821,-0.029
1747683028772547524,-0.024
1747683028780234227,-0.017
1747683028787920930,-0.012
1747683028795607633,-0.007
1747683028803294336,-0.002
1747683028810981039,0.004
1747683028818667802,0.014,84,831
1747683028826354505,0.014
1747683028834041208,0.017
1747683028841727911,0.024
1747683028849414614,0.027
1747683028857101317,0.022
1747683028864788020,0.019
1747683028872474723,0.019
1747683028880161426,0.014
1747683028887848129,0.007
1747683028895534832,-0.007
1747683028903221535,-0.029
1747683028910908238,-0.056
1747683028918594941,-0.081
1747683028926281644,-0.10300000000000001
1747683028933968347,-0.11800000000000001
1747683028941655050,-0.128
1747683028949341753,-0.128
1747683028957028456,-0.131
1747683028964715159,-0.138
1747683028972401862,-0.133
1747683028980088565,-0.11800000000000001
1747683028987775268,-0.11800000000000001
1747683028995461971,-0.123
1747683029003148674,-0.113
1747683029010835377,-0.098
1747683029018522080,-0.10300000000000001
1747683029026208783,-0.111
1747683029033895486,-0.108
1747683029041582189,-0.108
1747683029049268892,-0.111
1747683029056955595,-0.101
1747683029064642298,-0.096
1747683029072329001,-0.101
1747683029080015704,-0.116
1747683029087702407,-0.123
1747683029095389110,-0.113
1747683029103075813,-0.108
1747683029110762516,-0.113
1747683029118449219,-0.113
1747683029126135922,-0.10300000000000001
1747683029133822625,-0.101
1747683029141509328,-0.106
1747683029149196031,-0.106
1747683029156882734,-0.101
1747683029164569437,-0.116
1747683029172256140,-0.123
1747683029179942843,-0.108
1747683029187629546,-0.101
1747683029195316249,-0.101
1747683029203002952,-0.10300000000000001
1747683029210689655,-0.111
1747683029218376358,-0.121
1747683029226063061,-0.121
1747683029233749764,-0.113
1747683029241436467,-0.096
1747683029249123170,-0.076
1747683029256809873,-0.07100000000000001
1747683029264496576,-0.079
1747683029272183279,-0.07100000000000001
1747683029279869982,-0.069
1747683029287556685,-0.08600000000000001
1747683029295243388,-0.101
1747683029302930091,-0.10300000000000001
1747683029310616794,-0.101
1747683029318303497,-0.091
1747683029325990200,-0.084
1747683029333676903,-0.091
1747683029341363606,-0.108
1747683029349050309,-0.111
1747683029356737012,0.004
1747683029364423715,0.34600000000000003
1747683029372110418,0.633
1747683029379797181,0.385
1747683029387483884,-0.22
1747683029395170587,-0.47900000000000004
1747683029402857290,-0.314
1747683029410543993,-0.20700000000000002
1747683029418230696,-0.197
1747683029425917399,-0.11800000000000001
1747683029433604102,-0.074
1747683029441290805,-0.091
1747683029448977508,-0.08600000000000001
1747683029456664211,-0.07100000000000001
1747683029464350914,-0.064
1747683029472037617,-0.049
1747683029479724320,-0.047
1747683029487411023,-0.054
1747683029495097726,-0.044
1747683029502784429,-0.039
1747683029510471132,-0.044
1747683029518157835,-0.032
1747683029525844538,-0.027
1747683029533531241,-0.034
1747683029541217944,-0.034
1747683029548904647,-0.017
1747683029556591350,-0.007
1747683029564278053,-0.007
1747683029571964756,-0.004
1747683029579651459,0.0
1747683029587338162,0.009000000000000001
1747683029595024865,0.019
1747683029602711568,0.024
1747683029610398271,0.019
1747683029618084974,0.007
1747683029625771677,0.007
1747683029633458380,0.017
1747683029641145083,0.009000000000000001
1747683029648831786,-0.007
1747683029656518489,-0.014
1747683029664205192,-0.024
1747683029671891895,-0.054
1747683029679578598,-0.089
1747683029687265301,-0.101
1747683029694952004,-0.11800000000000001
1747683029702638707,-0.14100000000000001
1747683029710325410,-0.14300000000000002
1747683029718012113,-0.133
1747683029725698816,-0.133
1747683029733385519,-0.133
1747683029741072222,-0.128
1747683029748758925,-0.123
1747683029756445628,-0.116
1747683029764132331,-0.111
1747683029771819034,-0.116
1747683029779505737,-0.116
1747683029787192440,-0.106
1747683029794879143,-0.10300000000000001
1747683029802565846,-0.113
1747683029810252549,-0.116
1747683029817939252,-0.108
1747683029825625955,-0.106
1747683029833312658,-0.111
1747683029840999361,-0.116
1747683029848686064,-0.116
1747683029856372767,-0.108
1747683029864059470,-0.116
1747683029871746173,-0.126
1747683029879432876,-0.116
1747683029887119579,-0.111
1747683029894806282,-0.116
1747683029902492985,-0.116
1747683029910179688,-0.108
1747683029917866391,-0.108
1747683029925553094,-0.116
1747683029933239797,-0.113
1747683029940926560,-0.106,83,778
1747683029948613263,-0.113
1747683029956299966,-0.126
1747683029963986669,-0.128
1747683029971673372,-0.123
1747683029979360075,-0.116
1747683029987046778,-0.098
1747683029994733481,-0.079
1747683030002420184,-0.079
1747683030010106887,-0.081
1747683030017793590,-0.084
1747683030025480293,-0.098
1747683030033166996,-0.108
1747683030040853699,-0.098
1747683030048540402,-0.091
1747683030056227105,-0.106
1747683030063913808,-0.113
1747683030071600511,-0.10300000000000001
1747683030079287214,-0.10300000000000001
1747683030086973917,-0.121
1747683030094660620,-0.079
1747683030102347323,0.158
1747683030110034026,0.522
1747683030117720729,0.534
1747683030125407432,0.009000000000000001
1747683030133094135,-0.44
1747683030140780838,-0.403
1747683030148467541,-0.249
1747683030156154244,-0.23500000000000001
1747683030163840947,-0.17300000000000001
1747683030171527650,-0.08600000000000001
1747683030179214353,-0.094
1747683030186901056,-0.106
1747683030194587759,-0.076
1747683030202274462,-0.074
1747683030209961165,-0.081
1747683030217647868,-0.064
1747683030225334571,-0.051000000000000004
1747683030233021274,-0.051000000000000004
1747683030240707977,-0.059000000000000004
1747683030248394680,-0.07100000000000001
1747683030256081383,-0.066
1747683030263768086,-0.044
1747683030271454789,-0.037
1747683030279141492,-0.039
1747683030286828195,-0.034
1747683030294514898,-0.024
1747683030302201601,-0.027
1747683030309888304,-0.022
1747683030317575007,-0.012
1747683030325261710,-0.002
1747683030332948413,0.002
1747683030340635116,0.007
1747683030348321819,0.004
1747683030356008522,0.002
1747683030363695225,0.004
1747683030371381928,0.007
1747683030379068631,0.009000000000000001
1747683030386755334,-0.004
1747683030394442037,-0.029
1747683030402128740,-0.049
1747683030409815443,-0.061
1747683030417502146,-0.089
1747683030425188849,-0.128
1747683030432875552,-0.14300000000000002
1747683030440562255,-0.136
1747683030448248958,-0.148
1747683030455935661,-0.165
1747683030463622364,-0.153
1747683030471309067,-0.14100000000000001
1747683030478995770,-0.145
1747683030486682473,-0.145
1747683030494369176,-0.136
1747683030502055943,-0.133
1747683030509742228,-0.133
1747683030517428513,-0.126
1747683030525114798,-0.121
1747683030532801083,-0.121
1747683030540487368,-0.128
1747683030548173653,-0.131
1747683030555859938,-0.123
1747683030563546223,-0.133
1747683030571232508,-0.148
1747683030578918793,-0.138
1747683030586605078,-0.128
1747683030594291363,-0.133
1747683030601977648,-0.131
1747683030609663933,-0.128
1747683030617350218,-0.133
1747683030625036503,-0.136
1747683030632722788,-0.136
1747683030640409073,-0.136
1747683030648095358,-0.148
1747683030655781643,-0.155
1747683030663467928,-0.14300000000000002
1747683030671154213,-0.136
1747683030678840498,-0.133
1747683030686526783,-0.11800000000000001
1747683030694213068,-0.098
1747683030701899353,-0.096
1747683030709585638,-0.096
1747683030717271923,-0.10300000000000001
1747683030724958208,-0.113
1747683030732644493,-0.116
1747683030740330778,-0.116
1747683030748017063,-0.123
1747683030755703348,-0.123
1747683030763389633,-0.111
1747683030771075918,-0.111
1747683030778762203,-0.126
1747683030786448488,-0.128
1747683030794134773,-0.074
1747683030801821058,0.153
1747683030809507343,0.507
1747683030817193628,0.487
1747683030824879913,-0.10300000000000001
1747683030832566198,-0.541
1747683030840252483,-0.437
1747683030847938768,-0.294
1747683030855625053,-0.299
1747683030863311338,-0.212
1747683030870997623,-0.096
1747683030878683908,-0.098
1747683030886370193,-0.111
1747683030894056478,-0.079
1747683030901742763,-0.069
1747683030909429048,-0.074
1747683030917115333,-0.064
1747683030924801618,-0.059000000000000004
1747683030932487903,-0.061
1747683030940174188,-0.049
1747683030947860473,-0.034
1747683030955546758,-0.042
1747683030963233043,-0.039
1747683030970919328,-0.024
1747683030978605613,-0.027
1747683030986291898,-0.029
1747683030993978183,-0.017
1747683031001664468,-0.009000000000000001
1747683031009350753,-0.007
1747683031017037038,0.007
1747683031024723323,0.022
1747683031032409608,0.029
1747683031040095893,0.034
1747683031047782178,0.039
1747683031055468463,0.039
1747683031063154804,0.042,82,755
1747683031070841507,0.037,,761
1747683031078528210,0.024
1747683031086214913,0.022
1747683031093901616,0.004
1747683031101588319,-0.034
1747683031109275022,-0.066
1747683031116961725,-0.089
1747683031124648428,-0.116
1747683031132335131,-0.136
1747683031140021834,-0.15
1747683031147708537,-0.158
1747683031155395240,-0.158
1747683031163081943,-0.153
1747683031170768646,-0.153
1747683031178455349,-0.14300000000000002
1747683031186142052,-0.133
1747683031193828755,-0.133
1747683031201515458,-0.133
1747683031209202161,-0.11800000000000001
1747683031216888864,-0.113
1747683031224575567,-0.126
1747683031232262270,-0.128
1747683031239948973,-0.116
1747683031247635676,-0.111
1747683031255322379,-0.11800000000000001
1747683031263009082,-0.121
1747683031270695785,-0.123
1747683031278382488,-0.123
1747683031286069191,-0.128
1747683031293755894,-0.136
1747683031301442597,-0.136
1747683031309129300,-0.128
1747683031316816003,-0.126
1747683031324502706,-0.123
1747683031332189409,-0.128
1747683031339876112,-0.133
1747683031347562815,-0.133
1747683031355249518,-0.131
1747683031362936221,-0.136
1747683031370622924,-0.14300000000000002
1747683031378309627,-0.126
1747683031385996330,-0.094
1747683031393683033,-0.096
1747683031401369736,-0.098
1747683031409056439,-0.08600000000000001
1747683031416743142,-0.089
1747683031424429845,-0.116
1747683031432116548,-0.128
1747683031439803251,-0.121
1747683031447489954,-0.116
1747683031455176657,-0.106
1747683031462863360,-0.101
1747683031470550063,-0.101
1747683031478236766,-0.108
1747683031485923469,-0.10300000000000001
1747683031493610172,0.024
1747683031501296875,0.376
1747683031508983578,0.606
1747683031516670281,0.254
1747683031524356984,-0.35100000000000003
1747683031532043687,-0.514
1747683031539730390,-0.324
1747683031547417093,-0.242
1747683031555103796,-0.217
1747683031562790499,-0.11800000000000001
1747683031570477202,-0.079
1747683031578163905,-0.098
1747683031585850608,-0.084
1747683031593537311,-0.064
1747683031601224014,-0.069
1747683031608910717,-0.059000000000000004
1747683031616597420,-0.051000000000000004
1747683031624284183,-0.061
1747683031631970886,-0.061
1747683031639657589,-0.051000000000000004
1747683031647344292,-0.049
1747683031655030995,-0.042
1747683031662717698,-0.034
1747683031670404401,-0.029
1747683031678091104,-0.027
1747683031685777807,-0.027
1747683031693464510,-0.024
1747683031701151213,-0.014
1747683031708837916,-0.002
1747683031716524619,-0.002
1747683031724211322,-0.002
1747683031731898025,0.004
1747683031739584728,0.014
1747683031747271431,0.019
1747683031754958134,0.014
1747683031762644837,0.004
1747683031770331540,-0.002
1747683031778018243,-0.004
1747683031785704946,-0.012
1747683031793391649,-0.032
1747683031801078352,-0.059000000000000004
1747683031808765055,-0.089
1747683031816451758,-0.116
1747683031824138461,-0.136
1747683031831825164,-0.145
1747683031839511867,-0.148
1747683031847198570,-0.15
1747683031854885273,-0.148
1747683031862571976,-0.14300000000000002
1747683031870258679,-0.138
1747683031877945382,-0.14300000000000002
1747683031885632085,-0.14100000000000001
1747683031893318788,-0.123
1747683031901005491,-0.116
1747683031908692194,-0.126
1747683031916378897,-0.126
1747683031924065600,-0.123
1747683031931752303,-0.123
1747683031939439006,-0.121
1747683031947125709,-0.123
1747683031954812412,-0.128
1747683031962499115,-0.121
1747683031970185818,-0.11800000000000001
1747683031977872521,-0.126
1747683031985559224,-0.131
1747683031993245927,-0.126
1747683032000932630,-0.11800000000000001
1747683032008619333,-0.121
1747683032016306036,-0.128
1747683032023992739,-0.133
1747683032031679442,-0.136
1747683032039366145,-0.136
1747683032047052848,-0.133
1747683032054739551,-0.126
1747683032062426254,-0.121
1747683032070112957,-0.111
1747683032077799660,-0.098
1747683032085486363,-0.091
1747683032093173066,-0.091
1747683032100859769,-0.098
1747683032108546472,-0.111
1747683032116233175,-0.113
1747683032123919878,-0.111
1747683032131606581,-0.116
1747683032139293284,-0.113
1747683032146979987,-0.10300000000000001
1747683032154666690,-0.106
1747683032162353393,-0.121
1747683032170040096,-0.128
1747683032177726799,-0.049
1747683032185413562,0.257,81,741
1747683032193100126,0.603
1747683032200786690,0.465
1747683032208473254,-0.126
1747683032216159818,-0.462
1747683032223846382,-0.34600000000000003
1747683032231532946,-0.232
1747683032239219510,-0.227
1747683032246906074,-0.14300000000000002
1747683032254592638,-0.07100000000000001
1747683032262279202,-0.096
1747683032269965766,-0.10300000000000001
1747683032277652330,-0.074
1747683032285338894,-0.066
1747683032293025458,-0.069
1747683032300712022,-0.056
1747683032308398586,-0.059000000000000004
1747683032316085150,-0.061
1747683032323771714,-0.051000000000000004
1747683032331458278,-0.051000000000000004
1747683032339144842,-0.051000000000000004
1747683032346831406,-0.037
1747683032354517970,-0.037
1747683032362204534,-0.037
1747683032369891098,-0.029
1747683032377577662,-0.022
1747683032385264226,-0.017
1747683032392950790,-0.012
1747683032400637354,-0.012
1747683032408323918,0.0
1747683032416010482,0.009000000000000001
1747683032423697046,0.012
1747683032431383610,0.012
1747683032439070174,0.009000000000000001
1747683032446756738,-0.002
1747683032454443302,-0.002
1747683032462129866,0.007
1747683032469816430,-0.002
1747683032477502994,-0.029
1747683032485189558,-0.059000000000000004
1747683032492876122,-0.076
1747683032500562686,-0.094
1747683032508249250,-0.116
1747683032515935814,-0.133
1747683032523622378,-0.14100000000000001
1747683032531308942,-0.14300000000000002
1747683032538995506,-0.145
1747683032546682070,-0.153
1747683032554368634,-0.145
1747683032562055198,-0.128
1747683032569741762,-0.126
1747683032577428326,-0.133
1747683032585114890,-0.138
1747683032592801454,-0.128
1747683032600488018,-0.116
1747683032608174582,-0.111
1747683032615861146,-0.116
1747683032623547710,-0.116
1747683032631234274,-0.11800000000000001
1747683032638920838,-0.128
1747683032646607402,-0.126
1747683032654293966,-0.121
1747683032661980530,-0.126
1747683032669667094,-0.126
1747683032677353658,-0.11800000000000001
1747683032685040222,-0.113
1747683032692726786,-0.11800000000000001
1747683032700413350,-0.136
1747683032708099914,-0.14100000000000001
1747683032715786478,-0.126
1747683032723473042,-0.128
1747683032731159606,-0.145
1747683032738846170,-0.138
1747683032746532771,-0.121,81,699
1747683032754219196,-0.101,,695
1747683032761905621,-0.089
1747683032769592046,-0.096
1747683032777278471,-0.098
1747683032784964896,-0.089
1747683032792651321,-0.101
1747683032800337746,-0.128
1747683032808024171,-0.128
1747683032815710596,-0.116
1747683032823397021,-0.111
1747683032831083446,-0.108
1747683032838769871,-0.111
1747683032846456296,-0.11800000000000001
1747683032854142721,-0.126
1747683032861829146,-0.106
1747683032869515571,0.037
1747683032877201996,0.368
1747683032884888421,0.5760000000000001
1747683032892574846,0.257
1747683032900261271,-0.291
1747683032907947696,-0.457
1747683032915634121,-0.294
1747683032923320546,-0.215
1747683032931006971,-0.195
1747683032938693396,-0.126
1747683032946379821,-0.094
1747683032954066246,-0.101
1747683032961752671,-0.084
1747683032969439096,-0.064
1747683032977125521,-0.07100000000000001
1747683032984811946,-0.07100000000000001
1747683032992498371,-0.056
1747683033000184796,-0.054
1747683033007871221,-0.059000000000000004
1747683033015557646,-0.056
1747683033023244071,-0.049
1747683033030930496,-0.049
1747683033038616921,-0.042
1747683033046303346,-0.037
1747683033053989771,-0.044
1747683033061676196,-0.037
1747683033069362621,-0.019
1747683033077049046,-0.017
1747683033084735471,-0.017
1747683033092421896,-0.009000000000000001
1747683033100108321,-0.004
1747683033107794746,0.004
1747683033115481171,0.014
1747683033123167596,0.012
1747683033130854021,0.002
1747683033138540446,-0.004
1747683033146226871,-0.012
1747683033153913296,-0.009000000000000001
1747683033161599721,-0.014
1747683033169286146,-0.032
1747683033176972571,-0.047
1747683033184658996,-0.07100000000000001
1747683033192345421,-0.101
1747683033200031846,-0.121
1747683033207718271,-0.133
1747683033215404696,-0.145
1747683033223091121,-0.14100000000000001
1747683033230777546,-0.133
1747683033238463971,-0.136
1747683033246150396,-0.14100000000000001
1747683033253836821,-0.128
1747683033261523246,-0.121
1747683033269209671,-0.126
1747683033276896096,-0.123
1747683033284582521,-0.11800000000000001
1747683033292268946,-0.121
1747683033299955371,-0.121
1747683033307641802,-0.121
1747683033315328505,-0.11800000000000001
1747683033323015208,-0.116
1747683033330701911,-0.116
1747683033338388614,-0.11800000000000001
1747683033346075317,-0.126
1747683033353762020,-0.126
1747683033361448723,-0.126
1747683033369135426,-0.126
1747683033376822129,-0.123
1747683033384508832,-0.126
1747683033392195535,-0.126
1747683033399882238,-0.11800000000000001
1747683033407568941,-0.121
1747683033415255644,-0.131
1747683033422942347,-0.131
1747683033430629050,-0.131
1747683033438315753,-0.128
1747683033446002456,-0.111
1747683033453689159,-0.094
1747683033461375862,-0.091
1747683033469062565,-0.08600000000000001
1747683033476749268,-0.089
1747683033484435971,-0.108
1747683033492122674,-0.121
1747683033499809377,-0.111
1747683033507496080,-0.106
1747683033515182783,-0.111
1747683033522869486,-0.108
1747683033530556189,-0.101
1747683033538242892,-0.10300000000000001
1747683033545929595,-0.121
1747683033553616298,-0.111
1747683033561303001,0.056
1747683033568989704,0.427
1747683033576676407,0.586
1747683033584363110,0.185
1747683033592049813,-0.34800000000000003
1747683033599736516,-0.447
1747683033607423219,-0.279
1747683033615109922,-0.232
1747683033622796625,-0.197
1747683033630483328,-0.094
1747683033638170031,-0.081
1747683033645856734,-0.11800000000000001
1747683033653543437,-0.094
1747683033661230140,-0.07100000000000001
1747683033668916843,-0.076
1747683033676603546,-0.076
1747683033684290249,-0.066
1747683033691976952,-0.061
1747683033699663655,-0.066
1747683033707350358,-0.064
1747683033715037061,-0.051000000000000004
1747683033722723764,-0.044
1747683033730410467,-0.047
1747683033738097170,-0.047
1747683033745783873,-0.039
1747683033753470576,-0.039
1747683033761157279,-0.039
1747683033768843982,-0.019
1747683033776530685,-0.002
1747683033784217388,-0.004
1747683033791904091,-0.002
1747683033799590794,0.007
1747683033807277497,0.014
1747683033814964200,0.007
1747683033822650903,0.0
1747683033830337606,0.002
1747683033838024309,0.007
1747683033845711012,-0.002
1747683033853397715,-0.022
1747683033861084418,-0.042
1747683033868771181,-0.069,82,687
1747683033876457536,-0.094
1747683033884143891,-0.108
1747683033891830246,-0.128
1747683033899516601,-0.145
1747683033907202956,-0.145
1747683033914889311,-0.14100000000000001
1747683033922575666,-0.15
1747683033930262021,-0.14300000000000002
1747683033937948376,-0.128
1747683033945634731,-0.14300000000000002
1747683033953321086,-0.155
1747683033961007441,-0.136
1747683033968693796,-0.123
1747683033976380151,-0.131
1747683033984066506,-0.133
1747683033991752861,-0.121
1747683033999439216,-0.123
1747683034007125571,-0.133
1747683034014811926,-0.128
1747683034022498281,-0.131
1747683034030184636,-0.14100000000000001
1747683034037870991,-0.136
1747683034045557346,-0.136
1747683034053243701,-0.14300000000000002
1747683034060930056,-0.131
1747683034068616411,-0.126
1747683034076302766,-0.14300000000000002
1747683034083989121,-0.148
1747683034091675476,-0.145
1747683034099361831,-0.148
1747683034107048186,-0.148
1747683034114734541,-0.14300000000000002
1747683034122420896,-0.121
1747683034130107251,-0.101
1747683034137793606,-0.108
1747683034145479961,-0.106
1747683034153166316,-0.098
1747683034160852671,-0.121
1747683034168539026,-0.133
1747683034176225381,-0.126
1747683034183911736,-0.123
1747683034191598091,-0.121
1747683034199284446,-0.113
1747683034206970801,-0.11800000000000001
1747683034214657156,-0.123
1747683034222343511,-0.123
1747683034230029866,-0.084
1747683034237716221,0.131
1747683034245402576,0.494
1747683034253088931,0.504
1747683034260775286,-0.037
1747683034268461641,-0.482
1747683034276147996,-0.44
1747683034283834351,-0.311
1747683034291520706,-0.299
1747683034299207061,-0.215
1747683034306893416,-0.106
1747683034314579771,-0.094
1747683034322266126,-0.098
1747683034329952481,-0.081
1747683034337638836,-0.07100000000000001
1747683034345325191,-0.061
1747683034353011546,-0.061
1747683034360697901,-0.061
1747683034368384256,-0.059000000000000004
1747683034376070611,-0.051000000000000004
1747683034383756966,-0.042
1747683034391443321,-0.034
1747683034399129676,-0.042
1747683034406816031,-0.039
1747683034414502386,-0.027
1747683034422188741,-0.017
1747683034429875133,-0.009000000000000001
1747683034437561767,-0.004
1747683034445248401,-0.004
1747683034452935035,0.0
1747683034460621669,0.014
1747683034468308303,0.034
1747683034475994937,0.042
1747683034483681571,0.034
1747683034491368205,0.032
1747683034499054839,0.037
1747683034506741473,0.032
1747683034514428107,0.024
1747683034522114741,0.004
1747683034529801375,-0.017
1747683034537488009,-0.032
1747683034545174643,-0.059000000000000004
1747683034552861277,-0.096
1747683034560547911,-0.11800000000000001
1747683034568234545,-0.131
1747683034575921179,-0.148
1747683034583607813,-0.165
1747683034591294447,-0.16
1747683034598981081,-0.148
1747683034606667715,-0.148
1747683034614354349,-0.15
1747683034622040983,-0.133
1747683034629727617,-0.11800000000000001
1747683034637414251,-0.126
1747683034645100885,-0.138
1747683034652787519,-0.131
1747683034660474153,-0.11800000000000001
1747683034668160787,-0.116
1747683034675847421,-0.116
1747683034683534055,-0.116
1747683034691220689,-0.116
1747683034698907323,-0.123
1747683034706593957,-0.145
1747683034714280591,-0.148
1747683034721967225,-0.123
1747683034729653859,-0.113
1747683034737340493,-0.11800000000000001
1747683034745027127,-0.113
1747683034752713761,-0.111
1747683034760400395,-0.128
1747683034768087029,-0.14300000000000002
1747683034775773663,-0.138
1747683034783460297,-0.131
1747683034791146931,-0.128
1747683034798833565,-0.121
1747683034806520199,-0.111
1747683034814206833,-0.111
1747683034821893467,-0.111
1747683034829580101,-0.111
1747683034837266735,-0.113
1747683034844953369,-0.126
1747683034852640003,-0.131
1747683034860326637,-0.128
1747683034868013271,-0.128
1747683034875699905,-0.121
1747683034883386539,-0.108
1747683034891073173,-0.121
1747683034898759807,-0.14100000000000001
1747683034906446441,-0.091
1747683034914133075,0.17
1747683034921819709,0.546
1747683034929506343,0.529
1747683034937192977,-0.024
1747683034944879611,-0.47000000000000003
1747683034952566245,-0.42
1747683034960252879,-0.264
1747683034967939513,-0.244
1747683034975626147,-0.185
1747683034983312781,-0.096
1747683034990999425,-0.101,83,689
1747683034998686128,-0.121,,690
1747683035006372831,-0.094
1747683035014059534,-0.076
1747683035021746237,-0.084
1747683035029432940,-0.074
1747683035037119643,-0.054
1747683035044806346,-0.056
1747683035052493049,-0.07100000000000001
1747683035060179752,-0.066
1747683035067866455,-0.049
1747683035075553158,-0.049
1747683035083239861,-0.056
1747683035090926564,-0.047
1747683035098613267,-0.037
1747683035106299970,-0.042
1747683035113986673,-0.044
1747683035121673376,-0.022
1747683035129360079,-0.004
1747683035137046782,-0.012
1747683035144733485,-0.007
1747683035152420188,0.009000000000000001
1747683035160106891,0.012
1747683035167793594,0.004
1747683035175480297,0.0
1747683035183167000,0.002
1747683035190853703,0.014
1747683035198540406,0.017
1747683035206227109,-0.019
1747683035213913812,-0.047
1747683035221600515,-0.061
1747683035229287218,-0.113
1747683035236973921,-0.15
1747683035244660624,-0.136
1747683035252347327,-0.14300000000000002
1747683035260034030,-0.158
1747683035267720733,-0.148
1747683035275407436,-0.145
1747683035283094139,-0.15
1747683035290780842,-0.14300000000000002
1747683035298467545,-0.136
1747683035306154248,-0.126
1747683035313840951,-0.11800000000000001
1747683035321527654,-0.126
1747683035329214357,-0.136
1747683035336901060,-0.133
1747683035344587763,-0.126
1747683035352274466,-0.121
1747683035359961169,-0.128
1747683035367647872,-0.14100000000000001
1747683035375334575,-0.136
1747683035383021278,-0.123
1747683035390707981,-0.123
1747683035398394684,-0.126
1747683035406081387,-0.111
1747683035413768090,-0.116
1747683035421454793,-0.136
1747683035429141496,-0.133
1747683035436828199,-0.126
1747683035444514902,-0.14100000000000001
1747683035452201605,-0.148
1747683035459888308,-0.14100000000000001
1747683035467575011,-0.133
1747683035475261714,-0.121
1747683035482948417,-0.108
1747683035490635120,-0.10300000000000001
1747683035498321823,-0.098
1747683035506008526,-0.096
1747683035513695229,-0.111
1747683035521381932,-0.128
1747683035529068635,-0.123
1747683035536755338,-0.113
1747683035544442041,-0.126
1747683035552128804,-0.128
1747683035559815507,-0.10300000000000001
1747683035567502210,-0.113
1747683035575188913,-0.14300000000000002
1747683035582875616,-0.101
1747683035590562319,0.145
1747683035598249022,0.524
1747683035605935725,0.5710000000000001
1747683035613622428,0.08600000000000001
1747683035621309131,-0.388
1747683035628995834,-0.405
1747683035636682537,-0.249
1747683035644369240,-0.217
1747683035652055943,-0.183
1747683035659742646,-0.108
1747683035667429349,-0.091
1747683035675116052,-0.096
1747683035682802755,-0.091
1747683035690489458,-0.084
1747683035698176161,-0.074
1747683035705862864,-0.074
1747683035713549567,-0.069
1747683035721236270,-0.061
1747683035728922973,-0.064
1747683035736609676,-0.066
1747683035744296379,-0.051000000000000004
1747683035751983082,-0.034
1747683035759669785,-0.049
1747683035767356488,-0.059000000000000004
1747683035775043191,-0.044
1747683035782729894,-0.032
1747683035790416597,-0.024
1747683035798103300,-0.022
1747683035805790003,-0.017
1747683035813476706,-0.014
1747683035821163409,-0.022
1747683035828850112,-0.007
1747683035836536815,0.022
1747683035844223518,0.024
1747683035851910221,0.002
1747683035859596924,-0.009000000000000001
1747683035867283627,-0.007
1747683035874970330,-0.012
1747683035882657033,-0.034
1747683035890343736,-0.054
1747683035898030439,-0.069
1747683035905717142,-0.08600000000000001
1747683035913403845,-0.11800000000000001
1747683035921090548,-0.15
1747683035928777251,-0.155
1747683035936463954,-0.145
1747683035944150657,-0.14100000000000001
1747683035951837360,-0.14300000000000002
1747683035959524063,-0.14300000000000002
1747683035967210766,-0.131
1747683035974897469,-0.121
1747683035982584172,-0.121
1747683035990270875,-0.121
1747683035997957578,-0.121
1747683036005644281,-0.123
1747683036013330984,-0.128
1747683036021017687,-0.123
1747683036028704390,-0.116
1747683036036391093,-0.116
1747683036044077796,-0.121
1747683036051764499,-0.121
1747683036059451202,-0.121
1747683036067137905,-0.126
1747683036074824608,-0.131
1747683036082511311,-0.138
1747683036090198014,-0.136
1747683036097884717,-0.126
1747683036105571420,-0.126
1747683036113258183,-0.133,83,674
1747683036120944886,-0.126
1747683036128631589,-0.11800000000000001
1747683036136318292,-0.138
1747683036144004995,-0.153
1747683036151691698,-0.14100000000000001
1747683036159378401,-0.126
1747683036167065104,-0.113
1747683036174751807,-0.106
1747683036182438510,-0.101
1747683036190125213,-0.091
1747683036197811916,-0.101
1747683036205498619,-0.121
1747683036213185322,-0.128
1747683036220872025,-0.128
1747683036228558728,-0.131
1747683036236245431,-0.123
1747683036243932134,-0.116
1747683036251618837,-0.11800000000000001
1747683036259305540,-0.126
1747683036266992243,-0.136
1747683036274678946,-0.098
1747683036282365649,0.113
1747683036290052352,0.457
1747683036297739055,0.499
1747683036305425758,0.037
1747683036313112461,-0.41300000000000003
1747683036320799164,-0.418
1747683036328485867,-0.267
1747683036336172570,-0.244
1747683036343859273,-0.202
1747683036351545976,-0.116
1747683036359232679,-0.111
1747683036366919382,-0.128
1747683036374606085,-0.106
1747683036382292788,-0.098
1747683036389979491,-0.10300000000000001
1747683036397666194,-0.089
1747683036405352897,-0.081
1747683036413039600,-0.091
1747683036420726303,-0.08600000000000001
1747683036428413006,-0.074
1747683036436099709,-0.07100000000000001
1747683036443786412,-0.079
1747683036451473115,-0.074
1747683036459159818,-0.069
1747683036466846521,-0.07100000000000001
1747683036474533224,-0.066
1747683036482219927,-0.051000000000000004
1747683036489906630,-0.049
1747683036497593333,-0.049
1747683036505280036,-0.037
1747683036512966739,-0.029
1747683036520653442,-0.024
1747683036528340145,-0.019
1747683036536026848,-0.017
1747683036543713551,-0.017
1747683036551400254,-0.027
1747683036559086957,-0.032
1747683036566773660,-0.032
1747683036574460363,-0.044
1747683036582147066,-0.07100000000000001
1747683036589833769,-0.096
1747683036597520472,-0.111
1747683036605207175,-0.138
1747683036612893878,-0.168
1747683036620580581,-0.168
1747683036628267284,-0.158
1747683036635953987,-0.168
1747683036643640690,-0.168
1747683036651327393,-0.153
1747683036659014096,-0.158
1747683036666700799,-0.168
1747683036674387562,-0.155,84,676
1747683036682074265,-0.133
1747683036689760968,-0.131
1747683036697447671,-0.14300000000000002
1747683036705134374,-0.14300000000000002
1747683036712821077,-0.133
1747683036720507780,-0.133
1747683036728194483,-0.136
1747683036735881186,-0.136
1747683036743567889,-0.138
1747683036751254592,-0.145
1747683036758941295,-0.148
1747683036766627998,-0.138
1747683036774314701,-0.128
1747683036782001404,-0.131
1747683036789688107,-0.14300000000000002
1747683036797374810,-0.155
1747683036805061513,-0.15
1747683036812748216,-0.145
1747683036820434919,-0.163
1747683036828121622,-0.163
1747683036835808325,-0.148
1747683036843495028,-0.145
1747683036851181731,-0.133
1747683036858868434,-0.108
1747683036866555137,-0.10300000000000001
1747683036874241840,-0.10300000000000001
1747683036881928543,-0.108
1747683036889615246,-0.126
1747683036897301949,-0.138
1747683036904988652,-0.133
1747683036912675355,-0.133
1747683036920362058,-0.131
1747683036928048761,-0.116
1747683036935735464,-0.113
1747683036943422167,-0.126
1747683036951108870,-0.131
1747683036958795573,-0.08600000000000001
1747683036966482276,0.138
1747683036974168979,0.487
1747683036981855682,0.455
1747683036989542385,-0.07100000000000001
1747683036997229088,-0.457
1747683037004915791,-0.4
1747683037012602494,-0.28200000000000003
1747683037020289197,-0.262
1747683037027975900,-0.183
1747683037035662603,-0.098
1747683037043349306,-0.101
1747683037051036009,-0.116
1747683037058722712,-0.091
1747683037066409415,-0.066
1747683037074096118,-0.059000000000000004
1747683037081782821,-0.059000000000000004
