time,ecg,hr,rr,marker
1747852313107464343,-0.147
1747852313115151046,-0.15
1747852313122837749,-0.147
1747852313130524452,-0.145
1747852313138211155,-0.145
1747852313145897858,-0.14
1747852313153584561,-0.132
1747852313161271264,-0.125
1747852313168957967,-0.12
1747852313176644670,-0.11
1747852313184331373,-0.1
1747852313192018076,-0.096
1747852313199704779,-0.096
1747852313207391482,-0.093
1747852313215078185,-0.093
1747852313222764888,-0.091
1747852313230451591,-0.091
1747852313238138294,-0.091
1747852313245824997,-0.093
1747852313253511700,-0.091
1747852313261198403,-0.093
1747852313268885106,-0.091
1747852313276571809,-0.08600000000000001
1747852313284258512,-0.078
1747852313291945215,-0.076
1747852313299631918,-0.076
1747852313307318621,-0.073
1747852313315005324,-0.073
1747852313322692027,-0.081
1747852313330378730,-0.083
1747852313338065433,-0.078
1747852313345752136,-0.07100000000000001
1747852313353438839,-0.059000000000000004
1747852313361125542,-0.049
1747852313368812245,-0.036000000000000004
1747852313376498948,-0.022
1747852313384185651,-0.027
1747852313391872354,-0.056
1747852313399559057,-0.073
1747852313407245760,-0.064
1747852313414932463,-0.059000000000000004
1747852313422619166,-0.059000000000000004
1747852313430305869,-0.054
1747852313437992572,-0.056
1747852313445679275,-0.07100000000000001
1747852313453365978,-0.113
1747852313461052681,-0.155
1747852313468739384,0.029
1747852313476426087,0.627
1747852313484112790,1.351
1747852313491799493,1.619
1747852313499486196,0.864
1747852313507172899,-0.379
1747852313514859602,-0.588
1747852313522546305,-0.076
1747852313530233008,-0.064
1747852313537919711,-0.214
1747852313545606414,-0.11
1747852313553293117,-0.073
1747852313560979820,-0.12
1747852313568666523,-0.08600000000000001
1747852313576353226,-0.049
1747852313584039929,-0.054
1747852313591726632,-0.036000000000000004
1747852313599413335,-0.009000000000000001
1747852313607100038,-0.002
1747852313614786741,0.012
1747852313622473444,0.036000000000000004
1747852313630160147,0.054
1747852313637846850,0.068
1747852313645533553,0.091
1747852313653220256,0.113
1747852313660906959,0.132
1747852313668593722,0.147,94,654
1747852313676280007,0.157
1747852313683966292,0.157
1747852313691652577,0.147
1747852313699338862,0.13
1747852313707025147,0.108
1747852313714711432,0.08600000000000001
1747852313722397717,0.066
1747852313730084002,0.049
1747852313737770287,0.024
1747852313745456572,-0.014
1747852313753142857,-0.061
1747852313760829142,-0.108
1747852313768515427,-0.15
1747852313776201712,-0.17400000000000002
1747852313783887997,-0.182
1747852313791574282,-0.182
1747852313799260567,-0.179
1747852313806946852,-0.17400000000000002
1747852313814633137,-0.169
1747852313822319422,-0.16
1747852313830005707,-0.152
1747852313837691992,-0.147
1747852313845378277,-0.14200000000000002
1747852313853064562,-0.135
1747852313860750847,-0.13
1747852313868437132,-0.128
1747852313876123417,-0.13
1747852313883809702,-0.137
1747852313891495987,-0.135
1747852313899182272,-0.13
1747852313906868557,-0.13
1747852313914554842,-0.13
1747852313922241127,-0.13
1747852313929927412,-0.13
1747852313937613697,-0.128
1747852313945299982,-0.123
1747852313952986267,-0.12
1747852313960672552,-0.12
1747852313968358837,-0.11800000000000001
1747852313976045122,-0.11800000000000001
1747852313983731407,-0.113
1747852313991417692,-0.108
1747852313999103977,-0.108
1747852314006790262,-0.113
1747852314014476547,-0.11800000000000001
1747852314022162832,-0.108
1747852314029849117,-0.096
1747852314037535402,-0.083
1747852314045221687,-0.068
1747852314052907972,-0.056
1747852314060594257,-0.049
1747852314068280542,-0.059000000000000004
1747852314075966827,-0.08600000000000001
1747852314083653112,-0.105
1747852314091339397,-0.093
1747852314099025682,-0.083
1747852314106711967,-0.08600000000000001
1747852314114398252,-0.08600000000000001
1747852314122084537,-0.083
1747852314129770822,-0.098
1747852314137457107,-0.145
1747852314145143392,-0.17400000000000002
1747852314152829677,0.046
1747852314160515962,0.679
1747852314168202247,1.4000000000000001
1747852314175888532,1.607
1747852314183574817,0.758
1747852314191261102,-0.462
1747852314198947387,-0.5680000000000001
1747852314206633672,-0.061
1747852314214319957,-0.096
1747852314222006242,-0.233
1747852314229692583,-0.113
1747852314237379286,-0.078
1747852314245065989,-0.123
1747852314252752692,-0.083
1747852314260439395,-0.046
1747852314268126098,-0.056
1747852314275812801,-0.041
1747852314283499504,-0.012
1747852314291186207,0.004
1747852314298872910,0.027
1747852314306559613,0.051000000000000004
1747852314314246316,0.068
1747852314321933019,0.08600000000000001
1747852314329619722,0.11
1747852314337306425,0.132
1747852314344993128,0.152
1747852314352679831,0.17200000000000001
1747852314360366534,0.187
1747852314368053237,0.184
1747852314375739940,0.17400000000000002
1747852314383426643,0.167
1747852314391113346,0.147
1747852314398800049,0.125
1747852314406486752,0.11
1747852314414173455,0.088
1747852314421860158,0.041
1747852314429546861,-0.007
1747852314437233564,-0.051000000000000004
1747852314444920267,-0.093
1747852314452606970,-0.128
1747852314460293673,-0.155
1747852314467980376,-0.167
1747852314475667079,-0.167
1747852314483353782,-0.167
1747852314491040485,-0.162
1747852314498727188,-0.147
1747852314506413891,-0.137
1747852314514100594,-0.132
1747852314521787297,-0.12
1747852314529474000,-0.113
1747852314537160703,-0.113
1747852314544847406,-0.11800000000000001
1747852314552534109,-0.11800000000000001
1747852314560220812,-0.108
1747852314567907515,-0.10300000000000001
1747852314575594218,-0.105
1747852314583280921,-0.108
1747852314590967624,-0.108
1747852314598654327,-0.11
1747852314606341030,-0.113
1747852314614027733,-0.105
1747852314621714436,-0.098
1747852314629401139,-0.098
1747852314637087842,-0.1
1747852314644774545,-0.1
1747852314652461248,-0.10300000000000001
1747852314660147951,-0.098
1747852314667834654,-0.096
1747852314675521357,-0.093
1747852314683208060,-0.093
1747852314690894763,-0.1
1747852314698581466,-0.1
1747852314706268169,-0.088
1747852314713954872,-0.068
1747852314721641575,-0.056
1747852314729328278,-0.054
1747852314737014981,-0.049
1747852314744701684,-0.039
1747852314752388387,-0.054
1747852314760075090,-0.081
1747852314767761793,-0.096
1747852314775448496,-0.098
1747852314783135199,-0.08600000000000001
1747852314790821966,-0.076,93,655
1747852314798508251,-0.081,,670
1747852314806194536,-0.088
1747852314813880821,-0.1
1747852314821567106,-0.147
1747852314829253391,-0.167
1747852314836939676,0.093
1747852314844625961,0.745
1747852314852312246,1.417
1747852314859998531,1.528
1747852314867684816,0.61
1747852314875371101,-0.534
1747852314883057386,-0.529
1747852314890743671,-0.049
1747852314898429956,-0.11800000000000001
1747852314906116241,-0.211
1747852314913802526,-0.091
1747852314921488811,-0.083
1747852314929175096,-0.12
1747852314936861381,-0.076
1747852314944547666,-0.046
1747852314952233951,-0.041
1747852314959920236,-0.017
1747852314967606521,0.0
1747852314975292806,0.012
1747852314982979091,0.032
1747852314990665376,0.054
1747852314998351661,0.073
1747852315006037946,0.096
1747852315013724231,0.12
1747852315021410516,0.147
1747852315029096801,0.169
1747852315036783086,0.187
1747852315044469371,0.199
1747852315052155656,0.196
1747852315059841941,0.179
1747852315067528226,0.16
1747852315075214511,0.145
1747852315082900796,0.125
1747852315090587081,0.098
1747852315098273366,0.066
1747852315105959651,0.022
1747852315113645936,-0.029
1747852315121332221,-0.081
1747852315129018506,-0.11800000000000001
1747852315136704791,-0.155
1747852315144391076,-0.187
1747852315152077361,-0.199
1747852315159763646,-0.196
1747852315167449931,-0.194
1747852315175136216,-0.189
1747852315182822501,-0.182
1747852315190508786,-0.17400000000000002
1747852315198195071,-0.162
1747852315205881356,-0.152
1747852315213567641,-0.147
1747852315221253926,-0.145
1747852315228940211,-0.137
1747852315236626496,-0.13
1747852315244312781,-0.128
1747852315251999066,-0.13
1747852315259685351,-0.128
1747852315267371636,-0.128
1747852315275057921,-0.128
1747852315282744206,-0.125
1747852315290430491,-0.123
1747852315298116776,-0.125
1747852315305803061,-0.13
1747852315313489346,-0.13
1747852315321175631,-0.128
1747852315328861916,-0.123
1747852315336548201,-0.125
1747852315344234486,-0.123
1747852315351920827,-0.12
1747852315359607530,-0.115
1747852315367294233,-0.11800000000000001
1747852315374980936,-0.123
1747852315382667639,-0.123
1747852315390354342,-0.113
1747852315398041045,-0.096
1747852315405727748,-0.081
1747852315413414451,-0.07100000000000001
1747852315421101154,-0.064
1747852315428787857,-0.066
1747852315436474560,-0.088
1747852315444161263,-0.115
1747852315451847966,-0.115
1747852315459534669,-0.10300000000000001
1747852315467221372,-0.1
1747852315474908075,-0.098
1747852315482594778,-0.093
1747852315490281481,-0.1
1747852315497968184,-0.12
1747852315505654887,-0.17400000000000002
1747852315513341590,-0.162
1747852315521028293,0.189
1747852315528714996,0.893
1747852315536401699,1.5110000000000001
1747852315544088402,1.437
1747852315551775105,0.339
1747852315559461808,-0.657
1747852315567148511,-0.43
1747852315574835214,-0.024
1747852315582521917,-0.177
1747852315590208620,-0.224
1747852315597895323,-0.1
1747852315605582026,-0.11800000000000001
1747852315613268729,-0.137
1747852315620955432,-0.081
1747852315628642135,-0.066
1747852315636328838,-0.068
1747852315644015541,-0.044
1747852315651702244,-0.024
1747852315659388947,-0.012
1747852315667075650,0.004
1747852315674762353,0.027
1747852315682449056,0.046
1747852315690135759,0.07100000000000001
1747852315697822462,0.1
1747852315705509165,0.125
1747852315713195868,0.147
1747852315720882571,0.167
1747852315728569274,0.177
1747852315736255977,0.177
1747852315743942680,0.162
1747852315751629383,0.14
1747852315759316086,0.11800000000000001
1747852315767002789,0.093
1747852315774689492,0.066
1747852315782376195,0.036000000000000004
1747852315790062898,-0.009000000000000001
1747852315797749601,-0.061
1747852315805436304,-0.11
1747852315813123007,-0.15
1747852315820809710,-0.182
1747852315828496413,-0.201
1747852315836183116,-0.209
1747852315843869819,-0.20600000000000002
1747852315851556522,-0.201
1747852315859243225,-0.194
1747852315866929928,-0.184
1747852315874616631,-0.17400000000000002
1747852315882303334,-0.167
1747852315889990037,-0.162
1747852315897676740,-0.157
1747852315905363443,-0.155
1747852315913050206,-0.15,93,684
1747852315920736491,-0.147
1747852315928422776,-0.14200000000000002
1747852315936109061,-0.14200000000000002
1747852315943795346,-0.14
1747852315951481631,-0.14
1747852315959167916,-0.145
1747852315966854201,-0.145
1747852315974540486,-0.14
1747852315982226771,-0.137
1747852315989913056,-0.137
1747852315997599341,-0.137
1747852316005285626,-0.137
1747852316012971911,-0.137
1747852316020658196,-0.14
1747852316028344481,-0.137
1747852316036030766,-0.132
1747852316043717051,-0.128
1747852316051403336,-0.123
1747852316059089621,-0.11800000000000001
1747852316066775906,-0.11800000000000001
1747852316074462191,-0.12
1747852316082148476,-0.11800000000000001
1747852316089834761,-0.11
1747852316097521046,-0.096
1747852316105207331,-0.081
1747852316112893616,-0.07100000000000001
1747852316120579901,-0.061
1747852316128266186,-0.061
1747852316135952471,-0.083
1747852316143638756,-0.11
1747852316151325041,-0.115
1747852316159011326,-0.105
1747852316166697611,-0.10300000000000001
1747852316174383896,-0.10300000000000001
1747852316182070181,-0.10300000000000001
1747852316189756466,-0.11
1747852316197442751,-0.137
1747852316205129036,-0.196
1747852316212815321,-0.192
1747852316220501606,0.145
1747852316228187891,0.849
1747852316235874176,1.536
1747852316243560461,1.536
1747852316251246746,0.41100000000000003
1747852316258933031,-0.6890000000000001
1747852316266619316,-0.504
1747852316274305601,-0.066
1747852316281991886,-0.214
1747852316289678171,-0.28
1747852316297364456,-0.15
1747852316305050741,-0.162
1747852316312737026,-0.194
1747852316320423311,-0.14
1747852316328109596,-0.11800000000000001
1747852316335795881,-0.12
1747852316343482166,-0.093
1747852316351168451,-0.061
1747852316358854736,-0.041
1747852316366541021,-0.014
1747852316374227306,0.022
1747852316381913591,0.054
1747852316389599876,0.078
1747852316397286161,0.108
1747852316404972446,0.14
1747852316412658731,0.164
1747852316420345016,0.187
1747852316428031301,0.20600000000000002
1747852316435717586,0.214
1747852316443403871,0.20400000000000001
1747852316451090156,0.187
1747852316458776441,0.167
1747852316466462726,0.14200000000000002
1747852316474149067,0.115
1747852316481835770,0.078
1747852316489522473,0.027
1747852316497209176,-0.032
1747852316504895879,-0.088
1747852316512582582,-0.135
1747852316520269285,-0.167
1747852316527955988,-0.189
1747852316535642691,-0.20400000000000001
1747852316543329394,-0.20400000000000001
1747852316551016097,-0.194
1747852316558702800,-0.187
1747852316566389503,-0.179
1747852316574076206,-0.167
1747852316581762909,-0.157
1747852316589449612,-0.155
1747852316597136315,-0.152
1747852316604823018,-0.145
1747852316612509721,-0.14
1747852316620196424,-0.137
1747852316627883127,-0.132
1747852316635569830,-0.132
1747852316643256533,-0.132
1747852316650943236,-0.13
1747852316658629939,-0.13
1747852316666316642,-0.13
1747852316674003345,-0.132
1747852316681690048,-0.13
1747852316689376751,-0.132
1747852316697063454,-0.137
1747852316704750157,-0.137
1747852316712436860,-0.132
1747852316720123563,-0.132
1747852316727810266,-0.13
1747852316735496969,-0.125
1747852316743183672,-0.12
1747852316750870375,-0.11800000000000001
1747852316758557078,-0.11800000000000001
1747852316766243781,-0.115
1747852316773930484,-0.115
1747852316781617187,-0.12
1747852316789303890,-0.123
1747852316796990593,-0.113
1747852316804677296,-0.098
1747852316812363999,-0.08600000000000001
1747852316820050702,-0.078
1747852316827737405,-0.068
1747852316835424108,-0.059000000000000004
1747852316843110811,-0.07100000000000001
1747852316850797514,-0.108
1747852316858484217,-0.128
1747852316866170920,-0.115
1747852316873857623,-0.1
1747852316881544326,-0.1
1747852316889231029,-0.098
1747852316896917732,-0.096
1747852316904604435,-0.105
1747852316912291138,-0.15
1747852316919977841,-0.209
1747852316927664544,-0.093
1747852316935351247,0.443
1747852316943037950,1.235
1747852316950724653,1.733
1747852316958411356,1.216
1747852316966098059,-0.14
1747852316973784762,-0.704
1747852316981471465,-0.216
1747852316989158168,-0.056
1747852316996844871,-0.251
1747852317004531574,-0.182
1747852317012218277,-0.096
1747852317019904980,-0.145
1747852317027591683,-0.128
1747852317035278446,-0.07100000000000001,92,684
1747852317042964731,-0.064
1747852317050651016,-0.056
1747852317058337301,-0.032
1747852317066023586,-0.022
1747852317073709871,-0.012
1747852317081396156,0.0
1747852317089082441,0.022
1747852317096768726,0.051000000000000004
1747852317104455011,0.076
1747852317112141296,0.1
1747852317119827581,0.132
1747852317127513866,0.167
1747852317135200151,0.192
1747852317142886436,0.209
1747852317150572721,0.209
1747852317158259006,0.194
1747852317165945291,0.17200000000000001
1747852317173631576,0.147
1747852317181317861,0.125
1747852317189004146,0.098
1747852317196690431,0.051000000000000004
1747852317204376716,-0.009000000000000001
1747852317212063001,-0.068
1747852317219749286,-0.11800000000000001
1747852317227435571,-0.16
1747852317235121856,-0.192
1747852317242808141,-0.209
1747852317250494426,-0.214
1747852317258180711,-0.211
1747852317265866996,-0.201
1747852317273553281,-0.196
1747852317281239566,-0.189
1747852317288925851,-0.184
1747852317296612136,-0.182
1747852317304298421,-0.17400000000000002
1747852317311984706,-0.167
1747852317319670991,-0.162
1747852317327357276,-0.162
1747852317335043561,-0.157
1747852317342729846,-0.157
1747852317350416131,-0.16
1747852317358102416,-0.152
1747852317365788701,-0.14
1747852317373474986,-0.13
1747852317381161271,-0.125
1747852317388847556,-0.125
1747852317396533841,-0.125
1747852317404220126,-0.12
1747852317411906411,-0.11800000000000001
1747852317419592696,-0.115
1747852317427278981,-0.113
1747852317434965266,-0.11
1747852317442651551,-0.113
1747852317450337836,-0.115
1747852317458024121,-0.11
1747852317465710406,-0.10300000000000001
1747852317473396691,-0.098
1747852317481082976,-0.093
1747852317488769261,-0.091
1747852317496455546,-0.096
1747852317504141831,-0.1
1747852317511828116,-0.098
1747852317519514401,-0.08600000000000001
1747852317527200686,-0.073
1747852317534886971,-0.061
1747852317542573256,-0.046
1747852317550259541,-0.034
1747852317557945826,-0.034
1747852317565632111,-0.054
1747852317573318396,-0.083
1747852317581004681,-0.098
1747852317588690966,-0.091
1747852317596377307,-0.083,91,683
1747852317604064010,-0.078,,700
1747852317611750713,-0.068
1747852317619437416,-0.068
1747852317627124119,-0.091
1747852317634810822,-0.137
1747852317642497525,-0.196
1747852317650184228,-0.078
1747852317657870931,0.47000000000000003
1747852317665557634,1.272
1747852317673244337,1.7670000000000001
1747852317680931040,1.228
1747852317688617743,-0.137
1747852317696304446,-0.681
1747852317703991149,-0.192
1747852317711677852,-0.056
1747852317719364555,-0.248
1747852317727051258,-0.167
1747852317734737961,-0.088
1747852317742424664,-0.14200000000000002
1747852317750111367,-0.11800000000000001
1747852317757798070,-0.064
1747852317765484773,-0.064
1747852317773171476,-0.059000000000000004
1747852317780858179,-0.034
1747852317788544882,-0.019
1747852317796231585,-0.007
1747852317803918288,0.014
1747852317811604991,0.039
1747852317819291694,0.07100000000000001
1747852317826978397,0.10300000000000001
1747852317834665100,0.132
1747852317842351803,0.16
1747852317850038506,0.189
1747852317857725209,0.216
1747852317865411912,0.233
1747852317873098615,0.23600000000000002
1747852317880785318,0.221
1747852317888472021,0.201
1747852317896158724,0.17400000000000002
1747852317903845427,0.145
1747852317911532130,0.11
1747852317919218833,0.066
1747852317926905536,0.004
1747852317934592239,-0.059000000000000004
1747852317942278942,-0.11
1747852317949965645,-0.155
1747852317957652348,-0.189
1747852317965339051,-0.209
1747852317973025754,-0.216
1747852317980712457,-0.209
1747852317988399160,-0.199
1747852317996085863,-0.192
1747852318003772566,-0.187
1747852318011459269,-0.179
1747852318019145972,-0.164
1747852318026832675,-0.147
1747852318034519378,-0.14200000000000002
1747852318042206081,-0.14
1747852318049892784,-0.132
1747852318057579487,-0.125
1747852318065266190,-0.128
1747852318072952893,-0.123
1747852318080639596,-0.11800000000000001
1747852318088326299,-0.123
1747852318096013002,-0.128
1747852318103699705,-0.11800000000000001
1747852318111386408,-0.113
1747852318119073111,-0.12
1747852318126759814,-0.125
1747852318134446517,-0.123
1747852318142133220,-0.115
1747852318149819923,-0.113
1747852318157506690,-0.11
1747852318165193115,-0.11
1747852318172879540,-0.11
1747852318180565965,-0.105
1747852318188252390,-0.108
1747852318195938815,-0.113
1747852318203625240,-0.113
1747852318211311665,-0.113
1747852318218998090,-0.115
1747852318226684515,-0.11
1747852318234370940,-0.1
1747852318242057365,-0.083
1747852318249743790,-0.07100000000000001
1747852318257430215,-0.066
1747852318265116640,-0.056
1747852318272803065,-0.051000000000000004
1747852318280489490,-0.078
1747852318288175915,-0.113
1747852318295862340,-0.108
1747852318303548765,-0.091
1747852318311235190,-0.088
1747852318318921615,-0.08600000000000001
1747852318326608040,-0.073
1747852318334294465,-0.076
1747852318341980890,-0.093
1747852318349667315,-0.13
1747852318357353740,-0.182
1747852318365040165,-0.054
1747852318372726590,0.502
1747852318380413015,1.27
1747852318388099440,1.686
1747852318395785865,1.115
1747852318403472290,-0.189
1747852318411158715,-0.664
1747852318418845140,-0.182
1747852318426531565,-0.059000000000000004
1747852318434217990,-0.228
1747852318441904415,-0.145
1747852318449590840,-0.073
1747852318457277265,-0.123
1747852318464963690,-0.1
1747852318472650115,-0.056
1747852318480336540,-0.056
1747852318488022965,-0.049
1747852318495709390,-0.024
1747852318503395815,-0.009000000000000001
1747852318511082240,0.002
1747852318518768665,0.029
1747852318526455090,0.056
1747852318534141515,0.076
1747852318541827940,0.098
1747852318549514365,0.128
1747852318557200790,0.157
1747852318564887215,0.184
1747852318572573640,0.209
1747852318580260065,0.226
1747852318587946490,0.226
1747852318595632915,0.214
1747852318603319340,0.194
1747852318611005765,0.167
1747852318618692190,0.135
1747852318626378615,0.10300000000000001
1747852318634065040,0.059000000000000004
1747852318641751465,-0.002
1747852318649437890,-0.066
1747852318657124315,-0.123
1747852318664810740,-0.167
1747852318672497165,-0.199
1747852318680183590,-0.219
1747852318687870015,-0.231
1747852318695556440,-0.228
1747852318703242865,-0.214
1747852318710929290,-0.201
1747852318718615725,-0.196,90,711
1747852318726302289,-0.189
1747852318733988853,-0.184
1747852318741675417,-0.184
1747852318749361981,-0.182
1747852318757048545,-0.179
1747852318764735109,-0.17200000000000001
1747852318772421673,-0.164
1747852318780108237,-0.157
1747852318787794801,-0.147
1747852318795481365,-0.147
1747852318803167929,-0.147
1747852318810854493,-0.14200000000000002
1747852318818541057,-0.14200000000000002
1747852318826227621,-0.14
1747852318833914185,-0.135
1747852318841600749,-0.132
1747852318849287313,-0.13
1747852318856973877,-0.13
1747852318864660441,-0.14
1747852318872347005,-0.155
1747852318880033569,-0.152
1747852318887720133,-0.14200000000000002
1747852318895406697,-0.14
1747852318903093261,-0.137
1747852318910779825,-0.132
1747852318918466389,-0.132
1747852318926152953,-0.13
1747852318933839517,-0.128
1747852318941526081,-0.123
1747852318949212645,-0.12
1747852318956899209,-0.12
1747852318964585773,-0.11800000000000001
1747852318972272337,-0.105
1747852318979958901,-0.08600000000000001
1747852318987645465,-0.07100000000000001
1747852318995332029,-0.066
1747852319003018593,-0.064
1747852319010705157,-0.064
1747852319018391721,-0.083
1747852319026078285,-0.11
1747852319033764849,-0.113
1747852319041451413,-0.10300000000000001
1747852319049137977,-0.1
1747852319056824541,-0.096
1747852319064511105,-0.093
1747852319072197669,-0.1
1747852319079884233,-0.128
1747852319087570797,-0.192
1747852319095257361,-0.216
1747852319102943925,0.064
1747852319110630489,0.753
1747852319118317053,1.499
1747852319126003617,1.691
1747852319133690181,0.745
1747852319141376745,-0.524
1747852319149063309,-0.5730000000000001
1747852319156749873,-0.061
1747852319164436437,-0.137
1747852319172123001,-0.268
1747852319179809565,-0.137
1747852319187496129,-0.11800000000000001
1747852319195182693,-0.162
1747852319202869257,-0.115
1747852319210555821,-0.081
1747852319218242385,-0.083
1747852319225928949,-0.059000000000000004
1747852319233615513,-0.032
1747852319241302077,-0.022
1747852319248988641,0.0
1747852319256675205,0.022
1747852319264361769,0.044
1747852319272048333,0.068
1747852319279734930,0.096
1747852319287421494,0.123
1747852319295108058,0.152
1747852319302794622,0.182
1747852319310481186,0.20400000000000001
1747852319318167750,0.214
1747852319325854314,0.211
1747852319333540878,0.196
1747852319341227442,0.17400000000000002
1747852319348914006,0.15
1747852319356600570,0.123
1747852319364287134,0.088
1747852319371973698,0.036000000000000004
1747852319379660262,-0.029
1747852319387346826,-0.091
1747852319395033390,-0.14200000000000002
1747852319402719954,-0.187
1747852319410406518,-0.221
1747852319418093082,-0.233
1747852319425779646,-0.23600000000000002
1747852319433466210,-0.233
1747852319441152774,-0.228
1747852319448839338,-0.219
1747852319456525902,-0.209
1747852319464212466,-0.199
1747852319471899030,-0.189
1747852319479585594,-0.182
1747852319487272158,-0.177
1747852319494958722,-0.17200000000000001
1747852319502645286,-0.169
1747852319510331850,-0.167
1747852319518018414,-0.162
1747852319525704978,-0.155
1747852319533391542,-0.147
1747852319541078106,-0.145
1747852319548764670,-0.14200000000000002
1747852319556451234,-0.14
1747852319564137798,-0.14
1747852319571824362,-0.14200000000000002
1747852319579510926,-0.145
1747852319587197490,-0.14200000000000002
1747852319594884054,-0.137
1747852319602570618,-0.137
1747852319610257182,-0.132
1747852319617943746,-0.128
1747852319625630310,-0.123
1747852319633316874,-0.11800000000000001
1747852319641003438,-0.11800000000000001
1747852319648690002,-0.115
1747852319656376566,-0.113
1747852319664063130,-0.11
1747852319671749694,-0.105
1747852319679436258,-0.105
1747852319687122822,-0.1
1747852319694809386,-0.098
1747852319702495950,-0.098
1747852319710182514,-0.096
1747852319717869078,-0.098
1747852319725555642,-0.10300000000000001
1747852319733242206,-0.096
1747852319740928770,-0.08600000000000001
1747852319748615334,-0.07100000000000001
1747852319756301898,-0.051000000000000004
1747852319763988462,-0.046
1747852319771675026,-0.049
1747852319779361590,-0.054
1747852319787048154,-0.076
1747852319794734718,-0.10300000000000001
1747852319802421282,-0.10300000000000001
1747852319810107846,-0.091
1747852319817794410,-0.093
1747852319825480974,-0.091
1747852319833167538,-0.083
1747852319840854139,-0.08600000000000001,89,723
1747852319848540564,-0.105
1747852319856226989,-0.147
1747852319863913414,-0.20600000000000002
1747852319871599839,-0.12
1747852319879286264,0.384
1747852319886972689,1.186
1747852319894659114,1.7670000000000001
1747852319902345539,1.4000000000000001
1747852319910031964,0.044
1747852319917718389,-0.718
1747852319925404814,-0.28800000000000003
1747852319933091239,-0.044
1747852319940777664,-0.253
1747852319948464089,-0.224
1747852319956150514,-0.108
1747852319963836939,-0.15
1747852319971523364,-0.15
1747852319979209789,-0.091
1747852319986896214,-0.08600000000000001
1747852319994582639,-0.081
1747852320002269064,-0.049
1747852320009955489,-0.029
1747852320017641914,-0.019
1747852320025328339,0.002
1747852320033014764,0.029
1747852320040701189,0.051000000000000004
1747852320048387614,0.078
1747852320056074039,0.108
1747852320063760464,0.135
1747852320071446889,0.162
1747852320079133314,0.189
1747852320086819739,0.20600000000000002
1747852320094506164,0.211
1747852320102192589,0.20400000000000001
1747852320109879014,0.189
1747852320117565439,0.167
1747852320125251864,0.14200000000000002
1747852320132938289,0.113
1747852320140624714,0.07100000000000001
1747852320148311139,0.014
1747852320155997564,-0.046
1747852320163683989,-0.10300000000000001
1747852320171370414,-0.152
1747852320179056839,-0.192
1747852320186743264,-0.216
1747852320194429689,-0.228
1747852320202116114,-0.233
1747852320209802539,-0.224
1747852320217488964,-0.214
1747852320225175389,-0.20400000000000001
1747852320232861814,-0.192
1747852320240548239,-0.184
1747852320248234664,-0.177
1747852320255921089,-0.17200000000000001
1747852320263607514,-0.167
1747852320271293939,-0.164
1747852320278980364,-0.16
1747852320286666789,-0.157
1747852320294353214,-0.152
1747852320302039639,-0.152
1747852320309726064,-0.152
1747852320317412489,-0.155
1747852320325098914,-0.152
1747852320332785339,-0.15
1747852320340471764,-0.15
1747852320348158189,-0.15
1747852320355844614,-0.15
1747852320363531039,-0.15
1747852320371217464,-0.147
1747852320378903889,-0.14
1747852320386590314,-0.137
1747852320394276739,-0.137
1747852320401963170,-0.135
1747852320409649873,-0.13
1747852320417336576,-0.13
1747852320425023279,-0.128
1747852320432709982,-0.125
1747852320440396685,-0.123
1747852320448083388,-0.12
1747852320455770091,-0.11800000000000001
1747852320463456794,-0.113
1747852320471143497,-0.11
1747852320478830200,-0.11
1747852320486516903,-0.105
1747852320494203606,-0.1
1747852320501890309,-0.098
1747852320509577012,-0.096
1747852320517263715,-0.091
1747852320524950418,-0.096
1747852320532637121,-0.093
1747852320540323824,-0.081
1747852320548010527,-0.061
1747852320555697230,-0.046
1747852320563383933,-0.044
1747852320571070636,-0.041
1747852320578757339,-0.041
1747852320586444042,-0.07100000000000001
1747852320594130745,-0.105
1747852320601817448,-0.105
1747852320609504151,-0.093
1747852320617190854,-0.091
1747852320624877557,-0.08600000000000001
1747852320632564260,-0.081
1747852320640250963,-0.08600000000000001
1747852320647937666,-0.1
1747852320655624369,-0.125
1747852320663311072,-0.187
1747852320670997775,-0.184
1747852320678684478,0.184
1747852320686371181,0.9520000000000001
1747852320694057884,1.683
1747852320701744587,1.673
1747852320709431290,0.497
1747852320717117993,-0.63
1747852320724804696,-0.452
1747852320732491399,-0.029
1747852320740178102,-0.184
1747852320747864805,-0.243
1747852320755551508,-0.108
1747852320763238211,-0.11800000000000001
1747852320770924914,-0.145
1747852320778611617,-0.093
1747852320786298320,-0.07100000000000001
1747852320793985023,-0.07100000000000001
1747852320801671726,-0.046
1747852320809358429,-0.027
1747852320817045132,-0.014
1747852320824731835,0.009000000000000001
1747852320832418538,0.036000000000000004
1747852320840105241,0.061
1747852320847791944,0.083
1747852320855478647,0.11
1747852320863165350,0.14200000000000002
1747852320870852053,0.17200000000000001
1747852320878538756,0.192
1747852320886225459,0.216
1747852320893912162,0.228
1747852320901598865,0.226
1747852320909285568,0.214
1747852320916972271,0.199
1747852320924658974,0.17400000000000002
1747852320932345677,0.14
1747852320940032380,0.1
1747852320947719083,0.051000000000000004
1747852320955405786,-0.012
1747852320963092553,-0.081,88,714
1747852320970778838,-0.135,,735
1747852320978465123,-0.17400000000000002
1747852320986151408,-0.211
1747852320993837693,-0.233
1747852321001523978,-0.23600000000000002
1747852321009210263,-0.228
1747852321016896548,-0.221
1747852321024582833,-0.214
1747852321032269118,-0.201
1747852321039955403,-0.192
1747852321047641688,-0.187
1747852321055327973,-0.17200000000000001
1747852321063014258,-0.157
1747852321070700543,-0.152
1747852321078386828,-0.152
1747852321086073113,-0.15
1747852321093759398,-0.147
1747852321101445683,-0.147
1747852321109131968,-0.145
1747852321116818253,-0.14200000000000002
1747852321124504538,-0.14200000000000002
1747852321132190823,-0.137
1747852321139877108,-0.137
1747852321147563393,-0.145
1747852321155249678,-0.145
1747852321162935963,-0.137
1747852321170622248,-0.137
1747852321178308533,-0.132
1747852321185994818,-0.12
1747852321193681103,-0.12
1747852321201367388,-0.13
1747852321209053673,-0.125
1747852321216739958,-0.115
1747852321224426243,-0.11800000000000001
1747852321232112528,-0.11800000000000001
1747852321239798813,-0.113
1747852321247485098,-0.11
1747852321255171383,-0.105
1747852321262857668,-0.096
1747852321270543953,-0.096
1747852321278230238,-0.10300000000000001
1747852321285916523,-0.10300000000000001
1747852321293602808,-0.088
1747852321301289093,-0.083
1747852321308975378,-0.093
1747852321316661663,-0.088
1747852321324347948,-0.066
1747852321332034233,-0.044
1747852321339720518,-0.036000000000000004
1747852321347406803,-0.041
1747852321355093088,-0.039
1747852321362779373,-0.039
1747852321370465658,-0.076
1747852321378151943,-0.108
1747852321385838228,-0.1
1747852321393524513,-0.088
1747852321401210798,-0.096
1747852321408897083,-0.098
1747852321416583368,-0.091
1747852321424269653,-0.093
1747852321431955938,-0.10300000000000001
1747852321439642223,-0.132
1747852321447328508,-0.194
1747852321455014793,-0.128
1747852321462701078,0.34700000000000003
1747852321470387363,1.107
1747852321478073648,1.6560000000000001
1747852321485759933,1.358
1747852321493446218,0.098
1747852321501132503,-0.708
1747852321508818788,-0.329
1747852321516505073,-0.051000000000000004
1747852321524191414,-0.23800000000000002
1747852321531878117,-0.209
1747852321539564820,-0.096
1747852321547251523,-0.14
1747852321554938226,-0.147
1747852321562624929,-0.08600000000000001
1747852321570311632,-0.076
1747852321577998335,-0.078
1747852321585685038,-0.049
1747852321593371741,-0.027
1747852321601058444,-0.014
1747852321608745147,0.007
1747852321616431850,0.032
1747852321624118553,0.046
1747852321631805256,0.07100000000000001
1747852321639491959,0.1
1747852321647178662,0.128
1747852321654865365,0.157
1747852321662552068,0.184
1747852321670238771,0.20400000000000001
1747852321677925474,0.211
1747852321685612177,0.20400000000000001
1747852321693298880,0.182
1747852321700985583,0.157
1747852321708672286,0.132
1747852321716358989,0.1
1747852321724045692,0.061
1747852321731732395,0.007
1747852321739419098,-0.056
1747852321747105801,-0.11800000000000001
1747852321754792504,-0.167
1747852321762479207,-0.20600000000000002
1747852321770165910,-0.231
1747852321777852613,-0.23800000000000002
1747852321785539316,-0.23600000000000002
1747852321793226019,-0.228
1747852321800912722,-0.221
1747852321808599425,-0.214
1747852321816286128,-0.201
1747852321823972831,-0.189
1747852321831659534,-0.182
1747852321839346237,-0.17400000000000002
1747852321847032940,-0.167
1747852321854719643,-0.162
1747852321862406346,-0.16
1747852321870093049,-0.155
1747852321877779752,-0.15
1747852321885466455,-0.145
1747852321893153158,-0.14200000000000002
1747852321900839861,-0.145
1747852321908526564,-0.145
1747852321916213267,-0.145
1747852321923899970,-0.14200000000000002
1747852321931586673,-0.145
1747852321939273376,-0.15
1747852321946960079,-0.147
1747852321954646782,-0.14200000000000002
1747852321962333485,-0.14
1747852321970020188,-0.14
1747852321977706891,-0.135
1747852321985393594,-0.132
1747852321993080297,-0.13
1747852322000767000,-0.128
1747852322008453703,-0.123
1747852322016140406,-0.12
1747852322023827109,-0.11800000000000001
1747852322031513812,-0.115
1747852322039200515,-0.11800000000000001
1747852322046887218,-0.11800000000000001
1747852322054573921,-0.11
1747852322062260624,-0.105
1747852322069947327,-0.11
1747852322077634030,-0.108
1747852322085320793,-0.10300000000000001,87,772
1747852322093007078,-0.096
1747852322100693363,-0.088
1747852322108379648,-0.07100000000000001
1747852322116065933,-0.059000000000000004
1747852322123752218,-0.059000000000000004
1747852322131438503,-0.056
1747852322139124788,-0.059000000000000004
1747852322146811073,-0.08600000000000001
1747852322154497358,-0.12
1747852322162183643,-0.12
1747852322169869928,-0.108
1747852322177556213,-0.10300000000000001
1747852322185242498,-0.10300000000000001
1747852322192928783,-0.1
1747852322200615068,-0.1
1747852322208301353,-0.11
1747852322215987638,-0.145
1747852322223673923,-0.209
1747852322231360208,-0.145
1747852322239046493,0.305
1747852322246732778,1.056
1747852322254419063,1.661
1747852322262105348,1.481
1747852322269791633,0.246
1747852322277477918,-0.6990000000000001
1747852322285164203,-0.374
1747852322292850488,-0.019
1747852322300536773,-0.216
1747852322308223058,-0.233
1747852322315909343,-0.105
1747852322323595628,-0.137
1747852322331281913,-0.152
1747852322338968198,-0.093
1747852322346654483,-0.078
1747852322354340768,-0.081
1747852322362027053,-0.054
1747852322369713338,-0.034
1747852322377399623,-0.024
1747852322385085908,-0.004
1747852322392772193,0.017
1747852322400458478,0.039
1747852322408144763,0.064
1747852322415831048,0.088
1747852322423517333,0.11800000000000001
1747852322431203618,0.152
1747852322438889903,0.177
1747852322446576188,0.194
1747852322454262473,0.20400000000000001
1747852322461948758,0.199
1747852322469635043,0.182
1747852322477321328,0.162
1747852322485007613,0.14
1747852322492693898,0.11
1747852322500380183,0.066
1747852322508066468,0.009000000000000001
1747852322515752753,-0.054
1747852322523439038,-0.11
1747852322531125323,-0.164
1747852322538811608,-0.20600000000000002
1747852322546497893,-0.233
1747852322554184178,-0.251
1747852322561870463,-0.248
1747852322569556748,-0.23600000000000002
1747852322577243033,-0.224
1747852322584929318,-0.216
1747852322592615603,-0.20600000000000002
1747852322600301888,-0.199
1747852322607988173,-0.187
1747852322615674458,-0.17400000000000002
1747852322623360743,-0.169
1747852322631047028,-0.164
1747852322638733313,-0.157
1747852322646419654,-0.155,86,802
1747852322654106357,-0.157
1747852322661793060,-0.155
1747852322669479763,-0.152
1747852322677166466,-0.15
1747852322684853169,-0.147
1747852322692539872,-0.145
1747852322700226575,-0.14200000000000002
1747852322707913278,-0.145
1747852322715599981,-0.14200000000000002
1747852322723286684,-0.14
1747852322730973387,-0.14200000000000002
1747852322738660090,-0.14
1747852322746346793,-0.137
1747852322754033496,-0.135
1747852322761720199,-0.132
1747852322769406902,-0.132
1747852322777093605,-0.13
1747852322784780308,-0.125
1747852322792467011,-0.12
1747852322800153714,-0.12
1747852322807840417,-0.11800000000000001
1747852322815527120,-0.115
1747852322823213823,-0.115
1747852322830900526,-0.11800000000000001
1747852322838587229,-0.115
1747852322846273932,-0.113
1747852322853960635,-0.113
1747852322861647338,-0.108
1747852322869334041,-0.105
1747852322877020744,-0.105
1747852322884707447,-0.108
1747852322892394150,-0.10300000000000001
1747852322900080853,-0.088
1747852322907767556,-0.073
1747852322915454259,-0.064
1747852322923140962,-0.064
1747852322930827665,-0.059000000000000004
1747852322938514368,-0.059000000000000004
1747852322946201071,-0.088
1747852322953887774,-0.128
1747852322961574477,-0.128
1747852322969261180,-0.108
1747852322976947883,-0.11
1747852322984634586,-0.115
1747852322992321289,-0.113
1747852323000007992,-0.115
1747852323007694695,-0.13
1747852323015381398,-0.162
1747852323023068101,-0.219
1747852323030754804,-0.216
1747852323038441507,0.123
1747852323046128210,0.864
1747852323053814913,1.609
1747852323061501616,1.6560000000000001
1747852323069188319,0.509
1747852323076875022,-0.672
1747852323084561725,-0.526
1747852323092248428,-0.076
1747852323099935131,-0.241
1747852323107621834,-0.32
1747852323115308537,-0.179
1747852323122995240,-0.199
1747852323130681943,-0.23600000000000002
1747852323138368646,-0.184
1747852323146055349,-0.17400000000000002
1747852323153742052,-0.177
1747852323161428755,-0.132
1747852323169115458,-0.11
1747852323176802161,-0.113
1747852323184488864,-0.081
1747852323192175567,-0.044
1747852323199862270,-0.039
1747852323207549033,-0.019
1747852323215235318,0.014
1747852323222921603,0.039
1747852323230607888,0.068
1747852323238294173,0.096
1747852323245980458,0.11
1747852323253666743,0.123
1747852323261353028,0.12
1747852323269039313,0.108
1747852323276725598,0.10300000000000001
1747852323284411883,0.08600000000000001
1747852323292098168,0.051000000000000004
1747852323299784453,0.009000000000000001
1747852323307470738,-0.036000000000000004
1747852323315157023,-0.091
1747852323322843308,-0.155
1747852323330529593,-0.20600000000000002
1747852323338215878,-0.248
1747852323345902163,-0.28
1747852323353588448,-0.295
1747852323361274733,-0.292
1747852323368961018,-0.28300000000000003
1747852323376647303,-0.28300000000000003
1747852323384333588,-0.27
1747852323392019873,-0.248
1747852323399706158,-0.241
1747852323407392443,-0.233
1747852323415078728,-0.216
1747852323422765013,-0.214
1747852323430451298,-0.216
1747852323438137583,-0.211
1747852323445823868,-0.201
1747852323453510153,-0.194
1747852323461196438,-0.194
1747852323468882723,-0.194
1747852323476569008,-0.189
1747852323484255293,-0.179
1747852323491941578,-0.184
1747852323499627863,-0.194
1747852323507314148,-0.182
1747852323515000433,-0.167
1747852323522686718,-0.169
1747852323530373003,-0.17200000000000001
1747852323538059288,-0.169
1747852323545745573,-0.167
1747852323553431858,-0.16
1747852323561118143,-0.157
1747852323568804428,-0.16
1747852323576490713,-0.155
1747852323584176998,-0.15
1747852323591863283,-0.147
1747852323599549568,-0.145
1747852323607235853,-0.14200000000000002
1747852323614922138,-0.14
1747852323622608423,-0.14200000000000002
1747852323630294708,-0.14
1747852323637980993,-0.135
1747852323645667278,-0.14
1747852323653353563,-0.135
1747852323661039848,-0.123
1747852323668726133,-0.128
1747852323676412418,-0.132
1747852323684098703,-0.113
1747852323691784988,-0.098
1747852323699471273,-0.11
1747852323707157558,-0.123
1747852323714843843,-0.123
1747852323722530128,-0.14200000000000002
1747852323730216413,-0.17200000000000001
1747852323737902698,-0.17400000000000002
1747852323745588983,-0.169
1747852323753275268,-0.17200000000000001
1747852323760961553,-0.177
1747852323768647894,-0.17400000000000002,84,782
1747852323776334597,-0.169,,777
1747852323784021300,-0.17200000000000001
1747852323791708003,-0.189
1747852323799394706,-0.226
1747852323807081409,-0.221
1747852323814768112,0.051000000000000004
1747852323822454815,0.6910000000000001
1747852323830141518,1.42
1747852323837828221,1.6320000000000001
1747852323845514924,0.704
1747852323853201627,-0.512
1747852323860888330,-0.553
1747852323868575033,-0.128
1747852323876261736,-0.214
1747852323883948439,-0.275
1747852323891635142,-0.15
1747852323899321845,-0.155
1747852323907008548,-0.187
1747852323914695251,-0.137
1747852323922381954,-0.11
1747852323930068657,-0.11
1747852323937755360,-0.083
1747852323945442063,-0.059000000000000004
1747852323953128766,-0.049
1747852323960815469,-0.024
1747852323968502172,0.0
1747852323976188875,0.022
1747852323983875578,0.049
1747852323991562281,0.078
1747852323999248984,0.108
1747852324006935687,0.145
1747852324014622390,0.179
1747852324022309093,0.209
1747852324029995796,0.231
1747852324037682499,0.23600000000000002
1747852324045369202,0.228
1747852324053055905,0.219
1747852324060742608,0.20600000000000002
1747852324068429311,0.179
1747852324076116014,0.14
1747852324083802717,0.093
1747852324091489420,0.032
1747852324099176123,-0.036000000000000004
1747852324106862826,-0.1
1747852324114549529,-0.155
1747852324122236232,-0.199
1747852324129922935,-0.224
1747852324137609638,-0.231
1747852324145296341,-0.233
1747852324152983044,-0.228
1747852324160669747,-0.216
1747852324168356450,-0.20600000000000002
1747852324176043153,-0.199
1747852324183729856,-0.187
1747852324191416559,-0.179
1747852324199103262,-0.182
1747852324206789965,-0.169
1747852324214476668,-0.15
1747852324222163371,-0.14200000000000002
1747852324229850074,-0.137
1747852324237536777,-0.13
1747852324245223480,-0.135
1747852324252910183,-0.132
1747852324260596886,-0.128
1747852324268283589,-0.128
1747852324275970292,-0.13
1747852324283656995,-0.128
1747852324291343698,-0.123
1747852324299030401,-0.12
1747852324306717104,-0.11800000000000001
1747852324314403807,-0.115
1747852324322090510,-0.11
1747852324329777273,-0.105
1747852324337463976,-0.1
1747852324345150679,-0.096
1747852324352837382,-0.093
1747852324360524085,-0.091
1747852324368210788,-0.08600000000000001
1747852324375897491,-0.078
1747852324383584194,-0.073
1747852324391270897,-0.068
1747852324398957600,-0.07100000000000001
1747852324406644303,-0.073
1747852324414331006,-0.064
1747852324422017709,-0.036000000000000004
1747852324429704412,-0.012
1747852324437391115,0.002
1747852324445077818,0.007
1747852324452764521,0.007
1747852324460451224,-0.014
1747852324468137927,-0.046
1747852324475824630,-0.051000000000000004
1747852324483511333,-0.036000000000000004
1747852324491198036,-0.032
1747852324498884739,-0.029
1747852324506571442,-0.019
1747852324514258145,-0.017
1747852324521944848,-0.019
1747852324529631551,-0.039
1747852324537318254,-0.098
1747852324545004957,-0.145
1747852324552691660,0.073
1747852324560378363,0.748
1747852324568065066,1.575
1747852324575751769,1.895
1747852324583438472,1.08
1747852324591125175,-0.263
1747852324598811878,-0.561
1747852324606498581,-0.08600000000000001
1747852324614185284,-0.051000000000000004
1747852324621871987,-0.17400000000000002
1747852324629558690,-0.07100000000000001
1747852324637245393,-0.034
1747852324644932096,-0.076
1747852324652618799,-0.039
1747852324660305502,-0.007
1747852324667992205,-0.007
1747852324675678908,0.014
1747852324683365611,0.041
1747852324691052314,0.051000000000000004
1747852324698739017,0.068
1747852324706425720,0.093
1747852324714112423,0.113
1747852324721799126,0.132
1747852324729485829,0.162
1747852324737172532,0.194
1747852324744859235,0.226
1747852324752545938,0.258
1747852324760232641,0.28300000000000003
1747852324767919344,0.297
1747852324775606047,0.3
1747852324783292750,0.28500000000000003
1747852324790979453,0.263
1747852324798666156,0.23800000000000002
1747852324806352859,0.20600000000000002
1747852324814039562,0.167
1747852324821726265,0.115
1747852324829412968,0.049
1747852324837099671,-0.022
1747852324844786374,-0.083
1747852324852473077,-0.137
1747852324860159780,-0.17400000000000002
1747852324867846483,-0.194
1747852324875533186,-0.201
1747852324883219889,-0.199
1747852324890906656,-0.192,83,801
1747852324898593081,-0.184
1747852324906279506,-0.179
1747852324913965931,-0.167
1747852324921652356,-0.16
1747852324929338781,-0.152
1747852324937025206,-0.145
1747852324944711631,-0.137
1747852324952398056,-0.128
1747852324960084481,-0.11800000000000001
1747852324967770906,-0.113
1747852324975457331,-0.113
1747852324983143756,-0.113
1747852324990830181,-0.108
1747852324998516606,-0.105
1747852325006203031,-0.108
1747852325013889456,-0.113
1747852325021575881,-0.115
1747852325029262306,-0.113
1747852325036948731,-0.11
1747852325044635156,-0.108
1747852325052321581,-0.11
1747852325060008006,-0.108
1747852325067694431,-0.10300000000000001
1747852325075380856,-0.1
1747852325083067281,-0.10300000000000001
1747852325090753706,-0.1
1747852325098440131,-0.098
1747852325106126556,-0.1
1747852325113812981,-0.105
1747852325121499406,-0.108
1747852325129185831,-0.096
1747852325136872256,-0.073
1747852325144558681,-0.059000000000000004
1747852325152245106,-0.056
1747852325159931531,-0.054
1747852325167617956,-0.056
1747852325175304381,-0.083
1747852325182990806,-0.113
1747852325190677231,-0.113
1747852325198363656,-0.10300000000000001
1747852325206050081,-0.105
1747852325213736506,-0.1
1747852325221422931,-0.091
1747852325229109356,-0.088
1747852325236795781,-0.1
1747852325244482206,-0.13
1747852325252168631,-0.194
1747852325259855056,-0.187
1747852325267541481,0.17400000000000002
1747852325275227906,0.893
1747852325282914331,1.582
1747852325290600756,1.629
1747852325298287181,0.544
1747852325305973606,-0.617
1747852325313660031,-0.494
1747852325321346456,-0.029
1747852325329032881,-0.17200000000000001
1747852325336719306,-0.263
1747852325344405731,-0.125
1747852325352092156,-0.13
1747852325359778581,-0.17200000000000001
1747852325367465006,-0.11800000000000001
1747852325375151431,-0.091
1747852325382837856,-0.098
1747852325390524281,-0.07100000000000001
1747852325398210706,-0.044
1747852325405897131,-0.034
1747852325413583556,-0.017
1747852325421269981,0.009000000000000001
1747852325428956406,0.029
1747852325436642831,0.054
1747852325444329256,0.088
1747852325452015691,0.12
1747852325459702464,0.152
1747852325467389237,0.182
1747852325475076010,0.20600000000000002
1747852325482762783,0.224
1747852325490449556,0.226
1747852325498136329,0.216
1747852325505823102,0.199
1747852325513509875,0.17400000000000002
1747852325521196648,0.14200000000000002
1747852325528883421,0.096
1747852325536570194,0.032
1747852325544256967,-0.036000000000000004
1747852325551943740,-0.10300000000000001
1747852325559630513,-0.162
1747852325567317286,-0.20400000000000001
1747852325575004059,-0.228
1747852325582690832,-0.23800000000000002
1747852325590377605,-0.23800000000000002
1747852325598064378,-0.233
1747852325605751151,-0.226
1747852325613437924,-0.211
1747852325621124697,-0.199
1747852325628811470,-0.189
1747852325636498243,-0.179
1747852325644185016,-0.17200000000000001
1747852325651871789,-0.169
1747852325659558562,-0.164
1747852325667245335,-0.162
1747852325674932108,-0.162
1747852325682618881,-0.16
1747852325690305654,-0.152
1747852325697992427,-0.147
1747852325705679200,-0.147
1747852325713365973,-0.145
1747852325721052746,-0.14200000000000002
1747852325728739519,-0.14200000000000002
1747852325736426292,-0.14200000000000002
1747852325744113065,-0.137
1747852325751799838,-0.135
1747852325759486611,-0.132
1747852325767173384,-0.132
1747852325774860157,-0.132
1747852325782546930,-0.13
1747852325790233703,-0.128
1747852325797920476,-0.12
1747852325805607249,-0.11800000000000001
1747852325813294022,-0.123
1747852325820980795,-0.13
1747852325828667568,-0.125
1747852325836354341,-0.11
1747852325844041114,-0.096
1747852325851727887,-0.083
1747852325859414660,-0.076
1747852325867101433,-0.066
1747852325874788206,-0.066
1747852325882474979,-0.091
1747852325890161752,-0.123
1747852325897848525,-0.125
1747852325905535298,-0.11
1747852325913222071,-0.105
1747852325920908844,-0.10300000000000001
1747852325928595617,-0.093
1747852325936282390,-0.091
1747852325943969163,-0.10300000000000001
1747852325951655936,-0.137
1747852325959342709,-0.20600000000000002
1747852325967029482,-0.169
1747852325974716255,0.256
1747852325982403028,1.038
1747852325990089801,1.718
1747852325997776574,1.573
1747852326005463347,0.3
1747852326013150157,-0.6990000000000001,82,777
1747852326020836651,-0.393
1747852326028523145,-0.024
1747852326036209639,-0.214
1747852326043896133,-0.23600000000000002
1747852326051582627,-0.105
1747852326059269121,-0.135
1747852326066955615,-0.16
1747852326074642109,-0.10300000000000001
1747852326082328603,-0.08600000000000001
1747852326090015097,-0.083
1747852326097701591,-0.054
1747852326105388085,-0.034
1747852326113074579,-0.022
1747852326120761073,0.0
1747852326128447567,0.024
1747852326136134061,0.046
1747852326143820555,0.073
1747852326151507049,0.10300000000000001
1747852326159193543,0.135
1747852326166880037,0.167
1747852326174566531,0.199
1747852326182253025,0.221
1747852326189939519,0.231
1747852326197626013,0.228
1747852326205312507,0.214
1747852326212999001,0.189
1747852326220685495,0.162
1747852326228371989,0.13
1747852326236058483,0.083
1747852326243744977,0.022
1747852326251431471,-0.046
1747852326259117965,-0.105
1747852326266804459,-0.157
1747852326274490953,-0.196
1747852326282177447,-0.221
1747852326289863941,-0.231
1747852326297550435,-0.233
1747852326305236929,-0.228
1747852326312923423,-0.211
1747852326320609917,-0.201
1747852326328296411,-0.194
1747852326335982905,-0.184
1747852326343669399,-0.17400000000000002
1747852326351355893,-0.167
1747852326359042387,-0.16
1747852326366728881,-0.155
1747852326374415375,-0.152
1747852326382101869,-0.15
1747852326389788363,-0.145
1747852326397474857,-0.14200000000000002
1747852326405161351,-0.14200000000000002
1747852326412847845,-0.14
1747852326420534339,-0.137
1747852326428220833,-0.135
1747852326435907327,-0.132
1747852326443593821,-0.13
1747852326451280315,-0.13
1747852326458966809,-0.13
1747852326466653303,-0.13
1747852326474339797,-0.128
1747852326482026291,-0.123
1747852326489712785,-0.11800000000000001
1747852326497399279,-0.11
1747852326505085773,-0.11
1747852326512772267,-0.115
1747852326520458761,-0.115
1747852326528145255,-0.105
1747852326535831749,-0.093
1747852326543518243,-0.081
1747852326551204737,-0.073
1747852326558891231,-0.061
1747852326566577725,-0.054
1747852326574264275,-0.073,81,739
1747852326581950909,-0.105,,713
1747852326589637543,-0.113
1747852326597324177,-0.10300000000000001
1747852326605010811,-0.096
1747852326612697445,-0.091
1747852326620384079,-0.08600000000000001
1747852326628070713,-0.08600000000000001
1747852326635757347,-0.093
1747852326643443981,-0.12
1747852326651130615,-0.187
1747852326658817249,-0.187
1747852326666503883,0.167
1747852326674190517,0.913
1747852326681877151,1.6460000000000001
1747852326689563785,1.673
1747852326697250419,0.521
1747852326704937053,-0.632
1747852326712623687,-0.47000000000000003
1747852326720310321,-0.027
1747852326727996955,-0.177
1747852326735683589,-0.246
1747852326743370223,-0.11
1747852326751056857,-0.12
1747852326758743491,-0.152
1747852326766430125,-0.098
1747852326774116759,-0.076
1747852326781803393,-0.081
1747852326789490027,-0.056
1747852326797176661,-0.034
1747852326804863295,-0.022
1747852326812549929,0.0
1747852326820236563,0.024
1747852326827923197,0.046
1747852326835609831,0.073
1747852326843296465,0.105
1747852326850983099,0.135
1747852326858669733,0.164
1747852326866356367,0.192
1747852326874043001,0.214
1747852326881729635,0.221
1747852326889416269,0.219
1747852326897102903,0.20400000000000001
1747852326904789537,0.184
1747852326912476171,0.16
1747852326920162805,0.13
1747852326927849439,0.083
1747852326935536073,0.027
1747852326943222707,-0.034
1747852326950909341,-0.096
1747852326958595975,-0.145
1747852326966282609,-0.182
1747852326973969243,-0.20400000000000001
1747852326981655877,-0.216
1747852326989342511,-0.219
1747852326997029145,-0.211
1747852327004715779,-0.201
1747852327012402413,-0.189
1747852327020089047,-0.179
1747852327027775681,-0.169
1747852327035462315,-0.162
1747852327043148949,-0.16
1747852327050835583,-0.157
1747852327058522217,-0.152
1747852327066208851,-0.15
1747852327073895485,-0.147
1747852327081582119,-0.14200000000000002
1747852327089268753,-0.137
1747852327096955387,-0.137
1747852327104642021,-0.135
1747852327112328655,-0.132
1747852327120015289,-0.137
1747852327127701923,-0.14200000000000002
1747852327135388571,-0.14
1747852327143074926,-0.132
1747852327150761281,-0.132
1747852327158447636,-0.13
1747852327166133991,-0.128
1747852327173820346,-0.125
1747852327181506701,-0.125
1747852327189193056,-0.132
1747852327196879411,-0.14
1747852327204565766,-0.135
1747852327212252121,-0.12
1747852327219938476,-0.10300000000000001
1747852327227624831,-0.096
1747852327235311186,-0.088
1747852327242997541,-0.07100000000000001
1747852327250683896,-0.064
1747852327258370251,-0.088
1747852327266056606,-0.115
1747852327273742961,-0.115
1747852327281429316,-0.11
1747852327289115671,-0.115
1747852327296802026,-0.11
1747852327304488381,-0.098
1747852327312174736,-0.1
1747852327319861091,-0.11
1747852327327547446,-0.152
1747852327335233801,-0.219
1747852327342920156,-0.113
1747852327350606511,0.423
1747852327358292866,1.221
1747852327365979221,1.7550000000000001
1747852327373665576,1.307
1747852327381351931,-0.059000000000000004
1747852327389038286,-0.711
1747852327396724641,-0.23600000000000002
1747852327404410996,-0.039
1747852327412097351,-0.241
1747852327419783706,-0.184
1747852327427470061,-0.088
1747852327435156416,-0.14
1747852327442842771,-0.13
1747852327450529126,-0.073
1747852327458215481,-0.07100000000000001
1747852327465901836,-0.066
1747852327473588191,-0.039
1747852327481274546,-0.022
1747852327488960901,-0.007
1747852327496647256,0.017
1747852327504333611,0.036000000000000004
1747852327512019966,0.059000000000000004
1747852327519706321,0.08600000000000001
1747852327527392676,0.113
1747852327535079031,0.137
1747852327542765386,0.164
1747852327550451741,0.187
1747852327558138096,0.199
1747852327565824451,0.201
1747852327573510806,0.192
1747852327581197161,0.17200000000000001
1747852327588883516,0.147
1747852327596569871,0.123
1747852327604256226,0.093
1747852327611942581,0.049
1747852327619628936,-0.009000000000000001
1747852327627315291,-0.068
1747852327635001646,-0.12
1747852327642688001,-0.162
1747852327650374356,-0.194
1747852327658060711,-0.211
1747852327665747066,-0.211
1747852327673433421,-0.20600000000000002
1747852327681119776,-0.199
1747852327688806131,-0.189
1747852327696492515,-0.179,81,706
1747852327704179218,-0.169
1747852327711865921,-0.162
1747852327719552624,-0.16
1747852327727239327,-0.157
1747852327734926030,-0.147
1747852327742612733,-0.145
1747852327750299436,-0.14200000000000002
1747852327757986139,-0.14
1747852327765672842,-0.135
1747852327773359545,-0.137
1747852327781046248,-0.137
1747852327788732951,-0.135
1747852327796419654,-0.135
1747852327804106357,-0.132
1747852327811793060,-0.13
1747852327819479763,-0.13
1747852327827166466,-0.13
1747852327834853169,-0.128
1747852327842539872,-0.128
1747852327850226575,-0.132
1747852327857913278,-0.137
1747852327865599981,-0.135
1747852327873286684,-0.123
1747852327880973387,-0.105
1747852327888660090,-0.093
1747852327896346793,-0.083
1747852327904033496,-0.073
1747852327911720199,-0.068
1747852327919406902,-0.088
1747852327927093605,-0.11800000000000001
1747852327934780308,-0.12
1747852327942467011,-0.105
1747852327950153714,-0.10300000000000001
1747852327957840417,-0.1
1747852327965527120,-0.096
1747852327973213823,-0.096
1747852327980900526,-0.105
1747852327988587229,-0.14200000000000002
1747852327996273932,-0.20400000000000001
1747852328003960635,-0.12
1747852328011647338,0.376
1747852328019334041,1.164
1747852328027020744,1.72
1747852328034707447,1.331
1747852328042394150,-0.002
1747852328050080853,-0.713
1747852328057767556,-0.268
1747852328065454259,-0.036000000000000004
1747852328073140962,-0.241
1747852328080827665,-0.20600000000000002
1747852328088514368,-0.10300000000000001
1747852328096201071,-0.147
1747852328103887774,-0.145
1747852328111574477,-0.088
1747852328119261180,-0.083
1747852328126947883,-0.078
1747852328134634586,-0.049
1747852328142321289,-0.034
1747852328150007992,-0.022
1747852328157694695,0.002
1747852328165381398,0.027
1747852328173068101,0.046
1747852328180754804,0.073
1747852328188441507,0.10300000000000001
1747852328196128210,0.13
1747852328203814913,0.152
1747852328211501616,0.17400000000000002
1747852328219188319,0.187
1747852328226875022,0.189
1747852328234561725,0.179
1747852328242248428,0.16
1747852328249935131,0.135
1747852328257621898,0.11
1747852328265308323,0.078
1747852328272994748,0.032
1747852328280681173,-0.024
1747852328288367598,-0.078
1747852328296054023,-0.128
1747852328303740448,-0.169
1747852328311426873,-0.199
1747852328319113298,-0.214
1747852328326799723,-0.216
1747852328334486148,-0.214
1747852328342172573,-0.20400000000000001
1747852328349858998,-0.194
1747852328357545423,-0.184
1747852328365231848,-0.177
1747852328372918273,-0.167
1747852328380604698,-0.162
1747852328388291123,-0.155
1747852328395977548,-0.15
1747852328403663973,-0.147
1747852328411350398,-0.145
1747852328419036823,-0.14
1747852328426723248,-0.14
1747852328434409673,-0.14
1747852328442096098,-0.14
1747852328449782523,-0.137
1747852328457468948,-0.14
1747852328465155373,-0.14200000000000002
1747852328472841798,-0.137
1747852328480528223,-0.132
1747852328488214648,-0.135
1747852328495901073,-0.137
1747852328503587498,-0.14200000000000002
1747852328511273923,-0.137
1747852328518960348,-0.123
1747852328526646773,-0.108
1747852328534333198,-0.1
1747852328542019623,-0.088
1747852328549706048,-0.076
1747852328557392473,-0.081
1747852328565078898,-0.108
1747852328572765323,-0.13
1747852328580451748,-0.128
1747852328588138173,-0.115
1747852328595824598,-0.105
1747852328603511023,-0.096
1747852328611197448,-0.1
1747852328618883873,-0.115
1747852328626570298,-0.13
1747852328634256723,-0.179
1747852328641943148,-0.20600000000000002
1747852328649629573,0.076
1747852328657315998,0.785
1747852328665002423,1.536
1747852328672688848,1.686
1747852328680375273,0.704
1747852328688061698,-0.539
1747852328695748123,-0.558
1747852328703434548,-0.051000000000000004
1747852328711120973,-0.13
1747852328718807398,-0.253
1747852328726493823,-0.123
1747852328734180248,-0.105
1747852328741866673,-0.147
1747852328749553098,-0.096
1747852328757239523,-0.066
1747852328764925948,-0.073
1747852328772612373,-0.046
1747852328780298798,-0.014
1747852328787985223,-0.009000000000000001
1747852328795671648,0.012
1747852328803358073,0.044
1747852328811044498,0.061
1747852328818730933,0.083,82,693
1747852328826417497,0.11,,681
1747852328834104061,0.135
1747852328841790625,0.169
1747852328849477189,0.20600000000000002
1747852328857163753,0.226
1747852328864850317,0.226
1747852328872536881,0.219
1747852328880223445,0.20400000000000001
1747852328887910009,0.182
1747852328895596573,0.16
1747852328903283137,0.132
1747852328910969701,0.096
1747852328918656265,0.039
1747852328926342829,-0.032
1747852328934029393,-0.08600000000000001
1747852328941715957,-0.125
1747852328949402521,-0.167
1747852328957089085,-0.196
1747852328964775649,-0.201
1747852328972462213,-0.199
1747852328980148777,-0.192
1747852328987835341,-0.184
1747852328995521905,-0.17200000000000001
1747852329003208469,-0.157
1747852329010895033,-0.147
1747852329018581597,-0.137
1747852329026268161,-0.132
1747852329033954725,-0.137
1747852329041641289,-0.137
1747852329049327853,-0.123
1747852329057014417,-0.115
1747852329064700981,-0.115
1747852329072387545,-0.12
1747852329080074109,-0.115
1747852329087760673,-0.098
1747852329095447237,-0.105
1747852329103133801,-0.125
1747852329110820365,-0.12
1747852329118506929,-0.105
1747852329126193493,-0.096
1747852329133880057,-0.098
1747852329141566621,-0.108
1747852329149253185,-0.098
1747852329156939749,-0.076
1747852329164626313,-0.07100000000000001
1747852329172312877,-0.064
1747852329179999441,-0.049
1747852329187686005,-0.066
1747852329195372569,-0.096
1747852329203059133,-0.098
1747852329210745697,-0.098
1747852329218432261,-0.10300000000000001
1747852329226118825,-0.091
1747852329233805389,-0.07100000000000001
1747852329241491953,-0.073
1747852329249178517,-0.091
1747852329256865081,-0.113
1747852329264551645,-0.179
1747852329272238209,-0.187
1747852329279924773,0.194
1747852329287611337,0.965
1747852329295297901,1.59
1747852329302984465,1.489
1747852329310671029,0.41300000000000003
1747852329318357593,-0.6
1747852329326044157,-0.438
1747852329333730721,-0.046
1747852329341417285,-0.17200000000000001
1747852329349103849,-0.196
1747852329356790413,-0.076
1747852329364476977,-0.1
1747852329372163541,-0.11800000000000001
1747852329379850138,-0.064
1747852329387536841,-0.046
1747852329395223544,-0.046
1747852329402910247,-0.027
1747852329410596950,-0.004
1747852329418283653,0.009000000000000001
1747852329425970356,0.029
1747852329433657059,0.054
1747852329441343762,0.081
1747852329449030465,0.10300000000000001
1747852329456717168,0.123
1747852329464403871,0.147
1747852329472090574,0.17400000000000002
1747852329479777277,0.187
1747852329487463980,0.196
1747852329495150683,0.194
1747852329502837386,0.179
1747852329510524089,0.157
1747852329518210792,0.132
1747852329525897495,0.108
1747852329533584198,0.073
1747852329541270901,0.032
1747852329548957604,-0.012
1747852329556644307,-0.059000000000000004
1747852329564331010,-0.108
1747852329572017713,-0.152
1747852329579704416,-0.182
1747852329587391119,-0.192
1747852329595077822,-0.196
1747852329602764525,-0.199
1747852329610451228,-0.194
1747852329618137931,-0.184
1747852329625824634,-0.177
1747852329633511337,-0.169
1747852329641198040,-0.162
1747852329648884743,-0.157
1747852329656571446,-0.147
1747852329664258149,-0.137
1747852329671944852,-0.135
1747852329679631555,-0.132
1747852329687318258,-0.128
1747852329695004961,-0.128
1747852329702691664,-0.128
1747852329710378367,-0.125
1747852329718065070,-0.125
1747852329725751773,-0.128
1747852329733438476,-0.13
1747852329741125179,-0.128
1747852329748811882,-0.125
1747852329756498585,-0.128
1747852329764185288,-0.137
1747852329771871991,-0.137
1747852329779558694,-0.128
1747852329787245397,-0.11800000000000001
1747852329794932100,-0.11
1747852329802618803,-0.105
1747852329810305506,-0.096
1747852329817992209,-0.08600000000000001
1747852329825678912,-0.098
1747852329833365615,-0.132
1747852329841052318,-0.14200000000000002
1747852329848739021,-0.13
1747852329856425724,-0.123
1747852329864112427,-0.123
1747852329871799130,-0.115
1747852329879485833,-0.11
1747852329887172536,-0.12
1747852329894859239,-0.14200000000000002
1747852329902545942,-0.192
1747852329910232645,-0.152
1747852329917919348,0.243
1747852329925606051,0.9400000000000001
1747852329933292754,1.5130000000000001
1747852329940979517,1.3980000000000001,83,661
1747852329948666151,0.28500000000000003
1747852329956352785,-0.681
1747852329964039419,-0.418
1747852329971726053,-0.022
1747852329979412687,-0.199
1747852329987099321,-0.248
1747852329994785955,-0.11800000000000001
1747852330002472589,-0.135
1747852330010159223,-0.162
1747852330017845857,-0.108
1747852330025532491,-0.091
1747852330033219125,-0.096
1747852330040905759,-0.068
1747852330048592393,-0.046
1747852330056279027,-0.036000000000000004
1747852330063965661,-0.017
1747852330071652295,0.002
1747852330079338929,0.022
1747852330087025563,0.049
1747852330094712197,0.076
1747852330102398831,0.1
1747852330110085465,0.125
1747852330117772099,0.145
1747852330125458733,0.155
1747852330133145367,0.155
1747852330140832001,0.14200000000000002
1747852330148518635,0.125
1747852330156205269,0.105
1747852330163891903,0.081
1747852330171578537,0.051000000000000004
1747852330179265171,0.009000000000000001
1747852330186951805,-0.039
1747852330194638439,-0.093
1747852330202325073,-0.14200000000000002
1747852330210011707,-0.182
1747852330217698341,-0.209
1747852330225384975,-0.224
1747852330233071609,-0.224
1747852330240758243,-0.221
1747852330248444877,-0.211
1747852330256131511,-0.199
1747852330263818145,-0.187
1747852330271504779,-0.182
1747852330279191413,-0.17400000000000002
1747852330286878047,-0.169
1747852330294564681,-0.162
1747852330302251315,-0.16
1747852330309937949,-0.16
1747852330317624583,-0.16
1747852330325311217,-0.157
1747852330332997851,-0.155
1747852330340684485,-0.155
1747852330348371119,-0.157
1747852330356057753,-0.155
1747852330363744387,-0.155
1747852330371431021,-0.152
1747852330379117655,-0.15
1747852330386804289,-0.147
1747852330394490923,-0.145
1747852330402177557,-0.14200000000000002
1747852330409864191,-0.15
1747852330417550825,-0.152
1747852330425237459,-0.147
1747852330432924093,-0.132
1747852330440610727,-0.11800000000000001
1747852330448297361,-0.108
1747852330455983995,-0.098
1747852330463670629,-0.088
1747852330471357263,-0.091
1747852330479043897,-0.12
1747852330486730531,-0.14200000000000002
1747852330494417165,-0.137
1747852330502103813,-0.125
1747852330509790168,-0.123
1747852330517476523,-0.11800000000000001
1747852330525162878,-0.113
1747852330532849233,-0.115
1747852330540535588,-0.13
1747852330548221943,-0.169
1747852330555908298,-0.216
1747852330563594653,-0.046
1747852330571281008,0.546
1747852330578967363,1.312
1747852330586653718,1.691
1747852330594340073,1.029
1747852330602026428,-0.302
1747852330609712783,-0.681
1747852330617399138,-0.155
1747852330625085493,-0.078
1747852330632771848,-0.27
1747852330640458203,-0.177
1747852330648144558,-0.108
1747852330655830913,-0.16
1747852330663517268,-0.135
1747852330671203623,-0.08600000000000001
1747852330678889978,-0.091
1747852330686576333,-0.081
1747852330694262688,-0.046
1747852330701949043,-0.029
1747852330709635398,-0.017
1747852330717321753,0.004
1747852330725008108,0.027
1747852330732694463,0.046
1747852330740380818,0.073
1747852330748067173,0.1
1747852330755753528,0.123
1747852330763439883,0.14200000000000002
1747852330771126238,0.162
1747852330778812593,0.169
1747852330786498948,0.162
1747852330794185303,0.145
1747852330801871658,0.123
1747852330809558013,0.098
1747852330817244368,0.073
1747852330824930723,0.039
1747852330832617078,-0.002
1747852330840303433,-0.054
1747852330847989788,-0.105
1747852330855676143,-0.152
1747852330863362498,-0.187
1747852330871048853,-0.211
1747852330878735208,-0.221
1747852330886421563,-0.216
1747852330894107918,-0.209
1747852330901794273,-0.20400000000000001
1747852330909480628,-0.192
1747852330917166983,-0.182
1747852330924853338,-0.177
1747852330932539693,-0.17200000000000001
1747852330940226048,-0.164
1747852330947912403,-0.162
1747852330955598758,-0.16
1747852330963285113,-0.157
1747852330970971468,-0.155
1747852330978657823,-0.152
1747852330986344178,-0.152
1747852330994030533,-0.152
1747852331001716888,-0.152
1747852331009403243,-0.152
1747852331017089598,-0.152
1747852331024775953,-0.15
1747852331032462308,-0.147
1747852331040148663,-0.147
1747852331047835018,-0.145
1747852331055521373,-0.14200000000000002
1747852331063207757,-0.14200000000000002,85,642
1747852331070894460,-0.14,,629
1747852331078581163,-0.14200000000000002
1747852331086267866,-0.147
1747852331093954569,-0.145
1747852331101641272,-0.132
1747852331109327975,-0.11800000000000001
1747852331117014678,-0.105
1747852331124701381,-0.098
1747852331132388084,-0.091
1747852331140074787,-0.08600000000000001
1747852331147761490,-0.11
1747852331155448193,-0.14200000000000002
1747852331163134896,-0.14200000000000002
1747852331170821599,-0.125
1747852331178508302,-0.12
1747852331186195005,-0.12
1747852331193881708,-0.115
1747852331201568411,-0.113
1747852331209255114,-0.12
1747852331216941817,-0.155
1747852331224628520,-0.219
1747852331232315223,-0.16
1747852331240001926,0.3
1747852331247688629,1.068
1747852331255375332,1.669
1747852331263062035,1.393
1747852331270748738,0.093
1747852331278435441,-0.728
1747852331286122144,-0.324
1747852331293808847,-0.036000000000000004
1747852331301495550,-0.243
1747852331309182253,-0.231
1747852331316868956,-0.115
1747852331324555659,-0.157
1747852331332242362,-0.164
1747852331339929065,-0.105
1747852331347615768,-0.096
1747852331355302471,-0.096
1747852331362989174,-0.066
1747852331370675877,-0.046
1747852331378362580,-0.036000000000000004
1747852331386049283,-0.014
1747852331393735986,0.009000000000000001
1747852331401422689,0.032
1747852331409109392,0.056
1747852331416796095,0.081
1747852331424482798,0.105
1747852331432169501,0.132
1747852331439856204,0.15
1747852331447542907,0.157
1747852331455229610,0.152
1747852331462916313,0.14200000000000002
1747852331470603016,0.123
1747852331478289719,0.1
1747852331485976422,0.078
1747852331493663125,0.051000000000000004
1747852331501349828,0.012
1747852331509036531,-0.034
1747852331516723234,-0.083
1747852331524409937,-0.13
1747852331532096640,-0.169
1747852331539783343,-0.194
1747852331547470046,-0.209
1747852331555156749,-0.216
1747852331562843452,-0.214
1747852331570530155,-0.20400000000000001
1747852331578216858,-0.194
1747852331585903561,-0.189
1747852331593590264,-0.184
1747852331601276967,-0.17400000000000002
1747852331608963670,-0.169
1747852331616650373,-0.164
1747852331624337140,-0.162,86,638
1747852331632023425,-0.157
1747852331639709710,-0.157
1747852331647395995,-0.157
1747852331655082280,-0.157
1747852331662768565,-0.157
1747852331670454850,-0.157
1747852331678141135,-0.155
1747852331685827420,-0.147
1747852331693513705,-0.145
1747852331701199990,-0.14200000000000002
1747852331708886275,-0.14
1747852331716572560,-0.137
1747852331724258845,-0.137
1747852331731945130,-0.135
1747852331739631415,-0.135
1747852331747317700,-0.132
1747852331755003985,-0.128
1747852331762690270,-0.125
1747852331770376555,-0.13
1747852331778062840,-0.135
1747852331785749125,-0.132
1747852331793435410,-0.123
1747852331801121695,-0.105
1747852331808807980,-0.093
1747852331816494265,-0.081
1747852331824180550,-0.073
1747852331831866835,-0.073
1747852331839553120,-0.096
1747852331847239405,-0.125
1747852331854925690,-0.125
1747852331862611975,-0.11
1747852331870298260,-0.108
1747852331877984545,-0.108
1747852331885670830,-0.1
1747852331893357115,-0.098
1747852331901043400,-0.108
1747852331908729685,-0.14
1747852331916415970,-0.20600000000000002
1747852331924102255,-0.187
1747852331931788540,0.196
1747852331939474825,0.9400000000000001
1747852331947161110,1.609
1747852331954847395,1.5130000000000001
1747852331962533680,0.31
1747852331970219965,-0.6990000000000001
1747852331977906250,-0.41600000000000004
1747852331985592535,-0.027
1747852331993278820,-0.209
1747852332000965105,-0.243
1747852332008651390,-0.108
1747852332016337675,-0.132
1747852332024023960,-0.155
1747852332031710245,-0.098
1747852332039396530,-0.081
1747852332047082815,-0.076
1747852332054769100,-0.044
1747852332062455385,-0.024
1747852332070141670,-0.022
1747852332077827955,-0.002
1747852332085514240,0.024
1747852332093200525,0.049
1747852332100886810,0.073
1747852332108573095,0.098
1747852332116259380,0.125
1747852332123945665,0.147
1747852332131631950,0.157
1747852332139318235,0.164
1747852332147004520,0.169
1747852332154690805,0.16
1747852332162377090,0.145
1747852332170063375,0.13
1747852332177749660,0.1
1747852332185436001,0.066
1747852332193122704,0.036000000000000004
1747852332200809407,-0.002
1747852332208496110,-0.066
1747852332216182813,-0.113
1747852332223869516,-0.14200000000000002
1747852332231556219,-0.177
1747852332239242922,-0.20400000000000001
1747852332246929625,-0.214
1747852332254616328,-0.209
1747852332262303031,-0.199
1747852332269989734,-0.194
1747852332277676437,-0.187
1747852332285363140,-0.177
1747852332293049843,-0.169
1747852332300736546,-0.164
1747852332308423249,-0.155
1747852332316109952,-0.15
1747852332323796655,-0.145
1747852332331483358,-0.14
1747852332339170061,-0.14200000000000002
1747852332346856764,-0.14200000000000002
1747852332354543467,-0.135
1747852332362230170,-0.137
1747852332369916873,-0.14200000000000002
1747852332377603576,-0.14
1747852332385290279,-0.135
1747852332392976982,-0.137
1747852332400663685,-0.137
1747852332408350388,-0.132
1747852332416037091,-0.132
1747852332423723794,-0.128
1747852332431410497,-0.123
1747852332439097200,-0.123
1747852332446783903,-0.125
1747852332454470606,-0.12
1747852332462157309,-0.115
1747852332469844012,-0.12
1747852332477530715,-0.11800000000000001
1747852332485217418,-0.10300000000000001
1747852332492904121,-0.078
1747852332500590824,-0.059000000000000004
1747852332508277527,-0.059000000000000004
1747852332515964230,-0.054
1747852332523650933,-0.056
1747852332531337636,-0.088
1747852332539024339,-0.115
1747852332546711042,-0.11800000000000001
1747852332554397745,-0.11
1747852332562084448,-0.098
1747852332569771151,-0.08600000000000001
1747852332577457854,-0.08600000000000001
1747852332585144557,-0.083
1747852332592831260,-0.088
1747852332600517963,-0.125
1747852332608204666,-0.20600000000000002
1747852332615891369,-0.155
1747852332623578072,0.315
1747852332631264775,1.088
1747852332638951478,1.6440000000000001
1747852332646638181,1.334
1747852332654324884,0.088
1747852332662011587,-0.684
1747852332669698290,-0.312
1747852332677384993,-0.046
1747852332685071696,-0.211
1747852332692758399,-0.17200000000000001
1747852332700445102,-0.073
1747852332708131805,-0.12
1747852332715818508,-0.115
1747852332723505211,-0.054
1747852332731191914,-0.049
1747852332738878617,-0.046
1747852332746565380,-0.019,88,649
1747852332754252083,0.002,,671
1747852332761938786,0.022
1747852332769625489,0.049
1747852332777312192,0.064
1747852332784998895,0.076
1747852332792685598,0.10300000000000001
1747852332800372301,0.137
1747852332808059004,0.164
1747852332815745707,0.187
1747852332823432410,0.20400000000000001
1747852332831119113,0.211
1747852332838805816,0.20600000000000002
1747852332846492519,0.189
1747852332854179222,0.167
1747852332861865925,0.14200000000000002
1747852332869552628,0.11
1747852332877239331,0.076
1747852332884926034,0.041
1747852332892612737,-0.007
1747852332900299440,-0.068
1747852332907986143,-0.12
1747852332915672846,-0.155
1747852332923359549,-0.182
1747852332931046252,-0.20400000000000001
1747852332938732955,-0.211
1747852332946419658,-0.20600000000000002
1747852332954106361,-0.199
1747852332961793064,-0.192
1747852332969479767,-0.187
1747852332977166470,-0.177
1747852332984853173,-0.162
1747852332992539876,-0.157
1747852333000226579,-0.157
1747852333007913282,-0.147
1747852333015599985,-0.14
1747852333023286688,-0.14200000000000002
1747852333030973391,-0.14
1747852333038660094,-0.132
1747852333046346797,-0.135
1747852333054033500,-0.14
1747852333061720203,-0.135
1747852333069406906,-0.135
1747852333077093609,-0.14
1747852333084780312,-0.137
1747852333092467015,-0.135
1747852333100153718,-0.135
1747852333107840421,-0.132
1747852333115527124,-0.128
1747852333123213827,-0.13
1747852333130900530,-0.137
1747852333138587233,-0.132
1747852333146273936,-0.123
1747852333153960639,-0.11
1747852333161647342,-0.1
1747852333169334045,-0.088
1747852333177020748,-0.078
1747852333184707451,-0.076
1747852333192394154,-0.098
1747852333200080857,-0.13
1747852333207767560,-0.132
1747852333215454263,-0.12
1747852333223140966,-0.11800000000000001
1747852333230827669,-0.11800000000000001
1747852333238514372,-0.11
1747852333246201075,-0.108
1747852333253887778,-0.11800000000000001
1747852333261574481,-0.14200000000000002
1747852333269261184,-0.196
1747852333276947887,-0.167
1747852333284634590,0.221
1747852333292321293,0.933
1747852333300007996,1.5230000000000001
1747852333307694759,1.4000000000000001
1747852333315381393,0.26
1747852333323068027,-0.704
1747852333330754661,-0.425
1747852333338441295,-0.036000000000000004
1747852333346127929,-0.20600000000000002
1747852333353814563,-0.233
1747852333361501197,-0.108
1747852333369187831,-0.137
1747852333376874465,-0.157
1747852333384561099,-0.1
1747852333392247733,-0.083
1747852333399934367,-0.083
1747852333407621001,-0.059000000000000004
1747852333415307635,-0.036000000000000004
1747852333422994269,-0.022
1747852333430680903,-0.004
1747852333438367537,0.009000000000000001
1747852333446054171,0.027
1747852333453740805,0.054
1747852333461427439,0.08600000000000001
1747852333469114073,0.11
1747852333476800707,0.128
1747852333484487341,0.14200000000000002
1747852333492173975,0.152
1747852333499860609,0.155
1747852333507547243,0.152
1747852333515233877,0.135
1747852333522920511,0.1
1747852333530607145,0.07100000000000001
1747852333538293779,0.044
1747852333545980413,0.007
1747852333553667047,-0.039
1747852333561353681,-0.083
1747852333569040315,-0.125
1747852333576726949,-0.162
1747852333584413583,-0.189
1747852333592100217,-0.216
1747852333599786851,-0.23600000000000002
1747852333607473485,-0.224
1747852333615160119,-0.214
1747852333622846753,-0.216
1747852333630533387,-0.167
1747852333638220021,-0.132
1747852333645906655,-0.162
1747852333653593289,-0.184
1747852333661279923,-0.17400000000000002
1747852333668966557,-0.152
1747852333676653191,-0.12
1747852333684339825,-0.125
1747852333692026459,-0.16
1747852333699713093,-0.16
1747852333707399727,-0.14
1747852333715086361,-0.14
1747852333722772995,-0.145
1747852333730459629,-0.13
1747852333738146263,-0.115
1747852333745832897,-0.132
1747852333753519531,-0.147
1747852333761206165,-0.132
1747852333768892799,-0.132
1747852333776579433,-0.128
1747852333784266067,-0.10300000000000001
1747852333791952701,-0.10300000000000001
1747852333799639335,-0.11800000000000001
1747852333807325969,-0.108
1747852333815012603,-0.096
1747852333822699237,-0.096
1747852333830385871,-0.083
1747852333838072505,-0.066
1747852333845759139,-0.054
1747852333853445773,-0.046
1747852333861132407,-0.064
1747852333868819055,-0.10300000000000001,88,693
1747852333876505410,-0.123
1747852333884191765,-0.10300000000000001
1747852333891878120,-0.088
1747852333899564475,-0.091
1747852333907250830,-0.093
1747852333914937185,-0.088
1747852333922623540,-0.093
1747852333930309895,-0.123
1747852333937996250,-0.17400000000000002
1747852333945682605,-0.157
1747852333953368960,0.216
1747852333961055315,0.974
1747852333968741670,1.595
1747852333976428025,1.479
1747852333984114380,0.398
1747852333991800735,-0.608
1747852333999487090,-0.455
1747852334007173445,-0.076
1747852334014859800,-0.199
1747852334022546155,-0.226
1747852334030232510,-0.11
1747852334037918865,-0.125
1747852334045605220,-0.14
1747852334053291575,-0.08600000000000001
1747852334060977930,-0.07100000000000001
1747852334068664285,-0.076
1747852334076350640,-0.049
1747852334084036995,-0.029
1747852334091723350,-0.022
1747852334099409705,0.0
1747852334107096060,0.029
1747852334114782415,0.049
1747852334122468770,0.07100000000000001
1747852334130155125,0.093
1747852334137841480,0.123
1747852334145527835,0.152
1747852334153214190,0.169
1747852334160900545,0.17400000000000002
1747852334168586900,0.177
1747852334176273255,0.164
1747852334183959610,0.137
1747852334191645965,0.11
1747852334199332320,0.088
1747852334207018675,0.051000000000000004
1747852334214705030,0.009000000000000001
1747852334222391385,-0.034
1747852334230077740,-0.088
1747852334237764095,-0.14
1747852334245450450,-0.182
1747852334253136805,-0.211
1747852334260823160,-0.233
1747852334268509515,-0.243
1747852334276195870,-0.243
1747852334283882225,-0.23600000000000002
1747852334291568580,-0.231
1747852334299254935,-0.226
1747852334306941290,-0.216
1747852334314627645,-0.20400000000000001
1747852334322314000,-0.199
1747852334330000355,-0.189
1747852334337686710,-0.182
1747852334345373065,-0.17200000000000001
1747852334353059420,-0.164
1747852334360745775,-0.164
1747852334368432130,-0.157
1747852334376118485,-0.152
1747852334383804840,-0.157
1747852334391491195,-0.157
1747852334399177550,-0.155
1747852334406863905,-0.152
1747852334414550260,-0.157
1747852334422236615,-0.16
1747852334429922999,-0.155
1747852334437609702,-0.152
1747852334445296405,-0.157
1747852334452983108,-0.162
1747852334460669811,-0.16
1747852334468356514,-0.155
1747852334476043217,-0.15
1747852334483729920,-0.137
1747852334491416623,-0.13
1747852334499103326,-0.123
1747852334506790029,-0.108
1747852334514476732,-0.10300000000000001
1747852334522163435,-0.128
1747852334529850138,-0.155
1747852334537536841,-0.152
1747852334545223544,-0.135
1747852334552910247,-0.132
1747852334560596950,-0.135
1747852334568283653,-0.128
1747852334575970356,-0.125
1747852334583657059,-0.137
1747852334591343762,-0.169
1747852334599030465,-0.224
1747852334606717168,-0.125
1747852334614403871,0.361
1747852334622090574,1.073
1747852334629777277,1.56
1747852334637463980,1.221
1747852334645150683,-0.027
1747852334652837386,-0.738
1747852334660524089,-0.302
1747852334668210792,-0.049
1747852334675897495,-0.258
1747852334683584198,-0.233
1747852334691270901,-0.123
1747852334698957604,-0.164
1747852334706644307,-0.167
1747852334714331010,-0.11
1747852334722017713,-0.1
1747852334729704416,-0.1
1747852334737391119,-0.073
1747852334745077822,-0.054
1747852334752764525,-0.044
1747852334760451228,-0.022
1747852334768137931,0.002
1747852334775824634,0.024
1747852334783511337,0.049
1747852334791198040,0.078
1747852334798884743,0.105
1747852334806571446,0.128
1747852334814258149,0.147
1747852334821944852,0.157
1747852334829631555,0.155
1747852334837318258,0.14200000000000002
1747852334845004961,0.123
1747852334852691664,0.098
1747852334860378367,0.07100000000000001
1747852334868065070,0.034
1747852334875751773,-0.014
1747852334883438476,-0.07100000000000001
1747852334891125179,-0.13
1747852334898811882,-0.179
1747852334906498585,-0.216
1747852334914185288,-0.243
1747852334921871991,-0.256
1747852334929558694,-0.256
1747852334937245397,-0.248
1747852334944932100,-0.23800000000000002
1747852334952618803,-0.226
1747852334960305506,-0.214
1747852334967992209,-0.20400000000000001
1747852334975678912,-0.192
1747852334983365615,-0.184
1747852334991052382,-0.179,88,690
1747852334998739085,-0.17400000000000002,,662
1747852335006425788,-0.17200000000000001
1747852335014112491,-0.169
1747852335021799194,-0.167
1747852335029485897,-0.164
1747852335037172600,-0.164
1747852335044859303,-0.16
1747852335052546006,-0.157
1747852335060232709,-0.16
1747852335067919412,-0.16
1747852335075606115,-0.157
1747852335083292818,-0.155
1747852335090979521,-0.147
1747852335098666224,-0.147
1747852335106352927,-0.155
1747852335114039630,-0.16
1747852335121726333,-0.152
1747852335129413036,-0.14
1747852335137099739,-0.125
1747852335144786442,-0.115
1747852335152473145,-0.105
1747852335160159848,-0.093
1747852335167846551,-0.091
1747852335175533254,-0.115
1747852335183219957,-0.145
1747852335190906660,-0.147
1747852335198593363,-0.137
1747852335206280066,-0.135
1747852335213966769,-0.13
1747852335221653472,-0.123
1747852335229340175,-0.123
1747852335237026878,-0.135
1747852335244713581,-0.164
1747852335252400284,-0.221
1747852335260086987,-0.147
1747852335267773690,0.315
1747852335275460393,1.061
1747852335283147096,1.6340000000000001
1747852335290833799,1.361
1747852335298520502,0.078
1747852335306207205,-0.736
1747852335313893908,-0.322
1747852335321580611,-0.027
1747852335329267314,-0.248
1747852335336954017,-0.243
1747852335344640720,-0.11800000000000001
1747852335352327423,-0.157
1747852335360014126,-0.169
1747852335367700829,-0.108
1747852335375387532,-0.098
1747852335383074235,-0.098
1747852335390760938,-0.066
1747852335398447641,-0.046
1747852335406134344,-0.032
1747852335413821047,-0.009000000000000001
1747852335421507750,0.012
1747852335429194453,0.039
1747852335436881156,0.068
1747852335444567859,0.098
1747852335452254562,0.125
1747852335459941265,0.155
1747852335467627968,0.17400000000000002
1747852335475314671,0.187
1747852335483001374,0.189
1747852335490688077,0.179
1747852335498374780,0.16
1747852335506061483,0.135
1747852335513748186,0.108
1747852335521434889,0.07100000000000001
1747852335529121592,0.017
1747852335536808295,-0.044
1747852335544494998,-0.108
1747852335552181761,-0.16,88,669
1747852335559868046,-0.199
1747852335567554331,-0.228
1747852335575240616,-0.241
1747852335582926901,-0.241
1747852335590613186,-0.233
1747852335598299471,-0.226
1747852335605985756,-0.214
1747852335613672041,-0.201
1747852335621358326,-0.192
1747852335629044611,-0.182
1747852335636730896,-0.177
1747852335644417181,-0.17400000000000002
1747852335652103466,-0.17200000000000001
1747852335659789751,-0.167
1747852335667476036,-0.164
1747852335675162321,-0.164
1747852335682848606,-0.164
1747852335690534891,-0.164
1747852335698221176,-0.162
1747852335705907461,-0.16
1747852335713593746,-0.157
1747852335721280031,-0.157
1747852335728966316,-0.155
1747852335736652601,-0.155
1747852335744338886,-0.152
1747852335752025171,-0.15
1747852335759711456,-0.147
1747852335767397741,-0.145
1747852335775084026,-0.147
1747852335782770311,-0.152
1747852335790456596,-0.147
1747852335798142881,-0.135
1747852335805829166,-0.11800000000000001
1747852335813515451,-0.105
1747852335821201736,-0.098
1747852335828888021,-0.088
1747852335836574306,-0.08600000000000001
1747852335844260591,-0.11
1747852335851946876,-0.14200000000000002
1747852335859633161,-0.14200000000000002
1747852335867319446,-0.125
1747852335875005731,-0.123
1747852335882692016,-0.123
1747852335890378301,-0.113
1747852335898064586,-0.113
1747852335905750871,-0.125
1747852335913437156,-0.16
1747852335921123441,-0.224
1747852335928809726,-0.17200000000000001
1747852335936496011,0.278
1747852335944182296,1.046
1747852335951868581,1.6640000000000001
1747852335959554866,1.432
1747852335967241151,0.147
1747852335974927436,-0.738
1747852335982613721,-0.359
1747852335990300006,-0.036000000000000004
1747852335997986291,-0.246
1747852336005672576,-0.246
1747852336013358861,-0.12
1747852336021045146,-0.157
1747852336028731431,-0.169
1747852336036417716,-0.108
1747852336044104001,-0.093
1747852336051790286,-0.093
1747852336059476571,-0.064
1747852336067162856,-0.046
1747852336074849141,-0.032
1747852336082535426,-0.009000000000000001
1747852336090221711,0.014
1747852336097907996,0.036000000000000004
1747852336105594281,0.064
1747852336113280622,0.093
1747852336120967186,0.12
1747852336128653750,0.145
1747852336136340314,0.167
1747852336144026878,0.177
1747852336151713442,0.177
1747852336159400006,0.162
1747852336167086570,0.145
1747852336174773134,0.123
1747852336182459698,0.098
1747852336190146262,0.064
1747852336197832826,0.017
1747852336205519390,-0.041
1747852336213205954,-0.1
1747852336220892518,-0.15
1747852336228579082,-0.189
1747852336236265646,-0.216
1747852336243952210,-0.231
1747852336251638774,-0.233
1747852336259325338,-0.228
1747852336267011902,-0.219
1747852336274698466,-0.209
1747852336282385030,-0.199
1747852336290071594,-0.189
1747852336297758158,-0.182
1747852336305444722,-0.177
1747852336313131286,-0.17400000000000002
1747852336320817850,-0.169
1747852336328504414,-0.167
1747852336336190978,-0.162
1747852336343877542,-0.16
1747852336351564106,-0.16
1747852336359250670,-0.162
1747852336366937234,-0.162
1747852336374623798,-0.162
1747852336382310362,-0.162
1747852336389996926,-0.16
1747852336397683490,-0.16
1747852336405370054,-0.157
1747852336413056618,-0.155
1747852336420743182,-0.152
1747852336428429746,-0.15
1747852336436116310,-0.145
1747852336443802874,-0.145
1747852336451489438,-0.15
1747852336459176002,-0.152
1747852336466862566,-0.14200000000000002
1747852336474549130,-0.128
1747852336482235694,-0.115
1747852336489922258,-0.108
1747852336497608822,-0.098
1747852336505295386,-0.088
1747852336512981950,-0.093
1747852336520668514,-0.125
1747852336528355078,-0.14200000000000002
1747852336536041642,-0.132
1747852336543728206,-0.123
1747852336551414770,-0.125
1747852336559101334,-0.123
1747852336566787898,-0.115
1747852336574474462,-0.11800000000000001
1747852336582161026,-0.132
1747852336589847590,-0.182
1747852336597534154,-0.23600000000000002
1747852336605220718,-0.054
1747852336612907282,0.5660000000000001
1747852336620593846,1.358
1747852336628280410,1.733
1747852336635966974,1.0110000000000001
1747852336643653538,-0.34900000000000003
1747852336651340102,-0.681
1747852336659026666,-0.147
1747852336666713230,-0.1
1747852336674399831,-0.28300000000000003,89,659
1747852336682086256,-0.177,,654
1747852336689772681,-0.11800000000000001
1747852336697459106,-0.17200000000000001
1747852336705145531,-0.14200000000000002
1747852336712831956,-0.096
1747852336720518381,-0.098
1747852336728204806,-0.083
1747852336735891231,-0.054
1747852336743577656,-0.039
1747852336751264081,-0.022
1747852336758950506,0.002
1747852336766636931,0.024
1747852336774323356,0.046
1747852336782009781,0.076
1747852336789696206,0.1
1747852336797382631,0.125
1747852336805069056,0.15
1747852336812755481,0.167
1747852336820441906,0.17400000000000002
1747852336828128331,0.169
1747852336835814756,0.155
1747852336843501181,0.132
1747852336851187606,0.108
1747852336858874031,0.081
1747852336866560456,0.044
1747852336874246881,-0.007
1747852336881933306,-0.066
1747852336889619731,-0.11800000000000001
1747852336897306156,-0.162
1747852336904992581,-0.196
1747852336912679006,-0.219
1747852336920365431,-0.228
1747852336928051856,-0.224
1747852336935738281,-0.216
1747852336943424706,-0.209
1747852336951111131,-0.196
1747852336958797556,-0.187
1747852336966483981,-0.177
1747852336974170406,-0.169
1747852336981856831,-0.164
1747852336989543256,-0.162
1747852336997229681,-0.157
1747852337004916106,-0.152
1747852337012602531,-0.15
1747852337020288956,-0.147
1747852337027975381,-0.145
1747852337035661806,-0.147
1747852337043348231,-0.147
1747852337051034656,-0.145
1747852337058721081,-0.145
1747852337066407506,-0.145
1747852337074093931,-0.145
1747852337081780356,-0.14200000000000002
1747852337089466781,-0.137
1747852337097153206,-0.135
1747852337104839631,-0.135
1747852337112526056,-0.132
1747852337120212481,-0.128
1747852337127898906,-0.13
1747852337135585331,-0.137
1747852337143271756,-0.135
1747852337150958181,-0.128
1747852337158644606,-0.115
1747852337166331031,-0.1
1747852337174017456,-0.088
1747852337181703881,-0.078
1747852337189390306,-0.068
1747852337197076731,-0.078
1747852337204763156,-0.108
1747852337212449581,-0.125
1747852337220136006,-0.115
1747852337227822431,-0.108
1747852337235508862,-0.108
1747852337243195147,-0.10300000000000001
1747852337250881432,-0.098
1747852337258567717,-0.1
1747852337266254002,-0.115
1747852337273940287,-0.164
1747852337281626572,-0.224
1747852337289312857,-0.066
1747852337296999142,0.529
1747852337304685427,1.329
1747852337312371712,1.76
1747852337320057997,1.115
1747852337327744282,-0.263
1747852337335430567,-0.6910000000000001
1747852337343116852,-0.169
1747852337350803137,-0.081
1747852337358489422,-0.27
1747852337366175707,-0.179
1747852337373861992,-0.108
1747852337381548277,-0.16
1747852337389234562,-0.137
1747852337396920847,-0.088
1747852337404607132,-0.091
1747852337412293417,-0.078
1747852337419979702,-0.049
1747852337427665987,-0.034
1747852337435352272,-0.017
1747852337443038557,0.007
1747852337450724842,0.029
1747852337458411127,0.051000000000000004
1747852337466097412,0.078
1747852337473783697,0.108
1747852337481469982,0.132
1747852337489156267,0.157
1747852337496842552,0.17400000000000002
1747852337504528837,0.179
1747852337512215122,0.17400000000000002
1747852337519901407,0.162
1747852337527587692,0.14
1747852337535273977,0.113
1747852337542960262,0.08600000000000001
1747852337550646547,0.051000000000000004
1747852337558332832,0.007
1747852337566019117,-0.044
1747852337573705402,-0.096
1747852337581391687,-0.14
1747852337589077972,-0.17400000000000002
1747852337596764257,-0.196
1747852337604450542,-0.209
1747852337612136827,-0.209
1747852337619823112,-0.20400000000000001
1747852337627509397,-0.199
1747852337635195682,-0.192
1747852337642881967,-0.182
1747852337650568252,-0.17200000000000001
1747852337658254537,-0.167
1747852337665940822,-0.16
1747852337673627107,-0.152
1747852337681313392,-0.147
1747852337688999677,-0.147
1747852337696685962,-0.147
1747852337704372247,-0.147
1747852337712058532,-0.147
1747852337719744817,-0.15
1747852337727431102,-0.147
1747852337735117387,-0.145
1747852337742803672,-0.14200000000000002
1747852337750489957,-0.137
1747852337758176242,-0.132
1747852337765862527,-0.132
1747852337773548812,-0.132
1747852337781235097,-0.132
1747852337788921382,-0.128
1747852337796607723,-0.123,89,669
1747852337804294078,-0.123
1747852337811980433,-0.128
1747852337819666788,-0.132
1747852337827353143,-0.128
1747852337835039498,-0.113
1747852337842725853,-0.098
1747852337850412208,-0.088
1747852337858098563,-0.08600000000000001
1747852337865784918,-0.08600000000000001
1747852337873471273,-0.093
1747852337881157628,-0.123
1747852337888843983,-0.152
1747852337896530338,-0.147
1747852337904216693,-0.132
1747852337911903048,-0.132
1747852337919589403,-0.128
1747852337927275758,-0.12
1747852337934962113,-0.12
1747852337942648468,-0.135
1747852337950334823,-0.17400000000000002
1747852337958021178,-0.241
1747852337965707533,-0.16
1747852337973393888,0.34700000000000003
1747852337981080243,1.159
1747852337988766598,1.735
1747852337996452953,1.329
1747852338004139308,-0.029
1747852338011825663,-0.738
1747852338019512018,-0.29
1747852338027198373,-0.066
1747852338034884728,-0.265
1747852338042571083,-0.224
1747852338050257438,-0.123
1747852338057943793,-0.169
1747852338065630148,-0.162
1747852338073316503,-0.105
1747852338081002858,-0.1
1747852338088689213,-0.096
1747852338096375568,-0.066
1747852338104061923,-0.049
1747852338111748278,-0.036000000000000004
1747852338119434633,-0.009000000000000001
1747852338127120988,0.012
1747852338134807343,0.034
1747852338142493698,0.059000000000000004
1747852338150180053,0.08600000000000001
1747852338157866408,0.113
1747852338165552763,0.137
1747852338173239118,0.157
1747852338180925473,0.167
1747852338188611828,0.164
1747852338196298183,0.15
1747852338203984538,0.13
1747852338211670893,0.105
1747852338219357248,0.078
1747852338227043603,0.044
1747852338234729958,0.004
1747852338242416313,-0.046
1747852338250102668,-0.1
1747852338257789023,-0.147
1747852338265475378,-0.189
1747852338273161733,-0.219
1747852338280848088,-0.228
1747852338288534443,-0.228
1747852338296220798,-0.224
1747852338303907153,-0.216
1747852338311593508,-0.20600000000000002
1747852338319279863,-0.196
1747852338326966218,-0.187
1747852338334652573,-0.179
1747852338342338928,-0.17200000000000001
1747852338350025283,-0.169
1747852338357711675,-0.164
1747852338365398727,-0.16
1747852338373085779,-0.157
1747852338380772831,-0.157
1747852338388459883,-0.16
1747852338396146935,-0.157
1747852338403833987,-0.155
1747852338411521039,-0.157
1747852338419208091,-0.16
1747852338426895143,-0.157
1747852338434582195,-0.157
1747852338442269247,-0.155
1747852338449956299,-0.152
1747852338457643351,-0.15
1747852338465330403,-0.15
1747852338473017455,-0.15
1747852338480704507,-0.145
1747852338488391559,-0.14
1747852338496078611,-0.137
1747852338503765663,-0.14200000000000002
1747852338511452715,-0.145
1747852338519139767,-0.137
1747852338526826819,-0.125
1747852338534513871,-0.113
1747852338542200923,-0.1
1747852338549887975,-0.091
1747852338557575027,-0.081
1747852338565262079,-0.093
1747852338572949131,-0.128
1747852338580636183,-0.145
1747852338588323235,-0.132
1747852338596010287,-0.123
1747852338603697339,-0.12
1747852338611384391,-0.115
1747852338619071443,-0.108
1747852338626758495,-0.113
1747852338634445547,-0.13
1747852338642132599,-0.187
1747852338649819651,-0.248
1747852338657506703,-0.081
1747852338665193755,0.541
1747852338672880807,1.366
1747852338680567859,1.772
1747852338688254911,1.053
1747852338695941963,-0.334
1747852338703629015,-0.704
1747852338711316067,-0.177
1747852338719003119,-0.115
1747852338726690171,-0.295
1747852338734377223,-0.201
1747852338742064275,-0.14
1747852338749751327,-0.182
1747852338757438379,-0.155
1747852338765125431,-0.11
1747852338772812483,-0.108
1747852338780499535,-0.088
1747852338788186587,-0.054
1747852338795873639,-0.036000000000000004
1747852338803560691,-0.022
1747852338811247743,0.002
1747852338818934795,0.032
1747852338826621847,0.051000000000000004
1747852338834308899,0.07100000000000001
1747852338841995951,0.10300000000000001
1747852338849683003,0.137
1747852338857370055,0.16
1747852338865057107,0.169
1747852338872744159,0.17400000000000002
1747852338880431211,0.164
1747852338888118263,0.147
1747852338895805315,0.125
1747852338903492367,0.1
1747852338911179419,0.07100000000000001
1747852338918866485,0.039,89,673
1747852338926552770,-0.004,,685
1747852338934239055,-0.056
1747852338941925340,-0.1
1747852338949611625,-0.137
1747852338957297910,-0.17400000000000002
1747852338964984195,-0.209
1747852338972670480,-0.228
1747852338980356765,-0.228
1747852338988043050,-0.214
1747852338995729335,-0.20400000000000001
1747852339003415620,-0.201
1747852339011101905,-0.196
1747852339018788190,-0.192
1747852339026474475,-0.187
1747852339034160760,-0.177
1747852339041847045,-0.169
1747852339049533330,-0.17200000000000001
1747852339057219615,-0.164
1747852339064905900,-0.152
1747852339072592185,-0.152
1747852339080278470,-0.152
1747852339087964755,-0.147
1747852339095651040,-0.147
1747852339103337325,-0.14200000000000002
1747852339111023610,-0.137
1747852339118709895,-0.147
1747852339126396180,-0.16
1747852339134082465,-0.15
1747852339141768750,-0.137
1747852339149455035,-0.135
1747852339157141320,-0.132
1747852339164827605,-0.123
1747852339172513890,-0.11800000000000001
1747852339180200175,-0.11800000000000001
1747852339187886460,-0.123
1747852339195572745,-0.125
1747852339203259030,-0.11800000000000001
1747852339210945315,-0.10300000000000001
1747852339218631600,-0.096
1747852339226317885,-0.088
1747852339234004170,-0.07100000000000001
1747852339241690455,-0.064
1747852339249376740,-0.081
1747852339257063025,-0.108
1747852339264749310,-0.12
1747852339272435595,-0.11800000000000001
1747852339280121880,-0.115
1747852339287808165,-0.108
1747852339295494450,-0.098
1747852339303180735,-0.091
1747852339310867020,-0.093
1747852339318553305,-0.113
1747852339326239590,-0.157
1747852339333925875,-0.221
1747852339341612160,-0.14200000000000002
1747852339349298445,0.359
1747852339356984730,1.161
1747852339364671015,1.737
1747852339372357300,1.344
1747852339380043585,-0.004
1747852339387729870,-0.716
1747852339395416155,-0.273
1747852339403102440,-0.054
1747852339410788725,-0.243
1747852339418475010,-0.192
1747852339426161295,-0.1
1747852339433847580,-0.147
1747852339441533865,-0.132
1747852339449220150,-0.076
1747852339456906435,-0.076
1747852339464592720,-0.076
1747852339472279005,-0.046
1747852339479965346,-0.027
1747852339487652049,-0.012
1747852339495338752,0.012
1747852339503025455,0.044
1747852339510712158,0.073
1747852339518398861,0.093
1747852339526085564,0.123
1747852339533772267,0.164
1747852339541458970,0.189
1747852339549145673,0.196
1747852339556832376,0.209
1747852339564519079,0.214
1747852339572205782,0.196
1747852339579892485,0.177
1747852339587579188,0.16
1747852339595265891,0.13
1747852339602952594,0.08600000000000001
1747852339610639297,0.034
1747852339618326000,-0.024
1747852339626012703,-0.083
1747852339633699406,-0.132
1747852339641386109,-0.17400000000000002
1747852339649072812,-0.201
1747852339656759515,-0.214
1747852339664446218,-0.214
1747852339672132921,-0.211
1747852339679819624,-0.209
1747852339687506327,-0.20400000000000001
1747852339695193030,-0.194
1747852339702879733,-0.182
1747852339710566436,-0.17200000000000001
1747852339718253139,-0.164
1747852339725939842,-0.155
1747852339733626545,-0.145
1747852339741313248,-0.14200000000000002
1747852339748999951,-0.14
1747852339756686654,-0.132
1747852339764373357,-0.132
1747852339772060060,-0.137
1747852339779746763,-0.135
1747852339787433466,-0.135
1747852339795120169,-0.135
1747852339802806872,-0.135
1747852339810493575,-0.137
1747852339818180278,-0.137
1747852339825866981,-0.137
1747852339833553684,-0.137
1747852339841240387,-0.137
1747852339848927090,-0.132
1747852339856613793,-0.13
1747852339864300496,-0.137
1747852339871987199,-0.145
1747852339879673902,-0.14
1747852339887360605,-0.123
1747852339895047308,-0.108
1747852339902734011,-0.1
1747852339910420714,-0.093
1747852339918107417,-0.081
1747852339925794120,-0.088
1747852339933480823,-0.12
1747852339941167526,-0.14
1747852339948854229,-0.13
1747852339956540932,-0.12
1747852339964227635,-0.12
1747852339971914338,-0.115
1747852339979601041,-0.108
1747852339987287744,-0.113
1747852339994974447,-0.13
1747852340002661150,-0.169
1747852340010347853,-0.228
1747852340018034556,-0.115
1747852340025721259,0.428
1747852340033407962,1.211
1747852340041094725,1.688,89,678
1747852340048781010,1.196
1747852340056467295,-0.14200000000000002
1747852340064153580,-0.736
1747852340071839865,-0.26
1747852340079526150,-0.08600000000000001
1747852340087212435,-0.27
1747852340094898720,-0.20400000000000001
1747852340102585005,-0.123
1747852340110271290,-0.17400000000000002
1747852340117957575,-0.157
1747852340125643860,-0.105
1747852340133330145,-0.1
1747852340141016430,-0.096
1747852340148702715,-0.068
1747852340156389000,-0.054
1747852340164075285,-0.039
1747852340171761570,-0.014
1747852340179447855,0.004
1747852340187134140,0.024
1747852340194820425,0.046
1747852340202506710,0.068
1747852340210192995,0.093
1747852340217879280,0.115
1747852340225565565,0.132
1747852340233251850,0.14
1747852340240938135,0.137
1747852340248624420,0.125
1747852340256310705,0.108
1747852340263996990,0.081
1747852340271683275,0.051000000000000004
1747852340279369560,0.019
1747852340287055845,-0.019
1747852340294742130,-0.07100000000000001
1747852340302428415,-0.128
1747852340310114700,-0.177
1747852340317800985,-0.209
1747852340325487270,-0.233
1747852340333173555,-0.248
1747852340340859840,-0.251
1747852340348546125,-0.241
1747852340356232410,-0.231
1747852340363918695,-0.224
1747852340371604980,-0.216
1747852340379291265,-0.20600000000000002
1747852340386977550,-0.196
1747852340394663835,-0.192
1747852340402350120,-0.189
1747852340410036405,-0.179
1747852340417722690,-0.169
1747852340425408975,-0.167
1747852340433095260,-0.164
1747852340440781545,-0.162
1747852340448467830,-0.162
1747852340456154115,-0.16
1747852340463840400,-0.155
1747852340471526685,-0.155
1747852340479212970,-0.162
1747852340486899255,-0.164
1747852340494585540,-0.164
1747852340502271825,-0.162
1747852340509958110,-0.155
1747852340517644395,-0.147
1747852340525330680,-0.147
1747852340533016965,-0.15
1747852340540703250,-0.15
1747852340548389535,-0.15
1747852340556075820,-0.155
1747852340563762105,-0.167
1747852340571448390,-0.164
1747852340579134675,-0.155
1747852340586820960,-0.135
1747852340594507245,-0.12
1747852340602193586,-0.113,89,689
1747852340609880289,-0.10300000000000001,,686
1747852340617566992,-0.093
1747852340625253695,-0.11
1747852340632940398,-0.137
1747852340640627101,-0.145
1747852340648313804,-0.135
1747852340656000507,-0.125
1747852340663687210,-0.115
1747852340671373913,-0.105
1747852340679060616,-0.1
1747852340686747319,-0.108
1747852340694434022,-0.132
1747852340702120725,-0.194
1747852340709807428,-0.219
1747852340717494131,0.081
1747852340725180834,0.8
1747852340732867537,1.568
1747852340740554240,1.728
1747852340748240943,0.706
1747852340755927646,-0.561
1747852340763614349,-0.556
1747852340771301052,-0.059000000000000004
1747852340778987755,-0.162
1747852340786674458,-0.275
1747852340794361161,-0.14200000000000002
1747852340802047864,-0.132
1747852340809734567,-0.177
1747852340817421270,-0.128
1747852340825107973,-0.096
1747852340832794676,-0.1
1747852340840481379,-0.081
1747852340848168082,-0.056
1747852340855854785,-0.046
1747852340863541488,-0.027
1747852340871228191,-0.002
1747852340878914894,0.019
1747852340886601597,0.044
1747852340894288300,0.07100000000000001
1747852340901975003,0.10300000000000001
1747852340909661706,0.135
1747852340917348409,0.157
1747852340925035112,0.17200000000000001
1747852340932721815,0.177
1747852340940408518,0.164
1747852340948095221,0.14200000000000002
1747852340955781924,0.12
1747852340963468627,0.098
1747852340971155330,0.066
1747852340978842033,0.027
1747852340986528736,-0.022
1747852340994215439,-0.081
1747852341001902142,-0.14200000000000002
1747852341009588845,-0.192
1747852341017275548,-0.224
1747852341024962251,-0.23800000000000002
1747852341032648954,-0.241
1747852341040335657,-0.23600000000000002
1747852341048022360,-0.228
1747852341055709063,-0.219
1747852341063395766,-0.20600000000000002
1747852341071082469,-0.199
1747852341078769172,-0.194
1747852341086455875,-0.187
1747852341094142578,-0.177
1747852341101829281,-0.167
1747852341109515984,-0.162
1747852341117202687,-0.157
1747852341124889390,-0.152
1747852341132576093,-0.15
1747852341140262796,-0.147
1747852341147949499,-0.147
1747852341155636202,-0.147
1747852341163322965,-0.147
1747852341171009250,-0.147
1747852341178695535,-0.15
1747852341186381820,-0.152
1747852341194068105,-0.15
1747852341201754390,-0.147
1747852341209440675,-0.145
1747852341217126960,-0.14200000000000002
1747852341224813245,-0.14
1747852341232499530,-0.14
1747852341240185815,-0.135
1747852341247872100,-0.132
1747852341255558385,-0.14
1747852341263244670,-0.147
1747852341270930955,-0.14200000000000002
1747852341278617240,-0.125
1747852341286303525,-0.11
1747852341293989810,-0.1
1747852341301676095,-0.093
1747852341309362380,-0.081
1747852341317048665,-0.083
1747852341324734950,-0.113
1747852341332421235,-0.135
1747852341340107520,-0.13
1747852341347793805,-0.11800000000000001
1747852341355480090,-0.113
1747852341363166375,-0.108
1747852341370852660,-0.105
1747852341378538945,-0.108
1747852341386225230,-0.12
1747852341393911515,-0.157
1747852341401597800,-0.226
1747852341409284085,-0.169
1747852341416970370,0.29
1747852341424656655,1.09
1747852341432342940,1.75
1747852341440029225,1.5090000000000001
1747852341447715510,0.169
1747852341455401795,-0.736
1747852341463088080,-0.356
1747852341470774365,-0.044
1747852341478460650,-0.253
1747852341486146935,-0.248
1747852341493833220,-0.123
1747852341501519505,-0.157
1747852341509205790,-0.167
1747852341516892075,-0.108
1747852341524578360,-0.098
1747852341532264645,-0.096
1747852341539950930,-0.066
1747852341547637215,-0.046
1747852341555323500,-0.034
1747852341563009785,-0.009000000000000001
1747852341570696070,0.012
1747852341578382355,0.034
1747852341586068640,0.059000000000000004
1747852341593754925,0.088
1747852341601441210,0.11800000000000001
1747852341609127495,0.145
1747852341616813780,0.167
1747852341624500065,0.179
1747852341632186350,0.179
1747852341639872635,0.164
1747852341647558920,0.145
1747852341655245205,0.123
1747852341662931490,0.098
1747852341670617775,0.064
1747852341678304060,0.022
1747852341685990345,-0.032
1747852341693676630,-0.091
1747852341701362915,-0.14200000000000002
1747852341709049200,-0.182
1747852341716735485,-0.211
1747852341724421830,-0.228,89,676
1747852341732108533,-0.233
1747852341739795236,-0.231
1747852341747481939,-0.221
1747852341755168642,-0.211
1747852341762855345,-0.201
1747852341770542048,-0.192
1747852341778228751,-0.187
1747852341785915454,-0.182
1747852341793602157,-0.17400000000000002
1747852341801288860,-0.169
1747852341808975563,-0.162
1747852341816662266,-0.16
1747852341824348969,-0.157
1747852341832035672,-0.155
1747852341839722375,-0.152
1747852341847409078,-0.152
1747852341855095781,-0.152
1747852341862782484,-0.15
1747852341870469187,-0.15
1747852341878155890,-0.152
1747852341885842593,-0.147
1747852341893529296,-0.145
1747852341901215999,-0.147
1747852341908902702,-0.145
1747852341916589405,-0.145
1747852341924276108,-0.14200000000000002
1747852341931962811,-0.137
1747852341939649514,-0.135
1747852341947336217,-0.137
1747852341955022920,-0.14200000000000002
1747852341962709623,-0.145
1747852341970396326,-0.135
1747852341978083029,-0.12
1747852341985769732,-0.11
1747852341993456435,-0.1
1747852342001143138,-0.091
1747852342008829841,-0.081
1747852342016516544,-0.083
1747852342024203247,-0.11
1747852342031889950,-0.14
1747852342039576653,-0.14
1747852342047263356,-0.128
1747852342054950059,-0.125
1747852342062636762,-0.123
1747852342070323465,-0.11800000000000001
1747852342078010168,-0.115
1747852342085696871,-0.128
1747852342093383574,-0.17200000000000001
1747852342101070277,-0.243
1747852342108756980,-0.184
1747852342116443683,0.28800000000000003
1747852342124130386,1.102
1747852342131817089,1.7690000000000001
1747852342139503792,1.494
1747852342147190495,0.123
1747852342154877198,-0.753
1747852342162563901,-0.356
1747852342170250604,-0.066
1747852342177937307,-0.268
1747852342185624010,-0.246
1747852342193310713,-0.128
1747852342200997416,-0.169
1747852342208684119,-0.177
1747852342216370822,-0.11800000000000001
1747852342224057525,-0.105
1747852342231744228,-0.096
1747852342239430931,-0.066
1747852342247117634,-0.049
1747852342254804337,-0.034
1747852342262491040,-0.007
1747852342270177743,0.014
1747852342277864446,0.034
1747852342285551209,0.061
1747852342293237494,0.091
1747852342300923779,0.115
1747852342308610064,0.14200000000000002
1747852342316296349,0.167
1747852342323982634,0.182
1747852342331668919,0.182
1747852342339355204,0.17200000000000001
1747852342347041489,0.155
1747852342354727774,0.13
1747852342362414059,0.1
1747852342370100344,0.068
1747852342377786629,0.024
1747852342385472914,-0.029
1747852342393159199,-0.08600000000000001
1747852342400845484,-0.135
1747852342408531769,-0.17400000000000002
1747852342416218054,-0.20600000000000002
1747852342423904339,-0.226
1747852342431590624,-0.233
1747852342439276909,-0.233
1747852342446963194,-0.228
1747852342454649479,-0.214
1747852342462335764,-0.199
1747852342470022049,-0.196
1747852342477708334,-0.189
1747852342485394619,-0.177
1747852342493080904,-0.167
1747852342500767189,-0.162
1747852342508453474,-0.155
1747852342516139759,-0.152
1747852342523826044,-0.155
1747852342531512329,-0.147
1747852342539198614,-0.14
1747852342546884899,-0.14200000000000002
1747852342554571184,-0.14200000000000002
1747852342562257469,-0.137
1747852342569943754,-0.135
1747852342577630039,-0.13
1747852342585316324,-0.13
1747852342593002609,-0.14
1747852342600688894,-0.135
1747852342608375179,-0.125
1747852342616061464,-0.125
1747852342623747749,-0.125
1747852342631434034,-0.11800000000000001
1747852342639120319,-0.113
1747852342646806604,-0.115
1747852342654492889,-0.115
1747852342662179174,-0.113
1747852342669865459,-0.11
1747852342677551744,-0.098
1747852342685238029,-0.076
1747852342692924314,-0.066
1747852342700610599,-0.061
1747852342708296884,-0.056
1747852342715983169,-0.07100000000000001
1747852342723669454,-0.10300000000000001
1747852342731355739,-0.113
1747852342739042024,-0.105
1747852342746728309,-0.1
1747852342754414594,-0.1
1747852342762100879,-0.096
1747852342769787164,-0.091
1747852342777473449,-0.098
1747852342785159734,-0.125
1747852342792846019,-0.184
1747852342800532304,-0.224
1747852342808218589,0.022
1747852342815904874,0.716
1747852342823591159,1.5110000000000001
1747852342831277444,1.76
1747852342838963729,0.839
1747852342846650070,-0.484,88,696
1747852342854336355,-0.6,,696
1747852342862022640,-0.081
1747852342869708925,-0.132
1747852342877395210,-0.258
1747852342885081495,-0.125
1747852342892767780,-0.096
1747852342900454065,-0.135
1747852342908140350,-0.091
1747852342915826635,-0.064
1747852342923512920,-0.076
1747852342931199205,-0.051000000000000004
1747852342938885490,-0.022
1747852342946571775,-0.017
1747852342954258060,0.002
1747852342961944345,0.036000000000000004
1747852342969630630,0.054
1747852342977316915,0.07100000000000001
1747852342985003200,0.1
1747852342992689485,0.128
1747852343000375770,0.155
1747852343008062055,0.182
1747852343015748340,0.20400000000000001
1747852343023434625,0.211
1747852343031120910,0.201
1747852343038807195,0.187
1747852343046493480,0.167
1747852343054179765,0.14200000000000002
1747852343061866050,0.105
1747852343069552335,0.066
1747852343077238620,0.017
1747852343084924905,-0.041
1747852343092611190,-0.1
1747852343100297475,-0.15
1747852343107983760,-0.189
1747852343115670045,-0.214
1747852343123356330,-0.226
1747852343131042615,-0.226
1747852343138728900,-0.219
1747852343146415185,-0.214
1747852343154101470,-0.20600000000000002
1747852343161787755,-0.196
1747852343169474040,-0.189
1747852343177160325,-0.17400000000000002
1747852343184846610,-0.162
1747852343192532895,-0.157
1747852343200219180,-0.15
1747852343207905465,-0.14
1747852343215591750,-0.137
1747852343223278035,-0.137
1747852343230964320,-0.137
1747852343238650605,-0.135
1747852343246336890,-0.132
1747852343254023175,-0.135
1747852343261709460,-0.137
1747852343269395745,-0.137
1747852343277082030,-0.135
1747852343284768315,-0.135
1747852343292454600,-0.135
1747852343300140885,-0.135
1747852343307827170,-0.132
1747852343315513455,-0.13
1747852343323199740,-0.125
1747852343330886025,-0.125
1747852343338572310,-0.13
1747852343346258595,-0.13
1747852343353944880,-0.12
1747852343361631165,-0.108
1747852343369317450,-0.098
1747852343377003735,-0.088
1747852343384690020,-0.076
1747852343392376305,-0.07100000000000001
1747852343400062590,-0.08600000000000001
1747852343407748931,-0.12
1747852343415435704,-0.13
1747852343423122477,-0.11800000000000001
1747852343430809250,-0.11
1747852343438496023,-0.113
1747852343446182796,-0.11
1747852343453869569,-0.108
1747852343461556342,-0.113
1747852343469243115,-0.128
1747852343476929888,-0.17400000000000002
1747852343484616661,-0.23600000000000002
1747852343492303434,-0.11
1747852343499990207,0.45
1747852343507676980,1.245
1747852343515363753,1.728
1747852343523050526,1.211
1747852343530737299,-0.15
1747852343538424072,-0.721
1747852343546110845,-0.228
1747852343553797618,-0.073
1747852343561484391,-0.265
1747852343569171164,-0.192
1747852343576857937,-0.108
1747852343584544710,-0.16
1747852343592231483,-0.145
1747852343599918256,-0.096
1747852343607605029,-0.096
1747852343615291802,-0.08600000000000001
1747852343622978575,-0.059000000000000004
1747852343630665348,-0.046
1747852343638352121,-0.032
1747852343646038894,-0.007
1747852343653725667,0.017
1747852343661412440,0.039
1747852343669099213,0.064
1747852343676785986,0.091
1747852343684472759,0.115
1747852343692159532,0.14
1747852343699846305,0.16
1747852343707533078,0.167
1747852343715219851,0.16
1747852343722906624,0.145
1747852343730593397,0.128
1747852343738280170,0.10300000000000001
1747852343745966943,0.073
1747852343753653716,0.041
1747852343761340489,-0.002
1747852343769027262,-0.059000000000000004
1747852343776714035,-0.115
1747852343784400808,-0.164
1747852343792087581,-0.201
1747852343799774354,-0.224
1747852343807461127,-0.23600000000000002
1747852343815147900,-0.241
1747852343822834673,-0.233
1747852343830521446,-0.221
1747852343838208219,-0.211
1747852343845894992,-0.20400000000000001
1747852343853581765,-0.196
1747852343861268538,-0.184
1747852343868955311,-0.177
1747852343876642084,-0.17200000000000001
1747852343884328857,-0.167
1747852343892015630,-0.162
1747852343899702403,-0.157
1747852343907389176,-0.155
1747852343915075949,-0.15
1747852343922762722,-0.147
1747852343930449495,-0.147
1747852343938136268,-0.147
1747852343945823041,-0.147
1747852343953509814,-0.15
1747852343961196587,-0.147
1747852343968883398,-0.147,88,699
1747852343976570032,-0.145
1747852343984256666,-0.145
1747852343991943300,-0.145
1747852343999629934,-0.145
1747852344007316568,-0.14
1747852344015003202,-0.135
1747852344022689836,-0.132
1747852344030376470,-0.13
1747852344038063104,-0.132
1747852344045749738,-0.137
1747852344053436372,-0.135
1747852344061123006,-0.123
1747852344068809640,-0.108
1747852344076496274,-0.096
1747852344084182908,-0.08600000000000001
1747852344091869542,-0.076
1747852344099556176,-0.07100000000000001
1747852344107242810,-0.088
1747852344114929444,-0.11800000000000001
1747852344122616078,-0.123
1747852344130302712,-0.11
1747852344137989346,-0.108
1747852344145675980,-0.105
1747852344153362614,-0.1
1747852344161049248,-0.096
1747852344168735882,-0.10300000000000001
1747852344176422516,-0.13
1747852344184109150,-0.196
1747852344191795784,-0.219
1747852344199482418,0.08600000000000001
1747852344207169052,0.8140000000000001
1747852344214855686,1.595
1747852344222542320,1.75
1747852344230228954,0.704
1747852344237915588,-0.5760000000000001
1747852344245602222,-0.561
1747852344253288856,-0.061
1747852344260975490,-0.167
1747852344268662124,-0.278
1747852344276348758,-0.145
1747852344284035392,-0.135
1747852344291722026,-0.177
1747852344299408660,-0.125
1747852344307095294,-0.096
1747852344314781928,-0.1
1747852344322468562,-0.078
1747852344330155196,-0.051000000000000004
1747852344337841830,-0.039
1747852344345528464,-0.022
1747852344353215098,0.004
1747852344360901732,0.029
1747852344368588366,0.054
1747852344376275000,0.081
1747852344383961634,0.105
1747852344391648268,0.135
1747852344399334902,0.157
1747852344407021536,0.17400000000000002
1747852344414708170,0.182
1747852344422394804,0.177
1747852344430081438,0.162
1747852344437768072,0.14200000000000002
1747852344445454706,0.115
1747852344453141340,0.083
1747852344460827974,0.044
1747852344468514608,-0.009000000000000001
1747852344476201242,-0.066
1747852344483887876,-0.12
1747852344491574510,-0.164
1747852344499261144,-0.199
1747852344506947778,-0.221
1747852344514634412,-0.228
1747852344522321046,-0.231
1747852344530007693,-0.224,88,695
1747852344537693978,-0.214
1747852344545380263,-0.20400000000000001
1747852344553066548,-0.196
1747852344560752833,-0.187
1747852344568439118,-0.177
1747852344576125403,-0.17200000000000001
1747852344583811688,-0.164
1747852344591497973,-0.16
1747852344599184258,-0.157
1747852344606870543,-0.155
1747852344614556828,-0.152
1747852344622243113,-0.152
1747852344629929398,-0.15
1747852344637615683,-0.15
1747852344645301968,-0.15
1747852344652988253,-0.15
1747852344660674538,-0.15
1747852344668360823,-0.15
1747852344676047108,-0.145
1747852344683733393,-0.145
1747852344691419678,-0.145
1747852344699105963,-0.14
1747852344706792248,-0.137
1747852344714478533,-0.137
1747852344722164818,-0.135
1747852344729851103,-0.132
1747852344737537388,-0.128
1747852344745223673,-0.128
1747852344752909958,-0.132
1747852344760596243,-0.132
1747852344768282528,-0.125
1747852344775968813,-0.11
1747852344783655098,-0.096
1747852344791341383,-0.08600000000000001
1747852344799027668,-0.076
1747852344806713953,-0.07100000000000001
1747852344814400238,-0.091
1747852344822086523,-0.12
1747852344829772808,-0.13
1747852344837459093,-0.123
1747852344845145378,-0.12
1747852344852831663,-0.11800000000000001
1747852344860517948,-0.11
1747852344868204233,-0.108
1747852344875890518,-0.113
1747852344883576803,-0.135
1747852344891263088,-0.196
1747852344898949373,-0.246
1747852344906635658,-0.027
1747852344914321943,0.642
1747852344922008228,1.481
1747852344929694513,1.846
1747852344937380798,1.0010000000000001
1747852344945067083,-0.41300000000000003
1747852344952753368,-0.664
1747852344960439653,-0.13
1747852344968125938,-0.135
1747852344975812223,-0.295
1747852344983498508,-0.177
1747852344991184793,-0.137
1747852344998871078,-0.187
1747852345006557363,-0.147
1747852345014243648,-0.11
1747852345021929933,-0.115
1747852345029616218,-0.098
1747852345037302503,-0.066
1747852345044988788,-0.051000000000000004
1747852345052675073,-0.034
1747852345060361358,-0.009000000000000001
1747852345068047643,0.014
1747852345075733928,0.036000000000000004
1747852345083420213,0.066
1747852345091106554,0.096
1747852345098792979,0.123
1747852345106479404,0.15
1747852345114165829,0.169
1747852345121852254,0.182
1747852345129538679,0.179
1747852345137225104,0.169
1747852345144911529,0.147
1747852345152597954,0.123
1747852345160284379,0.093
1747852345167970804,0.056
