time,ecg,hr,rr,marker
1747683180682703933,-0.081,89,674
1747683180690390636,-0.076,,666
1747683180698077339,-0.094
1747683180705764042,-0.10300000000000001
1747683180713450745,-0.091
1747683180721137448,-0.089
1747683180728824151,-0.096
1747683180736510854,-0.076
1747683180744197557,-0.056
1747683180751884260,-0.064
1747683180759570963,-0.059000000000000004
1747683180767257666,-0.042
1747683180774944369,-0.059000000000000004
1747683180782631072,-0.076
1747683180790317775,-0.069
1747683180798004478,-0.069
1747683180805691181,-0.069
1747683180813377884,-0.064
1747683180821064587,-0.061
1747683180828751290,-0.066
1747683180836437993,-0.076
1747683180844124696,-0.049
1747683180851811399,0.145
1747683180859498102,0.509
1747683180867184805,0.596
1747683180874871508,0.121
1747683180882558211,-0.38
1747683180890244914,-0.40800000000000003
1747683180897931617,-0.244
1747683180905618320,-0.215
1747683180913305023,-0.17
1747683180920991726,-0.059000000000000004
1747683180928678429,-0.034
1747683180936365132,-0.054
1747683180944051835,-0.037
1747683180951738538,-0.019
1747683180959425241,-0.014
1747683180967111944,-0.004
1747683180974798647,-0.004
1747683180982485350,-0.004
1747683180990172053,0.004
1747683180997858756,0.009000000000000001
1747683181005545459,0.012
1747683181013232162,0.022
1747683181020918865,0.027
1747683181028605568,0.029
1747683181036292271,0.037
1747683181043978974,0.049
1747683181051665677,0.056
1747683181059352380,0.066
1747683181067039083,0.076
1747683181074725786,0.084
1747683181082412489,0.091
1747683181090099192,0.098
1747683181097785895,0.096
1747683181105472598,0.098
1747683181113159301,0.096
1747683181120846004,0.081
1747683181128532707,0.076
1747683181136219410,0.081
1747683181143906113,0.064
1747683181151592816,0.032
1747683181159279519,-0.004
1747683181166966222,-0.039
1747683181174652925,-0.069
1747683181182339628,-0.089
1747683181190026331,-0.096
1747683181197713034,-0.106
1747683181205399737,-0.116
1747683181213086440,-0.111
1747683181220773143,-0.098
1747683181228459846,-0.096
1747683181236146549,-0.091
1747683181243833312,-0.084
1747683181251520015,-0.076
1747683181259206718,-0.069
1747683181266893421,-0.07100000000000001
1747683181274580124,-0.074
1747683181282266827,-0.069
1747683181289953530,-0.069
1747683181297640233,-0.074
1747683181305326936,-0.081
1747683181313013639,-0.081
1747683181320700342,-0.076
1747683181328387045,-0.074
1747683181336073748,-0.079
1747683181343760451,-0.079
1747683181351447154,-0.074
1747683181359133857,-0.076
1747683181366820560,-0.081
1747683181374507263,-0.081
1747683181382193966,-0.084
1747683181389880669,-0.096
1747683181397567372,-0.101
1747683181405254075,-0.089
1747683181412940778,-0.076
1747683181420627481,-0.069
1747683181428314184,-0.059000000000000004
1747683181436000887,-0.047
1747683181443687590,-0.037
1747683181451374293,-0.051000000000000004
1747683181459060996,-0.074
1747683181466747699,-0.074
1747683181474434402,-0.064
1747683181482121105,-0.069
1747683181489807808,-0.069
1747683181497494511,-0.056
1747683181505181214,-0.054
1747683181512867917,-0.069
1747683181520554620,-0.069
1747683181528241323,0.039
1747683181535928026,0.353
1747683181543614729,0.63
1747683181551301432,0.41500000000000004
1747683181558988135,-0.155
1747683181566674838,-0.423
1747683181574361541,-0.28200000000000003
1747683181582048244,-0.18
1747683181589734947,-0.168
1747683181597421650,-0.084
1747683181605108353,-0.039
1747683181612795056,-0.064
1747683181620481759,-0.054
1747683181628168462,-0.022
1747683181635855165,-0.022
1747683181643541868,-0.027
1747683181651228571,-0.014
1747683181658915274,-0.007
1747683181666601977,-0.004
1747683181674288680,-0.002
1747683181681975383,-0.004
1747683181689662086,-0.004
1747683181697348789,0.007
1747683181705035492,0.017
1747683181712722195,0.022
1747683181720408898,0.029
1747683181728095601,0.042
1747683181735782304,0.051000000000000004
1747683181743469007,0.049
1747683181751155710,0.051000000000000004
1747683181758842413,0.064
1747683181766529116,0.074
1747683181774215819,0.079
1747683181781902522,0.081
1747683181789589225,0.079
1747683181797275928,0.07100000000000001
1747683181804962691,0.069,89,673
1747683181812649812,0.069
1747683181820336933,0.056
1747683181828024054,0.034
1747683181835711175,0.007
1747683181843398296,-0.022
1747683181851085417,-0.054
1747683181858772538,-0.076
1747683181866459659,-0.091
1747683181874146780,-0.098
1747683181881833901,-0.10300000000000001
1747683181889521022,-0.101
1747683181897208143,-0.096
1747683181904895264,-0.096
1747683181912582385,-0.098
1747683181920269506,-0.098
1747683181927956627,-0.094
1747683181935643748,-0.08600000000000001
1747683181943330869,-0.076
1747683181951017990,-0.081
1747683181958705111,-0.091
1747683181966392232,-0.091
1747683181974079353,-0.08600000000000001
1747683181981766474,-0.094
1747683181989453595,-0.096
1747683181997140716,-0.094
1747683182004827837,-0.096
1747683182012514958,-0.101
1747683182020202079,-0.101
1747683182027889200,-0.101
1747683182035576321,-0.10300000000000001
1747683182043263442,-0.101
1747683182050950563,-0.098
1747683182058637684,-0.096
1747683182066324805,-0.096
1747683182074011926,-0.10300000000000001
1747683182081699047,-0.108
1747683182089386168,-0.10300000000000001
1747683182097073289,-0.091
1747683182104760410,-0.07100000000000001
1747683182112447531,-0.069
1747683182120134652,-0.07100000000000001
1747683182127821773,-0.061
1747683182135508894,-0.064
1747683182143196015,-0.081
1747683182150883136,-0.081
1747683182158570257,-0.074
1747683182166257378,-0.084
1747683182173944499,-0.081
1747683182181631620,-0.066
1747683182189318741,-0.066
1747683182197005862,-0.069
1747683182204692983,-0.08600000000000001
1747683182212380104,-0.049
1747683182220067225,0.21
1747683182227754346,0.5730000000000001
1747683182235441467,0.539
1747683182243128588,0.014
1747683182250815709,-0.4
1747683182258502830,-0.356
1747683182266189951,-0.21
1747683182273877072,-0.192
1747683182281564193,-0.138
1747683182289251314,-0.051000000000000004
1747683182296938435,-0.056
1747683182304625556,-0.07100000000000001
1747683182312312677,-0.044
1747683182319999798,-0.027
1747683182327686919,-0.029
1747683182335374040,-0.029
1747683182343061161,-0.019
1747683182350748282,-0.009000000000000001
1747683182358435403,-0.009000000000000001
1747683182366122592,-0.007
1747683182373809295,0.0
1747683182381495998,-0.002
1747683182389182701,0.0
1747683182396869404,0.009000000000000001
1747683182404556107,0.017
1747683182412242810,0.022
1747683182419929513,0.032
1747683182427616216,0.039
1747683182435302919,0.047
1747683182442989622,0.059000000000000004
1747683182450676325,0.069
1747683182458363028,0.069
1747683182466049731,0.066
1747683182473736434,0.064
1747683182481423137,0.061
1747683182489109840,0.064
1747683182496796543,0.059000000000000004
1747683182504483246,0.047
1747683182512169949,0.032
1747683182519856652,0.009000000000000001
1747683182527543355,-0.027
1747683182535230058,-0.056
1747683182542916761,-0.076
1747683182550603464,-0.094
1747683182558290167,-0.10300000000000001
1747683182565976870,-0.108
1747683182573663573,-0.108
1747683182581350276,-0.106
1747683182589036979,-0.101
1747683182596723682,-0.098
1747683182604410385,-0.098
1747683182612097088,-0.091
1747683182619783791,-0.084
1747683182627470494,-0.084
1747683182635157197,-0.08600000000000001
1747683182642843900,-0.084
1747683182650530603,-0.08600000000000001
1747683182658217306,-0.08600000000000001
1747683182665904009,-0.079
1747683182673590712,-0.081
1747683182681277415,-0.081
1747683182688964118,-0.081
1747683182696650821,-0.091
1747683182704337524,-0.094
1747683182712024227,-0.08600000000000001
1747683182719710930,-0.089
1747683182727397633,-0.091
1747683182735084336,-0.08600000000000001
1747683182742771039,-0.094
1747683182750457742,-0.098
1747683182758144445,-0.094
1747683182765831148,-0.096
1747683182773517851,-0.101
1747683182781204554,-0.091
1747683182788891257,-0.076
1747683182796577960,-0.059000000000000004
1747683182804264663,-0.056
1747683182811951366,-0.054
1747683182819638069,-0.054
1747683182827324772,-0.066
1747683182835011475,-0.079
1747683182842698178,-0.076
1747683182850384881,-0.074
1747683182858071584,-0.069
1747683182865758287,-0.069
1747683182873444990,-0.076
1747683182881131693,-0.07100000000000001
1747683182888818396,-0.076
1747683182896505099,-0.066
1747683182904191802,0.106
1747683182911878505,0.462
1747683182919565208,0.598
1747683182927251971,0.21,89,664
1747683182934938674,-0.299,,680
1747683182942625377,-0.41000000000000003
1747683182950312080,-0.254
1747683182957998783,-0.192
1747683182965685486,-0.16
1747683182973372189,-0.074
1747683182981058892,-0.047
1747683182988745595,-0.066
1747683182996432298,-0.054
1747683183004119001,-0.034
1747683183011805704,-0.032
1747683183019492407,-0.034
1747683183027179110,-0.029
1747683183034865813,-0.022
1747683183042552516,-0.014
1747683183050239219,-0.014
1747683183057925922,-0.012
1747683183065612625,-0.002
1747683183073299328,0.0
1747683183080986031,0.0
1747683183088672734,0.007
1747683183096359437,0.009000000000000001
1747683183104046140,0.019
1747683183111732843,0.039
1747683183119419546,0.044
1747683183127106249,0.039
1747683183134792952,0.054
1747683183142479655,0.069
1747683183150166358,0.069
1747683183157853061,0.061
1747683183165539764,0.054
1747683183173226467,0.056
1747683183180913170,0.056
1747683183188599873,0.049
1747683183196286576,0.037
1747683183203973279,0.017
1747683183211659982,-0.017
1747683183219346685,-0.049
1747683183227033388,-0.079
1747683183234720091,-0.101
1747683183242406794,-0.108
1747683183250093497,-0.116
1747683183257780200,-0.123
1747683183265466903,-0.113
1747683183273153606,-0.106
1747683183280840309,-0.108
1747683183288527012,-0.111
1747683183296213715,-0.10300000000000001
1747683183303900418,-0.101
1747683183311587121,-0.101
1747683183319273824,-0.101
1747683183326960527,-0.098
1747683183334647230,-0.094
1747683183342333933,-0.094
1747683183350020636,-0.096
1747683183357707339,-0.098
1747683183365394042,-0.094
1747683183373080745,-0.096
1747683183380767448,-0.108
1747683183388454151,-0.108
1747683183396140854,-0.091
1747683183403827557,-0.094
1747683183411514260,-0.101
1747683183419200963,-0.096
1747683183426887666,-0.089
1747683183434574369,-0.089
1747683183442261072,-0.094
1747683183449947775,-0.096
1747683183457634478,-0.096
1747683183465321181,-0.101
1747683183473007884,-0.10300000000000001
1747683183480694587,-0.101
1747683183488381350,-0.091
1747683183496068053,-0.069
1747683183503754756,-0.056
1747683183511441459,-0.054
1747683183519128162,-0.054
1747683183526814865,-0.059000000000000004
1747683183534501568,-0.074
1747683183542188271,-0.084
1747683183549874974,-0.081
1747683183557561677,-0.076
1747683183565248380,-0.074
1747683183572935083,-0.074
1747683183580621786,-0.076
1747683183588308489,-0.081
1747683183595995192,-0.089
1747683183603681895,-0.047
1747683183611368598,0.192
1747683183619055301,0.544
1747683183626742004,0.522
1747683183634428707,0.007
1747683183642115410,-0.403
1747683183649802113,-0.363
1747683183657488816,-0.222
1747683183665175519,-0.197
1747683183672862222,-0.138
1747683183680548925,-0.059000000000000004
1747683183688235628,-0.061
1747683183695922331,-0.07100000000000001
1747683183703609034,-0.049
1747683183711295737,-0.037
1747683183718982440,-0.032
1747683183726669143,-0.024
1747683183734355846,-0.024
1747683183742042549,-0.022
1747683183749729252,-0.012
1747683183757415955,-0.009000000000000001
1747683183765102658,-0.009000000000000001
1747683183772789361,-0.004
1747683183780476064,-0.002
1747683183788162767,0.002
1747683183795849470,0.009000000000000001
1747683183803536173,0.017
1747683183811222876,0.024
1747683183818909579,0.034
1747683183826596282,0.042
1747683183834282985,0.051000000000000004
1747683183841969688,0.056
1747683183849656391,0.049
1747683183857343094,0.044
1747683183865029797,0.047
1747683183872716500,0.051000000000000004
1747683183880403203,0.051000000000000004
1747683183888089906,0.051000000000000004
1747683183895776609,0.044
1747683183903463312,0.024
1747683183911150015,0.0
1747683183918836718,-0.032
1747683183926523421,-0.061
1747683183934210124,-0.076
1747683183941896827,-0.096
1747683183949583530,-0.113
1747683183957270233,-0.113
1747683183964956936,-0.111
1747683183972643639,-0.116
1747683183980330342,-0.113
1747683183988017045,-0.106
1747683183995703748,-0.108
1747683184003390451,-0.106
1747683184011077154,-0.094
1747683184018763857,-0.091
1747683184026450560,-0.106
1747683184034137263,-0.106
1747683184041823966,-0.096
1747683184049510729,-0.098,89,687
1747683184057197781,-0.10300000000000001
1747683184064884833,-0.101
1747683184072571885,-0.101
1747683184080258937,-0.101
1747683184087945989,-0.101
1747683184095633041,-0.108
1747683184103320093,-0.113
1747683184111007145,-0.106
1747683184118694197,-0.098
1747683184126381249,-0.101
1747683184134068301,-0.101
1747683184141755353,-0.094
1747683184149442405,-0.094
1747683184157129457,-0.106
1747683184164816509,-0.111
1747683184172503561,-0.106
1747683184180190613,-0.101
1747683184187877665,-0.089
1747683184195564717,-0.069
1747683184203251769,-0.064
1747683184210938821,-0.066
1747683184218625873,-0.069
1747683184226312925,-0.076
1747683184233999977,-0.084
1747683184241687029,-0.091
1747683184249374081,-0.094
1747683184257061133,-0.089
1747683184264748185,-0.084
1747683184272435237,-0.084
1747683184280122289,-0.084
1747683184287809341,-0.089
1747683184295496393,-0.074
1747683184303183445,0.076
1747683184310870497,0.42
1747683184318557549,0.581
1747683184326244601,0.192
1747683184333931653,-0.333
1747683184341618705,-0.432
1747683184349305757,-0.272
1747683184356992809,-0.212
1747683184364679861,-0.17300000000000001
1747683184372366913,-0.076
1747683184380053965,-0.054
1747683184387741017,-0.074
1747683184395428069,-0.054
1747683184403115121,-0.039
1747683184410802173,-0.042
1747683184418489225,-0.034
1747683184426176277,-0.024
1747683184433863329,-0.024
1747683184441550381,-0.022
1747683184449237433,-0.014
1747683184456924485,-0.007
1747683184464611537,0.0
1747683184472298589,0.007
1747683184479985641,0.014
1747683184487672693,0.014
1747683184495359745,0.019
1747683184503046797,0.027
1747683184510733849,0.032
1747683184518420901,0.042
1747683184526107953,0.054
1747683184533795005,0.056
1747683184541482057,0.061
1747683184549169109,0.064
1747683184556856161,0.064
1747683184564543213,0.064
1747683184572230265,0.061
1747683184579917317,0.054
1747683184587604369,0.051000000000000004
1747683184595291421,0.042
1747683184602978473,0.017
1747683184610665543,-0.017
1747683184618352316,-0.049
1747683184626039089,-0.076
1747683184633725862,-0.094
1747683184641412635,-0.10300000000000001
1747683184649099408,-0.116
1747683184656786181,-0.121
1747683184664472954,-0.11800000000000001
1747683184672159727,-0.116
1747683184679846500,-0.113
1747683184687533273,-0.106
1747683184695220046,-0.101
1747683184702906819,-0.096
1747683184710593592,-0.096
1747683184718280365,-0.101
1747683184725967138,-0.101
1747683184733653911,-0.098
1747683184741340684,-0.098
1747683184749027457,-0.098
1747683184756714230,-0.094
1747683184764401003,-0.098
1747683184772087776,-0.101
1747683184779774549,-0.096
1747683184787461322,-0.096
1747683184795148095,-0.098
1747683184802834868,-0.101
1747683184810521641,-0.096
1747683184818208414,-0.094
1747683184825895187,-0.096
1747683184833581960,-0.098
1747683184841268733,-0.098
1747683184848955506,-0.094
1747683184856642279,-0.096
1747683184864329052,-0.106
1747683184872015825,-0.10300000000000001
1747683184879702598,-0.098
1747683184887389371,-0.089
1747683184895076144,-0.07100000000000001
1747683184902762917,-0.064
1747683184910449690,-0.061
1747683184918136463,-0.056
1747683184925823236,-0.069
1747683184933510009,-0.091
1747683184941196782,-0.091
1747683184948883555,-0.084
1747683184956570328,-0.084
1747683184964257101,-0.081
1747683184971943874,-0.076
1747683184979630647,-0.076
1747683184987317420,-0.08600000000000001
1747683184995004193,-0.074
1747683185002690966,0.076
1747683185010377739,0.423
1747683185018064512,0.598
1747683185025751285,0.23500000000000001
1747683185033438058,-0.299
1747683185041124831,-0.425
1747683185048811604,-0.262
1747683185056498377,-0.195
1747683185064185150,-0.163
1747683185071871923,-0.076
1747683185079558696,-0.051000000000000004
1747683185087245469,-0.069
1747683185094932242,-0.051000000000000004
1747683185102619015,-0.039
1747683185110305788,-0.044
1747683185117992561,-0.032
1747683185125679334,-0.017
1747683185133366107,-0.019
1747683185141052880,-0.022
1747683185148739653,-0.014
1747683185156426426,-0.004
1747683185164113199,0.0
1747683185171800005,0.002,89,687
1747683185179486708,0.002
1747683185187173411,0.004
1747683185194860114,0.017
1747683185202546817,0.027
1747683185210233520,0.032
1747683185217920223,0.037
1747683185225606926,0.042
1747683185233293629,0.042
1747683185240980332,0.044
1747683185248667035,0.049
1747683185256353738,0.054
1747683185264040441,0.047
1747683185271727144,0.037
1747683185279413847,0.032
1747683185287100550,0.029
1747683185294787253,0.017
1747683185302473956,0.0
1747683185310160659,-0.024
1747683185317847362,-0.061
1747683185325534065,-0.089
1747683185333220768,-0.098
1747683185340907471,-0.108
1747683185348594174,-0.11800000000000001
1747683185356280877,-0.11800000000000001
1747683185363967580,-0.113
1747683185371654283,-0.116
1747683185379340986,-0.11800000000000001
1747683185387027689,-0.108
1747683185394714392,-0.101
1747683185402401095,-0.111
1747683185410087798,-0.11800000000000001
1747683185417774501,-0.108
1747683185425461204,-0.098
1747683185433147907,-0.101
1747683185440834610,-0.098
1747683185448521313,-0.096
1747683185456208016,-0.094
1747683185463894719,-0.096
1747683185471581422,-0.101
1747683185479268125,-0.10300000000000001
1747683185486954828,-0.10300000000000001
1747683185494641531,-0.10300000000000001
1747683185502328234,-0.098
1747683185510014937,-0.098
1747683185517701640,-0.101
1747683185525388343,-0.096
1747683185533075046,-0.084
1747683185540761749,-0.08600000000000001
1747683185548448452,-0.106
1747683185556135155,-0.10300000000000001
1747683185563821858,-0.091
1747683185571508561,-0.096
1747683185579195264,-0.098
1747683185586881967,-0.096
1747683185594568670,-0.098
1747683185602255373,-0.096
1747683185609942076,-0.076
1747683185617628779,-0.061
1747683185625315482,-0.066
1747683185633002185,-0.069
1747683185640688888,-0.056
1747683185648375591,-0.061
1747683185656062294,-0.084
1747683185663748997,-0.089
1747683185671435700,-0.079
1747683185679122403,-0.076
1747683185686809106,-0.076
1747683185694495809,-0.076
1747683185702182512,-0.079
1747683185709869215,-0.08600000000000001
1747683185717555918,-0.084
1747683185725242621,0.037
1747683185732929388,0.373,88,705
1747683185740616091,0.608,,694
1747683185748302794,0.311
1747683185755989497,-0.242
1747683185763676200,-0.43
1747683185771362903,-0.279
1747683185779049606,-0.2
1747683185786736309,-0.17
1747683185794423012,-0.079
1747683185802109715,-0.051000000000000004
1747683185809796418,-0.076
1747683185817483121,-0.059000000000000004
1747683185825169824,-0.032
1747683185832856527,-0.032
1747683185840543230,-0.034
1747683185848229933,-0.027
1747683185855916636,-0.022
1747683185863603339,-0.022
1747683185871290042,-0.022
1747683185878976745,-0.019
1747683185886663448,-0.014
1747683185894350151,-0.007
1747683185902036854,-0.004
1747683185909723557,0.002
1747683185917410260,0.014
1747683185925096963,0.017
1747683185932783666,0.027
1747683185940470369,0.034
1747683185948157072,0.039
1747683185955843775,0.044
1747683185963530478,0.047
1747683185971217181,0.042
1747683185978903884,0.042
1747683185986590587,0.044
1747683185994277290,0.042
1747683186001963993,0.039
1747683186009650696,0.039
1747683186017337399,0.029
1747683186025024102,0.009000000000000001
1747683186032710805,-0.014
1747683186040397508,-0.039
1747683186048084211,-0.066
1747683186055770914,-0.089
1747683186063457617,-0.106
1747683186071144320,-0.113
1747683186078831023,-0.113
1747683186086517726,-0.113
1747683186094204429,-0.11800000000000001
1747683186101891132,-0.11800000000000001
1747683186109577835,-0.108
1747683186117264538,-0.101
1747683186124951241,-0.101
1747683186132637944,-0.101
1747683186140324647,-0.096
1747683186148011350,-0.094
1747683186155698053,-0.094
1747683186163384756,-0.096
1747683186171071459,-0.096
1747683186178758162,-0.096
1747683186186444865,-0.094
1747683186194131568,-0.096
1747683186201818271,-0.098
1747683186209504974,-0.101
1747683186217191677,-0.101
1747683186224878380,-0.098
1747683186232565083,-0.098
1747683186240251786,-0.098
1747683186247938489,-0.101
1747683186255625192,-0.106
1747683186263311895,-0.10300000000000001
1747683186270998598,-0.094
1747683186278685301,-0.096
1747683186286372004,-0.108
1747683186294058767,-0.106
1747683186301745679,-0.101
1747683186309432591,-0.106
1747683186317119503,-0.094
1747683186324806415,-0.066
1747683186332493327,-0.059000000000000004
1747683186340180239,-0.066
1747683186347867151,-0.064
1747683186355554063,-0.074
1747683186363240975,-0.08600000000000001
1747683186370927887,-0.084
1747683186378614799,-0.084
1747683186386301711,-0.08600000000000001
1747683186393988623,-0.079
1747683186401675535,-0.074
1747683186409362447,-0.076
1747683186417049359,-0.089
1747683186424736271,-0.094
1747683186432423183,0.004
1747683186440110095,0.319
1747683186447797007,0.591
1747683186455483919,0.368
1747683186463170831,-0.185
1747683186470857743,-0.435
1747683186478544655,-0.304
1747683186486231567,-0.20700000000000002
1747683186493918479,-0.188
1747683186501605391,-0.106
1747683186509292303,-0.059000000000000004
1747683186516979215,-0.076
1747683186524666127,-0.064
1747683186532353039,-0.044
1747683186540039951,-0.047
1747683186547726863,-0.042
1747683186555413775,-0.027
1747683186563100687,-0.022
1747683186570787599,-0.017
1747683186578474511,-0.019
1747683186586161423,-0.027
1747683186593848335,-0.014
1747683186601535247,0.0
1747683186609222159,0.002
1747683186616909071,0.007
1747683186624595983,0.017
1747683186632282895,0.022
1747683186639969807,0.029
1747683186647656719,0.039
1747683186655343631,0.039
1747683186663030543,0.042
1747683186670717455,0.047
1747683186678404367,0.051000000000000004
1747683186686091279,0.061
1747683186693778191,0.064
1747683186701465103,0.049
1747683186709152015,0.037
1747683186716838927,0.039
1747683186724525839,0.034
1747683186732212751,0.014
1747683186739899663,-0.012
1747683186747586575,-0.047
1747683186755273487,-0.074
1747683186762960399,-0.094
1747683186770647311,-0.111
1747683186778334223,-0.11800000000000001
1747683186786021135,-0.111
1747683186793708047,-0.106
1747683186801394959,-0.111
1747683186809081871,-0.113
1747683186816768783,-0.106
1747683186824455695,-0.098
1747683186832142607,-0.101
1747683186839829519,-0.101
1747683186847516431,-0.096
1747683186855203407,-0.094,88,700
1747683186862890180,-0.094
1747683186870576953,-0.089
1747683186878263726,-0.08600000000000001
1747683186885950499,-0.094
1747683186893637272,-0.098
1747683186901324045,-0.096
1747683186909010818,-0.096
1747683186916697591,-0.101
1747683186924384364,-0.108
1747683186932071137,-0.111
1747683186939757910,-0.108
1747683186947444683,-0.101
1747683186955131456,-0.096
1747683186962818229,-0.096
1747683186970505002,-0.10300000000000001
1747683186978191775,-0.101
1747683186985878548,-0.101
1747683186993565321,-0.108
1747683187001252094,-0.113
1747683187008938867,-0.10300000000000001
1747683187016625640,-0.101
1747683187024312413,-0.096
1747683187031999186,-0.074
1747683187039685959,-0.061
1747683187047372732,-0.061
1747683187055059505,-0.061
1747683187062746278,-0.069
1747683187070433051,-0.084
1747683187078119824,-0.084
1747683187085806597,-0.079
1747683187093493370,-0.076
1747683187101180143,-0.074
1747683187108866916,-0.074
1747683187116553689,-0.076
1747683187124240462,-0.08600000000000001
1747683187131927235,-0.076
1747683187139614008,0.079
1747683187147300781,0.437
1747683187154987554,0.603
1747683187162674327,0.215
1747683187170361100,-0.314
1747683187178047873,-0.418
1747683187185734646,-0.259
1747683187193421419,-0.2
1747683187201108192,-0.163
1747683187208794965,-0.079
1747683187216481738,-0.051000000000000004
1747683187224168511,-0.064
1747683187231855284,-0.051000000000000004
1747683187239542057,-0.037
1747683187247228830,-0.029
1747683187254915603,-0.024
1747683187262602376,-0.022
1747683187270289149,-0.019
1747683187277975922,-0.019
1747683187285662695,-0.017
1747683187293349468,-0.009000000000000001
1747683187301036241,0.0
1747683187308723014,0.002
1747683187316409787,0.004
1747683187324096560,0.009000000000000001
1747683187331783333,0.017
1747683187339470106,0.022
1747683187347156879,0.032
1747683187354843652,0.039
1747683187362530425,0.042
1747683187370217198,0.044
1747683187377903971,0.049
1747683187385590744,0.056
1747683187393277517,0.051000000000000004
1747683187400964290,0.047
1747683187408651063,0.047
1747683187416337873,0.049
1747683187424024716,0.049
1747683187431711559,0.039
1747683187439398402,0.014
1747683187447085245,-0.014
1747683187454772088,-0.047
1747683187462458931,-0.079
1747683187470145774,-0.101
1747683187477832617,-0.113
1747683187485519460,-0.121
1747683187493206303,-0.11800000000000001
1747683187500893146,-0.113
1747683187508579989,-0.116
1747683187516266832,-0.11800000000000001
1747683187523953675,-0.108
1747683187531640518,-0.098
1747683187539327361,-0.096
1747683187547014204,-0.101
1747683187554701047,-0.101
1747683187562387890,-0.098
1747683187570074733,-0.091
1747683187577761576,-0.091
1747683187585448419,-0.096
1747683187593135262,-0.101
1747683187600822105,-0.101
1747683187608508948,-0.098
1747683187616195791,-0.10300000000000001
1747683187623882634,-0.10300000000000001
1747683187631569477,-0.10300000000000001
1747683187639256320,-0.111
1747683187646943163,-0.106
1747683187654630006,-0.098
1747683187662316849,-0.098
1747683187670003692,-0.096
1747683187677690535,-0.096
1747683187685377378,-0.098
1747683187693064221,-0.10300000000000001
1747683187700751064,-0.10300000000000001
1747683187708437907,-0.098
1747683187716124750,-0.098
1747683187723811593,-0.091
1747683187731498436,-0.074
1747683187739185279,-0.064
1747683187746872122,-0.061
1747683187754558965,-0.061
1747683187762245808,-0.069
1747683187769932651,-0.081
1747683187777619494,-0.081
1747683187785306337,-0.081
1747683187792993180,-0.084
1747683187800680023,-0.081
1747683187808366866,-0.07100000000000001
1747683187816053709,-0.076
1747683187823740552,-0.08600000000000001
1747683187831427395,-0.079
1747683187839114238,0.012
1747683187846801081,0.304
1747683187854487924,0.593
1747683187862174767,0.405
1747683187869861610,-0.15
1747683187877548453,-0.43
1747683187885235296,-0.311
1747683187892922139,-0.20700000000000002
1747683187900608982,-0.183
1747683187908295825,-0.098
1747683187915982668,-0.054
1747683187923669511,-0.07100000000000001
1747683187931356354,-0.059000000000000004
1747683187939043197,-0.039
1747683187946730040,-0.039
1747683187954416883,-0.032
1747683187962103726,-0.024
1747683187969790569,-0.019
1747683187977477422,-0.007,87,724
1747683187985164125,-0.012,,708
1747683187992850828,-0.024
1747683188000537531,-0.014
1747683188008224234,-0.002
1747683188015910937,0.007
1747683188023597640,0.009000000000000001
1747683188031284343,0.009000000000000001
1747683188038971046,0.017
1747683188046657749,0.027
1747683188054344452,0.034
1747683188062031155,0.042
1747683188069717858,0.049
1747683188077404561,0.051000000000000004
1747683188085091264,0.051000000000000004
1747683188092777967,0.051000000000000004
1747683188100464670,0.051000000000000004
1747683188108151373,0.056
1747683188115838076,0.056
1747683188123524779,0.051000000000000004
1747683188131211482,0.047
1747683188138898185,0.022
1747683188146584888,-0.012
1747683188154271591,-0.042
1747683188161958294,-0.064
1747683188169644997,-0.094
1747683188177331700,-0.113
1747683188185018403,-0.113
1747683188192705106,-0.113
1747683188200391809,-0.116
1747683188208078512,-0.111
1747683188215765215,-0.108
1747683188223451918,-0.10300000000000001
1747683188231138621,-0.094
1747683188238825324,-0.096
1747683188246512027,-0.106
1747683188254198730,-0.101
1747683188261885433,-0.096
1747683188269572136,-0.094
1747683188277258839,-0.094
1747683188284945542,-0.094
1747683188292632245,-0.096
1747683188300318948,-0.096
1747683188308005651,-0.101
1747683188315692354,-0.10300000000000001
1747683188323379057,-0.10300000000000001
1747683188331065760,-0.10300000000000001
1747683188338752463,-0.10300000000000001
1747683188346439166,-0.101
1747683188354125869,-0.101
1747683188361812572,-0.101
1747683188369499275,-0.094
1747683188377185978,-0.091
1747683188384872681,-0.098
1747683188392559384,-0.098
1747683188400246087,-0.094
1747683188407932790,-0.106
1747683188415619493,-0.113
1747683188423306196,-0.101
1747683188430992899,-0.084
1747683188438679602,-0.074
1747683188446366305,-0.069
1747683188454053008,-0.064
1747683188461739711,-0.064
1747683188469426414,-0.069
1747683188477113117,-0.079
1747683188484799820,-0.084
1747683188492486523,-0.089
1747683188500173226,-0.089
1747683188507859929,-0.081
1747683188515546632,-0.079
1747683188523233335,-0.089
1747683188530920038,-0.089
1747683188538606801,-0.079
1747683188546293922,0.014
1747683188553981043,0.316
1747683188561668164,0.596
1747683188569355285,0.376
1747683188577042406,-0.19
1747683188584729527,-0.44
1747683188592416648,-0.301
1747683188600103769,-0.20700000000000002
1747683188607790890,-0.192
1747683188615478011,-0.106
1747683188623165132,-0.056
1747683188630852253,-0.074
1747683188638539374,-0.066
1747683188646226495,-0.047
1747683188653913616,-0.051000000000000004
1747683188661600737,-0.051000000000000004
1747683188669287858,-0.037
1747683188676974979,-0.032
1747683188684662100,-0.032
1747683188692349221,-0.024
1747683188700036342,-0.017
1747683188707723463,-0.009000000000000001
1747683188715410584,-0.009000000000000001
1747683188723097705,-0.009000000000000001
1747683188730784826,0.0
1747683188738471947,0.012
1747683188746159068,0.022
1747683188753846189,0.027
1747683188761533310,0.029
1747683188769220431,0.037
1747683188776907552,0.047
1747683188784594673,0.049
1747683188792281794,0.049
1747683188799968915,0.051000000000000004
1747683188807656036,0.054
1747683188815343157,0.049
1747683188823030278,0.042
1747683188830717399,0.037
1747683188838404520,0.024
1747683188846091641,0.009000000000000001
1747683188853778762,-0.017
1747683188861465883,-0.051000000000000004
1747683188869153004,-0.081
1747683188876840125,-0.101
1747683188884527246,-0.11800000000000001
1747683188892214367,-0.128
1747683188899901488,-0.126
1747683188907588609,-0.121
1747683188915275730,-0.121
1747683188922962851,-0.121
1747683188930649972,-0.113
1747683188938337093,-0.108
1747683188946024214,-0.111
1747683188953711335,-0.106
1747683188961398456,-0.101
1747683188969085577,-0.101
1747683188976772698,-0.101
1747683188984459819,-0.096
1747683188992146940,-0.094
1747683188999834061,-0.101
1747683189007521182,-0.101
1747683189015208303,-0.10300000000000001
1747683189022895424,-0.10300000000000001
1747683189030582545,-0.106
1747683189038269666,-0.108
1747683189045956787,-0.108
1747683189053643908,-0.101
1747683189061331029,-0.094
1747683189069018150,-0.101
1747683189076705271,-0.106
1747683189084392392,-0.098
1747683189092079513,-0.098
1747683189099766702,-0.106,87,705
1747683189107453405,-0.106
1747683189115140108,-0.098
1747683189122826811,-0.094
1747683189130513514,-0.096
1747683189138200217,-0.106
1747683189145886920,-0.108
1747683189153573623,-0.101
1747683189161260326,-0.08600000000000001
1747683189168947029,-0.07100000000000001
1747683189176633732,-0.061
1747683189184320435,-0.061
1747683189192007138,-0.061
1747683189199693841,-0.069
1747683189207380544,-0.084
1747683189215067247,-0.089
1747683189222753950,-0.08600000000000001
1747683189230440653,-0.084
1747683189238127356,-0.079
1747683189245814059,-0.076
1747683189253500762,-0.079
1747683189261187465,-0.08600000000000001
1747683189268874168,-0.091
1747683189276560871,-0.017
1747683189284247574,0.264
1747683189291934277,0.5640000000000001
1747683189299620980,0.41000000000000003
1747683189307307683,-0.14100000000000001
1747683189314994386,-0.442
1747683189322681089,-0.329
1747683189330367792,-0.22
1747683189338054495,-0.21
1747683189345741198,-0.126
1747683189353427901,-0.061
1747683189361114604,-0.079
1747683189368801307,-0.076
1747683189376488010,-0.049
1747683189384174713,-0.056
1747683189391861416,-0.059000000000000004
1747683189399548119,-0.039
1747683189407234822,-0.027
1747683189414921525,-0.024
1747683189422608228,-0.024
1747683189430294931,-0.032
1747683189437981634,-0.027
1747683189445668337,-0.017
1747683189453355040,-0.014
1747683189461041743,-0.004
1747683189468728446,0.004
1747683189476415149,0.012
1747683189484101852,0.017
1747683189491788555,0.027
1747683189499475258,0.032
1747683189507161961,0.034
1747683189514848664,0.042
1747683189522535367,0.047
1747683189530222070,0.047
1747683189537908773,0.042
1747683189545595476,0.039
1747683189553282179,0.042
1747683189560968882,0.042
1747683189568655585,0.029
1747683189576342288,0.009000000000000001
1747683189584028991,-0.012
1747683189591715694,-0.034
1747683189599402397,-0.061
1747683189607089100,-0.089
1747683189614775803,-0.106
1747683189622462506,-0.108
1747683189630149209,-0.11800000000000001
1747683189637835912,-0.128
1747683189645522615,-0.121
1747683189653209318,-0.113
1747683189660896081,-0.116,87,702
1747683189668582784,-0.11800000000000001
1747683189676269487,-0.108
1747683189683956190,-0.10300000000000001
1747683189691642893,-0.10300000000000001
1747683189699329596,-0.101
1747683189707016299,-0.101
1747683189714703002,-0.106
1747683189722389705,-0.108
1747683189730076408,-0.111
1747683189737763111,-0.116
1747683189745449814,-0.11800000000000001
1747683189753136517,-0.11800000000000001
1747683189760823220,-0.113
1747683189768509923,-0.111
1747683189776196626,-0.113
1747683189783883329,-0.111
1747683189791570032,-0.111
1747683189799256735,-0.11800000000000001
1747683189806943438,-0.11800000000000001
1747683189814630141,-0.108
1747683189822316844,-0.098
1747683189830003547,-0.106
1747683189837690250,-0.113
1747683189845376953,-0.111
1747683189853063656,-0.108
1747683189860750359,-0.106
1747683189868437062,-0.108
1747683189876123765,-0.116
1747683189883810468,-0.116
1747683189891497171,-0.101
1747683189899183874,-0.08600000000000001
1747683189906870577,-0.074
1747683189914557280,-0.064
1747683189922243983,-0.069
1747683189929930686,-0.079
1747683189937617389,-0.089
1747683189945304092,-0.101
1747683189952990795,-0.101
1747683189960677498,-0.094
1747683189968364201,-0.094
1747683189976050904,-0.094
1747683189983737607,-0.096
1747683189991424310,-0.101
1747683189999111013,-0.10300000000000001
1747683190006797716,-0.059000000000000004
1747683190014484419,0.153
1747683190022171122,0.497
1747683190029857825,0.507
1747683190037544528,0.002
1747683190045231231,-0.423
1747683190052917934,-0.393
1747683190060604637,-0.247
1747683190068291340,-0.222
1747683190075978043,-0.16
1747683190083664746,-0.069
1747683190091351449,-0.069
1747683190099038152,-0.084
1747683190106724855,-0.056
1747683190114411558,-0.039
1747683190122098261,-0.054
1747683190129784964,-0.054
1747683190137471667,-0.042
1747683190145158370,-0.037
1747683190152845073,-0.034
1747683190160531776,-0.029
1747683190168218479,-0.022
1747683190175905182,-0.017
1747683190183591885,-0.014
1747683190191278588,-0.007
1747683190198965291,0.002
1747683190206651994,0.007
1747683190214338697,0.004
1747683190222025460,0.014
1747683190229712163,0.032
1747683190237398866,0.042
1747683190245085569,0.044
1747683190252772272,0.047
1747683190260458975,0.044
1747683190268145678,0.044
1747683190275832381,0.047
1747683190283519084,0.034
1747683190291205787,0.027
1747683190298892490,0.027
1747683190306579193,0.012
1747683190314265896,-0.009000000000000001
1747683190321952599,-0.034
1747683190329639302,-0.069
1747683190337326005,-0.098
1747683190345012708,-0.11800000000000001
1747683190352699411,-0.131
1747683190360386114,-0.136
1747683190368072817,-0.133
1747683190375759520,-0.131
1747683190383446223,-0.126
1747683190391132926,-0.121
1747683190398819629,-0.121
1747683190406506332,-0.126
1747683190414193035,-0.121
1747683190421879738,-0.113
1747683190429566441,-0.108
1747683190437253144,-0.108
1747683190444939847,-0.116
1747683190452626550,-0.113
1747683190460313253,-0.108
1747683190467999956,-0.106
1747683190475686659,-0.106
1747683190483373362,-0.108
1747683190491060065,-0.116
1747683190498746768,-0.116
1747683190506433471,-0.121
1747683190514120174,-0.121
1747683190521806877,-0.116
1747683190529493580,-0.113
1747683190537180283,-0.111
1747683190544866986,-0.111
1747683190552553689,-0.111
1747683190560240392,-0.113
1747683190567927095,-0.116
1747683190575613798,-0.113
1747683190583300501,-0.111
1747683190590987204,-0.11800000000000001
1747683190598673907,-0.131
1747683190606360610,-0.126
1747683190614047313,-0.111
1747683190621734016,-0.096
1747683190629420719,-0.076
1747683190637107422,-0.074
1747683190644794125,-0.079
1747683190652480828,-0.076
1747683190660167531,-0.084
1747683190667854234,-0.101
1747683190675540937,-0.10300000000000001
1747683190683227640,-0.101
1747683190690914343,-0.096
1747683190698601046,-0.094
1747683190706287749,-0.094
1747683190713974452,-0.098
1747683190721661155,-0.10300000000000001
1747683190729347858,-0.081
1747683190737034561,0.084
1747683190744721264,0.432
1747683190752407967,0.5660000000000001
1747683190760094670,0.16
1747683190767781373,-0.343
1747683190775468076,-0.427
1747683190783154839,-0.274,86,707
1747683190790841891,-0.215,,731
1747683190798528943,-0.17500000000000002
1747683190806215995,-0.096
1747683190813903047,-0.079
1747683190821590099,-0.089
1747683190829277151,-0.066
1747683190836964203,-0.056
1747683190844651255,-0.061
1747683190852338307,-0.056
1747683190860025359,-0.044
1747683190867712411,-0.042
1747683190875399463,-0.037
1747683190883086515,-0.027
1747683190890773567,-0.027
1747683190898460619,-0.027
1747683190906147671,-0.017
1747683190913834723,-0.012
1747683190921521775,-0.012
1747683190929208827,-0.007
1747683190936895879,0.007
1747683190944582931,0.019
1747683190952269983,0.022
1747683190959957035,0.024
1747683190967644087,0.037
1747683190975331139,0.044
1747683190983018191,0.044
1747683190990705243,0.047
1747683190998392295,0.039
1747683191006079347,0.027
1747683191013766399,0.034
1747683191021453451,0.034
1747683191029140503,0.009000000000000001
1747683191036827555,-0.014
1747683191044514607,-0.034
1747683191052201659,-0.074
1747683191059888711,-0.111
1747683191067575763,-0.126
1747683191075262815,-0.133
1747683191082949867,-0.145
1747683191090636919,-0.145
1747683191098323971,-0.138
1747683191106011023,-0.131
1747683191113698075,-0.131
1747683191121385127,-0.133
1747683191129072179,-0.128
1747683191136759231,-0.121
1747683191144446283,-0.126
1747683191152133335,-0.126
1747683191159820387,-0.11800000000000001
1747683191167507439,-0.121
1747683191175194491,-0.11800000000000001
1747683191182881543,-0.111
1747683191190568595,-0.116
1747683191198255647,-0.11800000000000001
1747683191205942699,-0.11800000000000001
1747683191213629751,-0.123
1747683191221316803,-0.128
1747683191229003855,-0.123
1747683191236690907,-0.123
1747683191244377959,-0.123
1747683191252065011,-0.121
1747683191259752063,-0.121
1747683191267439115,-0.123
1747683191275126167,-0.11800000000000001
1747683191282813219,-0.116
1747683191290500271,-0.116
1747683191298187323,-0.126
1747683191305874375,-0.136
1747683191313561427,-0.131
1747683191321248479,-0.123
1747683191328935531,-0.116
1747683191336622583,-0.096
1747683191344309653,-0.079
1747683191351996426,-0.079
1747683191359683199,-0.081
1747683191367369972,-0.08600000000000001
1747683191375056745,-0.10300000000000001
1747683191382743518,-0.111
1747683191390430291,-0.10300000000000001
1747683191398117064,-0.101
1747683191405803837,-0.106
1747683191413490610,-0.111
1747683191421177383,-0.106
1747683191428864156,-0.106
1747683191436550929,-0.111
1747683191444237702,-0.066
1747683191451924475,0.168
1747683191459611248,0.512
1747683191467298021,0.482
1747683191474984794,-0.051000000000000004
1747683191482671567,-0.47000000000000003
1747683191490358340,-0.41500000000000004
1747683191498045113,-0.257
1747683191505731886,-0.23
1747683191513418659,-0.17
1747683191521105432,-0.079
1747683191528792205,-0.074
1747683191536478978,-0.08600000000000001
1747683191544165751,-0.056
1747683191551852524,-0.042
1747683191559539297,-0.054
1747683191567226070,-0.056
1747683191574912843,-0.044
1747683191582599616,-0.037
1747683191590286389,-0.029
1747683191597973162,-0.027
1747683191605659935,-0.022
1747683191613346708,-0.009000000000000001
1747683191621033481,0.002
1747683191628720254,-0.002
1747683191636407027,-0.007
1747683191644093800,0.002
1747683191651780573,0.019
1747683191659467346,0.034
1747683191667154119,0.039
1747683191674840892,0.044
1747683191682527665,0.056
1747683191690214438,0.066
1747683191697901211,0.07100000000000001
1747683191705587984,0.074
1747683191713274757,0.066
1747683191720961530,0.059000000000000004
1747683191728648303,0.051000000000000004
1747683191736335076,0.034
1747683191744021849,0.019
1747683191751708622,-0.004
1747683191759395395,-0.047
1747683191767082168,-0.084
1747683191774768941,-0.108
1747683191782455714,-0.136
1747683191790142487,-0.16
1747683191797829260,-0.165
1747683191805516033,-0.153
1747683191813202806,-0.14300000000000002
1747683191820889579,-0.145
1747683191828576352,-0.14300000000000002
1747683191836263125,-0.133
1747683191843949898,-0.126
1747683191851636671,-0.126
1747683191859323444,-0.128
1747683191867010217,-0.111
1747683191874696990,-0.091
1747683191882383763,-0.098
1747683191890070536,-0.116
1747683191897757309,-0.116
1747683191905444119,-0.108,86,732
1747683191913130822,-0.113
1747683191920817525,-0.121
1747683191928504228,-0.113
1747683191936190931,-0.111
1747683191943877634,-0.123
1747683191951564337,-0.131
1747683191959251040,-0.11800000000000001
1747683191966937743,-0.116
1747683191974624446,-0.126
1747683191982311149,-0.133
1747683191989997852,-0.128
1747683191997684555,-0.128
1747683192005371258,-0.123
1747683192013057961,-0.106
1747683192020744664,-0.094
1747683192028431367,-0.089
1747683192036118070,-0.081
1747683192043804773,-0.08600000000000001
1747683192051491476,-0.106
1747683192059178179,-0.113
1747683192066864882,-0.116
1747683192074551585,-0.126
1747683192082238288,-0.123
1747683192089924991,-0.108
1747683192097611694,-0.101
1747683192105298397,-0.096
1747683192112985100,-0.084
1747683192120671803,-0.007
1747683192128358506,0.262
1747683192136045209,0.5710000000000001
1747683192143731912,0.39
1747683192151418615,-0.244
1747683192159105318,-0.5690000000000001
1747683192166792021,-0.4
1747683192174478724,-0.274
1747683192182165427,-0.269
1747683192189852130,-0.155
1747683192197538833,-0.059000000000000004
1747683192205225536,-0.07100000000000001
1747683192212912239,-0.074
1747683192220598942,-0.051000000000000004
1747683192228285645,-0.054
1747683192235972348,-0.051000000000000004
1747683192243659051,-0.032
1747683192251345754,-0.027
1747683192259032457,-0.029
1747683192266719160,-0.019
1747683192274405863,-0.009000000000000001
1747683192282092566,-0.007
1747683192289779269,-0.009000000000000001
1747683192297465972,-0.007
1747683192305152675,0.002
1747683192312839378,0.014
1747683192320526081,0.022
1747683192328212784,0.032
1747683192335899487,0.051000000000000004
1747683192343586190,0.066
1747683192351272893,0.066
1747683192358959596,0.069
1747683192366646299,0.084
1747683192374333002,0.091
1747683192382019705,0.089
1747683192389706408,0.08600000000000001
1747683192397393111,0.079
1747683192405079814,0.061
1747683192412766517,0.047
1747683192420453220,0.027
1747683192428139923,-0.014
1747683192435826626,-0.066
1747683192443513329,-0.101
1747683192451200032,-0.123
1747683192458886735,-0.145
1747683192466573498,-0.15
1747683192474260201,-0.145
1747683192481946904,-0.148
1747683192489633607,-0.155
1747683192497320310,-0.148
1747683192505007013,-0.133
1747683192512693716,-0.126
1747683192520380419,-0.126
1747683192528067122,-0.116
1747683192535753825,-0.113
1747683192543440528,-0.111
1747683192551127231,-0.101
1747683192558813934,-0.096
1747683192566500637,-0.10300000000000001
1747683192574187340,-0.108
1747683192581874043,-0.108
1747683192589560746,-0.113
1747683192597247449,-0.116
1747683192604934152,-0.11800000000000001
1747683192612620855,-0.116
1747683192620307558,-0.113
1747683192627994261,-0.113
1747683192635680964,-0.11800000000000001
1747683192643367667,-0.121
1747683192651054370,-0.11800000000000001
1747683192658741073,-0.128
1747683192666427776,-0.14300000000000002
1747683192674114479,-0.138
1747683192681801182,-0.121
1747683192689487885,-0.101
1747683192697174588,-0.091
1747683192704861291,-0.084
1747683192712547994,-0.076
1747683192720234697,-0.08600000000000001
1747683192727921400,-0.108
1747683192735608103,-0.113
1747683192743294806,-0.113
1747683192750981509,-0.113
1747683192758668212,-0.10300000000000001
1747683192766354915,-0.098
1747683192774041618,-0.10300000000000001
1747683192781728321,-0.111
1747683192789415024,-0.113
1747683192797101727,-0.029
1747683192804788430,0.28400000000000003
1747683192812475133,0.618
1747683192820161836,0.45
1747683192827848539,-0.168
1747683192835535242,-0.512
1747683192843221945,-0.371
1747683192850908648,-0.232
1747683192858595351,-0.222
1747683192866282054,-0.14100000000000001
1747683192873968757,-0.076
1747683192881655460,-0.098
1747683192889342163,-0.096
1747683192897028866,-0.069
1747683192904715569,-0.069
1747683192912402272,-0.069
1747683192920088975,-0.054
1747683192927775678,-0.042
1747683192935462381,-0.034
1747683192943149084,-0.034
1747683192950835787,-0.039
1747683192958522490,-0.034
1747683192966209193,-0.022
1747683192973895896,-0.017
1747683192981582599,-0.014
1747683192989269302,-0.004
1747683192996956005,0.002
1747683193004642708,0.007
1747683193012329411,0.024
1747683193020016114,0.039
1747683193027702877,0.032,85,725
1747683193035389580,0.034,,713
1747683193043076283,0.056
1747683193050762986,0.056
1747683193058449689,0.049
1747683193066136392,0.061
1747683193073823095,0.061
1747683193081509798,0.039
1747683193089196501,0.024
1747683193096883204,0.004
1747683193104569907,-0.037
1747683193112256610,-0.07100000000000001
1747683193119943313,-0.094
1747683193127630016,-0.121
1747683193135316719,-0.14100000000000001
1747683193143003422,-0.148
1747683193150690125,-0.15
1747683193158376828,-0.155
1747683193166063531,-0.15
1747683193173750234,-0.145
1747683193181436937,-0.14300000000000002
1747683193189123640,-0.133
1747683193196810343,-0.123
1747683193204497046,-0.121
1747683193212183749,-0.116
1747683193219870452,-0.116
1747683193227557155,-0.116
1747683193235243858,-0.111
1747683193242930561,-0.111
1747683193250617264,-0.121
1747683193258303967,-0.121
1747683193265990670,-0.113
1747683193273677373,-0.113
1747683193281364076,-0.11800000000000001
1747683193289050779,-0.116
1747683193296737482,-0.116
1747683193304424185,-0.116
1747683193312110888,-0.108
1747683193319797591,-0.11800000000000001
1747683193327484294,-0.138
1747683193335170997,-0.14100000000000001
1747683193342857700,-0.131
1747683193350544403,-0.121
1747683193358231106,-0.101
1747683193365917809,-0.08600000000000001
1747683193373604512,-0.091
1747683193381291215,-0.089
1747683193388977918,-0.079
1747683193396664621,-0.094
1747683193404351324,-0.111
1747683193412038027,-0.108
1747683193419724730,-0.108
1747683193427411433,-0.111
1747683193435098136,-0.10300000000000001
1747683193442784839,-0.091
1747683193450471542,-0.094
1747683193458158245,-0.111
1747683193465844948,-0.11800000000000001
1747683193473531651,-0.007
1747683193481218354,0.331
1747683193488905057,0.63
1747683193496591760,0.41300000000000003
1747683193504278463,-0.17500000000000002
1747683193511965166,-0.457
1747683193519651869,-0.326
1747683193527338572,-0.217
1747683193535025275,-0.197
1747683193542711978,-0.123
1747683193550398681,-0.081
1747683193558085384,-0.098
1747683193565772087,-0.08600000000000001
1747683193573458790,-0.069
1747683193581145493,-0.074
1747683193588832256,-0.07100000000000001
1747683193596518959,-0.059000000000000004
1747683193604205662,-0.047
1747683193611892365,-0.037
1747683193619579068,-0.037
1747683193627265771,-0.037
1747683193634952474,-0.029
1747683193642639177,-0.029
1747683193650325880,-0.032
1747683193658012583,-0.022
1747683193665699286,-0.009000000000000001
1747683193673385989,-0.002
1747683193681072692,0.002
1747683193688759395,0.009000000000000001
1747683193696446098,0.019
1747683193704132801,0.029
1747683193711819504,0.039
1747683193719506207,0.042
1747683193727192910,0.044
1747683193734879613,0.042
1747683193742566316,0.039
1747683193750253019,0.039
1747683193757939722,0.032
1747683193765626425,0.014
1747683193773313128,-0.012
1747683193780999831,-0.047
1747683193788686534,-0.076
1747683193796373237,-0.101
1747683193804059940,-0.126
1747683193811746643,-0.14300000000000002
1747683193819433346,-0.153
1747683193827120049,-0.158
1747683193834806752,-0.16
1747683193842493455,-0.153
1747683193850180158,-0.15
1747683193857866861,-0.148
1747683193865553564,-0.14100000000000001
1747683193873240267,-0.14100000000000001
1747683193880926970,-0.14100000000000001
1747683193888613673,-0.138
1747683193896300376,-0.136
1747683193903987079,-0.131
1747683193911673782,-0.123
1747683193919360485,-0.126
1747683193927047188,-0.136
1747683193934733891,-0.136
1747683193942420594,-0.131
1747683193950107297,-0.121
1747683193957794000,-0.123
1747683193965480703,-0.136
1747683193973167406,-0.138
1747683193980854109,-0.128
1747683193988540812,-0.128
1747683193996227515,-0.136
1747683194003914218,-0.131
1747683194011600921,-0.123
1747683194019287624,-0.126
1747683194026974327,-0.133
1747683194034661030,-0.138
1747683194042347733,-0.138
1747683194050034436,-0.133
1747683194057721139,-0.11800000000000001
1747683194065407842,-0.098
1747683194073094545,-0.08600000000000001
1747683194080781248,-0.094
1747683194088467951,-0.091
1747683194096154654,-0.091
1747683194103841357,-0.111
1747683194111528060,-0.116
1747683194119214763,-0.101
1747683194126901466,-0.098
1747683194134588169,-0.106
1747683194142274872,-0.10300000000000001
1747683194149961635,-0.098,85,675
1747683194157648338,-0.096
1747683194165335041,-0.113
1747683194173021744,-0.101
1747683194180708447,0.091
1747683194188395150,0.47200000000000003
1747683194196081853,0.593
1747683194203768556,0.153
1747683194211455259,-0.368
1747683194219141962,-0.435
1747683194226828665,-0.264
1747683194234515368,-0.21
1747683194242202071,-0.17500000000000002
1747683194249888774,-0.106
1747683194257575477,-0.098
1747683194265262180,-0.111
1747683194272948883,-0.089
1747683194280635586,-0.069
1747683194288322289,-0.069
1747683194296008992,-0.066
1747683194303695695,-0.051000000000000004
1747683194311382398,-0.047
1747683194319069101,-0.049
1747683194326755804,-0.042
1747683194334442507,-0.032
1747683194342129210,-0.032
1747683194349815913,-0.029
1747683194357502616,-0.019
1747683194365189319,-0.012
1747683194372876022,-0.004
1747683194380562725,-0.002
1747683194388249428,0.007
1747683194395936131,0.022
1747683194403622834,0.029
1747683194411309537,0.029
1747683194418996240,0.037
1747683194426682943,0.047
1747683194434369646,0.051000000000000004
1747683194442056349,0.044
1747683194449743052,0.042
1747683194457429755,0.042
1747683194465116458,0.034
1747683194472803161,0.022
1747683194480489864,0.0
1747683194488176567,-0.042
1747683194495863270,-0.076
1747683194503549973,-0.096
1747683194511236676,-0.116
1747683194518923379,-0.133
1747683194526610082,-0.136
1747683194534296785,-0.131
1747683194541983488,-0.131
1747683194549670191,-0.128
1747683194557356894,-0.123
1747683194565043597,-0.11800000000000001
1747683194572730300,-0.121
1747683194580417003,-0.111
1747683194588103706,-0.101
1747683194595790409,-0.111
1747683194603477112,-0.11800000000000001
1747683194611163815,-0.10300000000000001
1747683194618850518,-0.096
1747683194626537221,-0.106
1747683194634223924,-0.111
1747683194641910627,-0.106
1747683194649597330,-0.101
1747683194657284033,-0.094
1747683194664970736,-0.096
1747683194672657439,-0.10300000000000001
1747683194680344142,-0.10300000000000001
1747683194688030845,-0.098
1747683194695717548,-0.098
1747683194703404251,-0.10300000000000001
1747683194711091014,-0.10300000000000001,85,677
1747683194718778135,-0.094
1747683194726465256,-0.094
1747683194734152377,-0.10300000000000001
1747683194741839498,-0.096
1747683194749526619,-0.089
1747683194757213740,-0.098
1747683194764900861,-0.096
1747683194772587982,-0.089
1747683194780275103,-0.096
1747683194787962224,-0.108
1747683194795649345,-0.108
1747683194803336466,-0.10300000000000001
1747683194811023587,-0.091
1747683194818710708,-0.066
1747683194826397829,-0.054
1747683194834084950,-0.061
1747683194841772071,-0.064
1747683194849459192,-0.061
1747683194857146313,-0.07100000000000001
1747683194864833434,-0.081
1747683194872520555,-0.079
1747683194880207676,-0.076
1747683194887894797,-0.074
1747683194895581918,-0.074
1747683194903269039,-0.074
1747683194910956160,-0.074
1747683194918643281,-0.084
1747683194926330402,-0.081
1747683194934017523,0.089
1747683194941704644,0.462
1747683194949391765,0.608
1747683194957078886,0.195
1747683194964766007,-0.331
1747683194972453128,-0.423
1747683194980140249,-0.252
1747683194987827370,-0.195
1747683194995514491,-0.168
1747683195003201612,-0.084
1747683195010888733,-0.064
1747683195018575854,-0.08600000000000001
1747683195026262975,-0.069
1747683195033950096,-0.049
1747683195041637217,-0.049
1747683195049324338,-0.047
1747683195057011459,-0.037
1747683195064698580,-0.032
1747683195072385701,-0.029
1747683195080072822,-0.024
1747683195087759943,-0.029
1747683195095447064,-0.022
1747683195103134185,-0.009000000000000001
1747683195110821306,-0.012
1747683195118508427,-0.007
1747683195126195548,0.007
1747683195133882669,0.009000000000000001
1747683195141569790,0.009000000000000001
1747683195149256911,0.019
1747683195156944032,0.032
1747683195164631153,0.034
1747683195172318274,0.034
1747683195180005395,0.037
1747683195187692516,0.037
1747683195195379637,0.034
1747683195203066758,0.034
1747683195210753879,0.032
1747683195218441000,0.027
1747683195226128121,0.012
1747683195233815242,-0.009000000000000001
1747683195241502363,-0.034
1747683195249189484,-0.066
1747683195256876605,-0.094
1747683195264563726,-0.113
1747683195272250915,-0.133
1747683195279937618,-0.14300000000000002
1747683195287624321,-0.145
1747683195295311024,-0.145
1747683195302997727,-0.14100000000000001
1747683195310684430,-0.133
1747683195318371133,-0.131
1747683195326057836,-0.133
1747683195333744539,-0.136
1747683195341431242,-0.131
1747683195349117945,-0.126
1747683195356804648,-0.123
1747683195364491351,-0.126
1747683195372178054,-0.128
1747683195379864757,-0.131
1747683195387551460,-0.133
1747683195395238163,-0.131
1747683195402924866,-0.128
1747683195410611569,-0.133
1747683195418298272,-0.138
1747683195425984975,-0.136
1747683195433671678,-0.133
1747683195441358381,-0.136
1747683195449045084,-0.138
1747683195456731787,-0.136
1747683195464418490,-0.136
1747683195472105193,-0.14300000000000002
1747683195479791896,-0.138
1747683195487478599,-0.123
1747683195495165302,-0.123
1747683195502852005,-0.131
1747683195510538708,-0.131
1747683195518225411,-0.128
1747683195525912114,-0.128
1747683195533598817,-0.123
1747683195541285520,-0.11800000000000001
1747683195548972223,-0.126
1747683195556658926,-0.123
1747683195564345629,-0.11800000000000001
1747683195572032332,-0.126
1747683195579719035,-0.131
1747683195587405738,-0.126
1747683195595092441,-0.11800000000000001
1747683195602779144,-0.10300000000000001
1747683195610465847,-0.084
1747683195618152550,-0.08600000000000001
1747683195625839253,-0.08600000000000001
1747683195633525956,-0.079
1747683195641212659,-0.089
1747683195648899362,-0.108
1747683195656586065,-0.108
1747683195664272768,-0.108
1747683195671959471,-0.113
1747683195679646174,-0.111
1747683195687332877,-0.106
1747683195695019580,-0.108
1747683195702706283,-0.121
1747683195710392986,-0.121
1747683195718079689,-0.012
1747683195725766392,0.314
1747683195733453095,0.583
1747683195741139798,0.336
1747683195748826501,-0.23500000000000001
1747683195756513204,-0.482
1747683195764199907,-0.343
1747683195771886610,-0.242
1747683195779573313,-0.21
1747683195787260016,-0.126
1747683195794946719,-0.091
1747683195802633422,-0.111
1747683195810320125,-0.096
1747683195818006828,-0.079
1747683195825693531,-0.08600000000000001
1747683195833380294,-0.081,86,676
1747683195841066997,-0.064,,704
1747683195848753700,-0.056
1747683195856440403,-0.054
1747683195864127106,-0.056
1747683195871813809,-0.051000000000000004
1747683195879500512,-0.037
1747683195887187215,-0.029
1747683195894873918,-0.039
1747683195902560621,-0.037
1747683195910247324,-0.014
1747683195917934027,-0.004
1747683195925620730,-0.007
1747683195933307433,0.002
1747683195940994136,0.012
1747683195948680839,0.017
1747683195956367542,0.024
1747683195964054245,0.032
1747683195971740948,0.027
1747683195979427651,0.022
1747683195987114354,0.022
1747683195994801057,0.019
1747683196002487760,0.017
1747683196010174463,0.009000000000000001
1747683196017861166,-0.007
1747683196025547869,-0.032
1747683196033234572,-0.066
1747683196040921275,-0.096
1747683196048607978,-0.113
1747683196056294681,-0.133
1747683196063981384,-0.148
1747683196071668087,-0.153
1747683196079354790,-0.148
1747683196087041493,-0.14300000000000002
1747683196094728196,-0.136
1747683196102414899,-0.133
1747683196110101602,-0.138
1747683196117788305,-0.133
1747683196125475008,-0.11800000000000001
1747683196133161711,-0.116
1747683196140848414,-0.123
1747683196148535117,-0.121
1747683196156221820,-0.113
1747683196163908523,-0.116
1747683196171595226,-0.123
1747683196179281929,-0.116
1747683196186968632,-0.111
1747683196194655335,-0.11800000000000001
1747683196202342038,-0.126
1747683196210028741,-0.126
1747683196217715444,-0.11800000000000001
1747683196225402147,-0.116
1747683196233088850,-0.11800000000000001
1747683196240775553,-0.121
1747683196248462256,-0.116
1747683196256148959,-0.113
1747683196263835662,-0.113
1747683196271522365,-0.108
1747683196279209068,-0.10300000000000001
1747683196286895771,-0.10300000000000001
1747683196294582474,-0.098
1747683196302269177,-0.094
1747683196309955880,-0.098
1747683196317642583,-0.101
1747683196325329286,-0.098
1747683196333015989,-0.096
1747683196340702692,-0.10300000000000001
1747683196348389395,-0.106
1747683196356076098,-0.101
1747683196363762801,-0.08600000000000001
1747683196371449504,-0.066
1747683196379136207,-0.064
1747683196386822910,-0.064
1747683196394509673,-0.056
1747683196402196376,-0.066
1747683196409883079,-0.079
1747683196417569782,-0.081
1747683196425256485,-0.08600000000000001
1747683196432943188,-0.091
1747683196440629891,-0.084
1747683196448316594,-0.079
1747683196456003297,-0.081
1747683196463690000,-0.08600000000000001
1747683196471376703,-0.076
1747683196479063406,0.051000000000000004
1747683196486750109,0.388
1747683196494436812,0.593
1747683196502123515,0.23
1747683196509810218,-0.343
1747683196517496921,-0.47200000000000003
1747683196525183624,-0.291
1747683196532870327,-0.232
1747683196540557030,-0.202
1747683196548243733,-0.084
1747683196555930436,-0.037
1747683196563617139,-0.064
1747683196571303842,-0.051000000000000004
1747683196578990545,-0.029
1747683196586677248,-0.032
1747683196594363951,-0.029
1747683196602050654,-0.019
1747683196609737357,-0.022
1747683196617424060,-0.019
1747683196625110763,-0.009000000000000001
1747683196632797466,-0.002
1747683196640484169,0.0
1747683196648170872,0.002
1747683196655857575,0.004
1747683196663544278,0.009000000000000001
1747683196671230981,0.019
1747683196678917684,0.029
1747683196686604387,0.037
1747683196694291090,0.039
1747683196701977793,0.047
1747683196709664496,0.059000000000000004
1747683196717351199,0.064
1747683196725037902,0.064
1747683196732724605,0.064
1747683196740411308,0.066
1747683196748098011,0.066
1747683196755784714,0.059000000000000004
1747683196763471417,0.054
1747683196771158120,0.044
1747683196778844823,0.022
1747683196786531526,-0.012
1747683196794218229,-0.044
1747683196801904932,-0.07100000000000001
1747683196809591635,-0.096
1747683196817278338,-0.116
1747683196824965041,-0.126
1747683196832651744,-0.131
1747683196840338447,-0.128
1747683196848025150,-0.128
1747683196855711853,-0.126
1747683196863398556,-0.121
1747683196871085259,-0.111
1747683196878771962,-0.101
1747683196886458665,-0.101
1747683196894145368,-0.106
1747683196901832071,-0.10300000000000001
1747683196909518774,-0.098
1747683196917205477,-0.098
1747683196924892180,-0.096
1747683196932578883,-0.094
1747683196940265586,-0.101
1747683196947952289,-0.106
1747683196955639052,-0.101,86,754
1747683196963326034,-0.101
1747683196971013016,-0.10300000000000001
1747683196978699998,-0.098
1747683196986386980,-0.091
1747683196994073962,-0.098
1747683197001760944,-0.111
1747683197009447926,-0.106
1747683197017134908,-0.101
1747683197024821890,-0.101
1747683197032508872,-0.098
1747683197040195854,-0.094
1747683197047882836,-0.096
1747683197055569818,-0.094
1747683197063256800,-0.094
1747683197070943782,-0.098
1747683197078630764,-0.094
1747683197086317746,-0.089
1747683197094004728,-0.101
1747683197101691710,-0.111
1747683197109378692,-0.106
1747683197117065674,-0.091
1747683197124752656,-0.066
1747683197132439638,-0.056
1747683197140126620,-0.064
1747683197147813602,-0.059000000000000004
1747683197155500584,-0.061
1747683197163187566,-0.084
1747683197170874548,-0.091
1747683197178561530,-0.084
1747683197186248512,-0.084
1747683197193935494,-0.081
1747683197201622476,-0.079
1747683197209309458,-0.08600000000000001
1747683197216996440,-0.089
1747683197224683422,-0.084
1747683197232370404,-0.007
1747683197240057386,0.277
1747683197247744368,0.601
1747683197255431350,0.47200000000000003
1747683197263118332,-0.096
1747683197270805314,-0.445
1747683197278492296,-0.343
1747683197286179278,-0.212
1747683197293866260,-0.197
1747683197301553242,-0.126
1747683197309240224,-0.064
1747683197316927206,-0.081
1747683197324614188,-0.084
1747683197332301170,-0.059000000000000004
1747683197339988152,-0.049
1747683197347675134,-0.049
1747683197355362116,-0.042
1747683197363049098,-0.034
1747683197370736080,-0.034
1747683197378423062,-0.037
1747683197386110044,-0.034
1747683197393797026,-0.024
1747683197401484008,-0.017
1747683197409170990,-0.017
1747683197416857972,-0.017
1747683197424544954,-0.007
1747683197432231936,0.004
1747683197439918918,0.012
1747683197447605900,0.017
1747683197455292882,0.027
1747683197462979864,0.037
1747683197470666846,0.039
1747683197478353828,0.044
1747683197486040810,0.049
1747683197493727792,0.049
1747683197501414774,0.044
1747683197509101756,0.037
1747683197516788779,0.027
1747683197524476318,0.019
1747683197532163857,0.009000000000000001
1747683197539851396,-0.014
1747683197547538935,-0.049
1747683197555226474,-0.079
1747683197562914013,-0.101
1747683197570601552,-0.121
1747683197578289091,-0.133
1747683197585976630,-0.136
1747683197593664169,-0.136
1747683197601351708,-0.136
1747683197609039247,-0.133
1747683197616726786,-0.123
1747683197624414325,-0.123
1747683197632101864,-0.121
1747683197639789403,-0.113
1747683197647476942,-0.111
1747683197655164481,-0.113
1747683197662852020,-0.111
1747683197670539559,-0.111
1747683197678227098,-0.106
1747683197685914637,-0.101
1747683197693602176,-0.10300000000000001
1747683197701289715,-0.108
1747683197708977254,-0.108
1747683197716664793,-0.108
1747683197724352332,-0.106
1747683197732039871,-0.10300000000000001
1747683197739727410,-0.108
1747683197747414949,-0.113
1747683197755102488,-0.111
1747683197762790027,-0.108
1747683197770477566,-0.108
1747683197778165105,-0.108
1747683197785852644,-0.106
1747683197793540183,-0.101
1747683197801227722,-0.096
1747683197808915261,-0.096
1747683197816602800,-0.096
1747683197824290339,-0.096
1747683197831977878,-0.10300000000000001
1747683197839665417,-0.116
1747683197847352956,-0.113
1747683197855040495,-0.10300000000000001
1747683197862728034,-0.091
1747683197870415573,-0.07100000000000001
1747683197878103112,-0.059000000000000004
1747683197885790651,-0.059000000000000004
1747683197893478190,-0.054
1747683197901165729,-0.061
1747683197908853268,-0.084
1747683197916540807,-0.089
1747683197924228346,-0.081
1747683197931915885,-0.081
1747683197939603424,-0.084
1747683197947290963,-0.076
1747683197954978502,-0.074
1747683197962666041,-0.08600000000000001
1747683197970353580,-0.096
1747683197978041119,-0.017
1747683197985728658,0.277
1747683197993416197,0.606
1747683198001103736,0.47200000000000003
1747683198008791275,-0.10300000000000001
1747683198016478814,-0.447
1747683198024166353,-0.338
1747683198031853892,-0.212
1747683198039541431,-0.2
1747683198047228970,-0.131
1747683198054916509,-0.066
1747683198062604048,-0.074
1747683198070291587,-0.076
1747683198077979193,-0.059000000000000004,86,786
1747683198085665200,-0.051000000000000004
1747683198093351207,-0.049
1747683198101037214,-0.042
1747683198108723221,-0.044
1747683198116409228,-0.039
1747683198124095235,-0.027
1747683198131781242,-0.024
1747683198139467249,-0.027
1747683198147153256,-0.022
1747683198154839263,-0.014
1747683198162525270,-0.007
1747683198170211277,-0.002
1747683198177897284,0.002
1747683198185583291,0.007
1747683198193269298,0.019
1747683198200955305,0.027
1747683198208641312,0.027
1747683198216327319,0.032
1747683198224013326,0.042
1747683198231699333,0.044
1747683198239385340,0.042
1747683198247071347,0.042
1747683198254757354,0.037
1747683198262443361,0.027
1747683198270129368,0.017
1747683198277815375,0.007
1747683198285501382,-0.022
1747683198293187389,-0.059000000000000004
1747683198300873396,-0.074
1747683198308559403,-0.089
1747683198316245410,-0.126
1747683198323931417,-0.14300000000000002
1747683198331617424,-0.136
1747683198339303431,-0.133
1747683198346989438,-0.133
1747683198354675445,-0.128
1747683198362361452,-0.123
1747683198370047459,-0.121
1747683198377733466,-0.11800000000000001
1747683198385419473,-0.116
1747683198393105480,-0.113
1747683198400791487,-0.111
1747683198408477494,-0.106
1747683198416163501,-0.10300000000000001
1747683198423849508,-0.106
1747683198431535515,-0.106
1747683198439221522,-0.108
1747683198446907529,-0.106
1747683198454593536,-0.108
1747683198462279543,-0.111
1747683198469965550,-0.111
1747683198477651557,-0.113
1747683198485337564,-0.108
1747683198493023571,-0.101
1747683198500709578,-0.106
1747683198508395585,-0.113
1747683198516081592,-0.108
1747683198523767599,-0.106
1747683198531453606,-0.106
1747683198539139613,-0.101
1747683198546825620,-0.098
1747683198554511627,-0.098
1747683198562197634,-0.096
1747683198569883641,-0.098
1747683198577569648,-0.101
1747683198585255655,-0.106
1747683198592941662,-0.108
1747683198600627669,-0.106
1747683198608313676,-0.094
1747683198615999683,-0.07100000000000001
1747683198623685690,-0.061
1747683198631371697,-0.066
1747683198639057707,-0.066,84,760
1747683198646744410,-0.066,,756
1747683198654431113,-0.084
1747683198662117816,-0.096
1747683198669804519,-0.094
1747683198677491222,-0.091
1747683198685177925,-0.094
1747683198692864628,-0.094
1747683198700551331,-0.089
1747683198708238034,-0.094
1747683198715924737,-0.101
1747683198723611440,-0.034
1747683198731298143,0.244
1747683198738984846,0.5640000000000001
1747683198746671549,0.435
1747683198754358252,-0.106
1747683198762044955,-0.437
1747683198769731658,-0.35100000000000003
1747683198777418361,-0.23500000000000001
1747683198785105064,-0.21
1747683198792791767,-0.131
1747683198800478470,-0.066
1747683198808165173,-0.084
1747683198815851876,-0.08600000000000001
1747683198823538579,-0.059000000000000004
1747683198831225282,-0.059000000000000004
1747683198838911985,-0.066
1747683198846598688,-0.054
1747683198854285391,-0.047
1747683198861972094,-0.044
1747683198869658797,-0.039
1747683198877345500,-0.034
1747683198885032203,-0.032
1747683198892718906,-0.027
1747683198900405609,-0.024
1747683198908092312,-0.019
1747683198915779015,-0.014
1747683198923465718,-0.009000000000000001
1747683198931152421,0.002
1747683198938839124,0.019
1747683198946525827,0.022
1747683198954212530,0.019
1747683198961899233,0.037
1747683198969585936,0.056
1747683198977272639,0.056
1747683198984959342,0.037
1747683198992646045,0.022
1747683199000332748,0.027
1747683199008019451,0.029
1747683199015706154,0.014
1747683199023392857,-0.002
1747683199031079560,-0.022
1747683199038766263,-0.056
1747683199046452966,-0.089
1747683199054139669,-0.106
1747683199061826372,-0.131
1747683199069513075,-0.158
1747683199077199778,-0.153
1747683199084886481,-0.136
1747683199092573184,-0.14300000000000002
1747683199100259887,-0.148
1747683199107946590,-0.136
1747683199115633293,-0.128
1747683199123319996,-0.123
1747683199131006699,-0.111
1747683199138693402,-0.108
1747683199146380105,-0.111
1747683199154066808,-0.108
1747683199161753511,-0.113
1747683199169440214,-0.11800000000000001
1747683199177126917,-0.108
1747683199184813620,-0.101
1747683199192500323,-0.113
1747683199200187090,-0.123
1747683199207873793,-0.113
1747683199215560496,-0.101
1747683199223247199,-0.111
1747683199230933902,-0.121
1747683199238620605,-0.116
1747683199246307308,-0.111
1747683199253994011,-0.121
1747683199261680714,-0.111
1747683199269367417,-0.098
1747683199277054120,-0.116
1747683199284740823,-0.131
1747683199292427526,-0.121
1747683199300114229,-0.113
1747683199307800932,-0.108
1747683199315487635,-0.084
1747683199323174338,-0.066
1747683199330861041,-0.069
1747683199338547744,-0.074
1747683199346234447,-0.081
1747683199353921150,-0.098
1747683199361607853,-0.106
1747683199369294556,-0.094
1747683199376981259,-0.08600000000000001
1747683199384667962,-0.089
1747683199392354665,-0.096
1747683199400041368,-0.101
1747683199407728071,-0.08600000000000001
1747683199415414774,-0.037
1747683199423101477,0.16
1747683199430788180,0.517
1747683199438474883,0.551
1747683199446161586,-0.017
1747683199453848289,-0.529
1747683199461534992,-0.47000000000000003
1747683199469221695,-0.28400000000000003
1747683199476908398,-0.279
1747683199484595101,-0.202
1747683199492281804,-0.066
1747683199499968507,-0.059000000000000004
1747683199507655210,-0.084
1747683199515341913,-0.049
1747683199523028616,-0.039
1747683199530715319,-0.051000000000000004
1747683199538402022,-0.032
1747683199546088725,-0.017
1747683199553775428,-0.029
1747683199561462131,-0.014
1747683199569148834,0.009000000000000001
1747683199576835537,0.0
1747683199584522240,-0.012
1747683199592208943,0.0
1747683199599895646,0.017
1747683199607582349,0.027
1747683199615269052,0.032
1747683199622955755,0.034
1747683199630642458,0.044
1747683199638329161,0.059000000000000004
1747683199646015864,0.069
1747683199653702567,0.074
1747683199661389270,0.08600000000000001
1747683199669075973,0.094
1747683199676762676,0.084
1747683199684449379,0.096
1747683199692136082,0.111
1747683199699822785,0.069
1747683199707509488,0.034
1747683199715196191,0.037
1747683199722882894,0.0
1747683199730569597,-0.059000000000000004
1747683199738256300,-0.081
1747683199745943003,-0.10300000000000001
1747683199753629706,-0.15
1747683199761316469,-0.168,83,745
1747683199769003172,-0.16
1747683199776689875,-0.168
1747683199784376578,-0.168
1747683199792063281,-0.15
1747683199799749984,-0.15
1747683199807436687,-0.153
1747683199815123390,-0.14100000000000001
1747683199822810093,-0.133
1747683199830496796,-0.128
1747683199838183499,-0.121
1747683199845870202,-0.116
1747683199853556905,-0.111
1747683199861243608,-0.108
1747683199868930311,-0.113
1747683199876617014,-0.116
1747683199884303717,-0.123
1747683199891990420,-0.136
1747683199899677123,-0.133
1747683199907363826,-0.121
1747683199915050529,-0.123
1747683199922737232,-0.133
1747683199930423935,-0.128
1747683199938110638,-0.116
1747683199945797341,-0.116
1747683199953484044,-0.131
1747683199961170747,-0.133
1747683199968857450,-0.126
1747683199976544153,-0.133
1747683199984230856,-0.126
1747683199991917559,-0.108
1747683199999604262,-0.089
1747683200007290965,-0.054
1747683200014977668,-0.054
1747683200022664371,-0.10300000000000001
1747683200030351074,-0.123
1747683200038037777,-0.10300000000000001
1747683200045724480,-0.098
1747683200053411183,-0.106
1747683200061097886,-0.101
1747683200068784589,-0.096
1747683200076471292,-0.08600000000000001
1747683200084157995,-0.091
1747683200091844698,-0.07100000000000001
1747683200099531401,0.138
1747683200107218104,0.524
1747683200114904807,0.586
1747683200122591510,0.017
1747683200130278213,-0.539
1747683200137964916,-0.512
1747683200145651619,-0.299
1747683200153338322,-0.269
1747683200161025025,-0.20700000000000002
1747683200168711728,-0.079
1747683200176398431,-0.049
1747683200184085134,-0.069
1747683200191771837,-0.059000000000000004
1747683200199458540,-0.042
1747683200207145243,-0.034
1747683200214831946,-0.024
1747683200222518649,-0.019
1747683200230205352,-0.017
1747683200237892055,-0.022
1747683200245578758,-0.017
1747683200253265461,0.002
1747683200260952164,0.007
1747683200268638867,0.002
1747683200276325570,0.009000000000000001
1747683200284012273,0.019
1747683200291698976,0.022
1747683200299385679,0.039
1747683200307072382,0.074
1747683200314759085,0.081
1747683200322445848,0.064
1747683200330132551,0.07100000000000001
1747683200337819254,0.098
1747683200345505957,0.106
1747683200353192660,0.101
1747683200360879363,0.111
1747683200368566066,0.10300000000000001
1747683200376252769,0.084
1747683200383939472,0.079
1747683200391626175,0.056
1747683200399312878,0.0
1747683200406999581,-0.029
1747683200414686284,-0.051000000000000004
1747683200422372987,-0.108
1747683200430059690,-0.145
1747683200437746393,-0.158
1747683200445433096,-0.158
1747683200453119799,-0.14300000000000002
1747683200460806502,-0.153
1747683200468493205,-0.17
1747683200476179908,-0.138
1747683200483866611,-0.106
1747683200491553314,-0.108
1747683200499240017,-0.101
1747683200506926720,-0.094
1747683200514613423,-0.113
1747683200522300126,-0.113
1747683200529986829,-0.091
1747683200537673532,-0.091
1747683200545360235,-0.10300000000000001
1747683200553046938,-0.098
1747683200560733641,-0.08600000000000001
1747683200568420344,-0.089
1747683200576107047,-0.11800000000000001
1747683200583793750,-0.14300000000000002
1747683200591480453,-0.126
1747683200599167156,-0.094
1747683200606853859,-0.084
1747683200614540562,-0.096
1747683200622227265,-0.111
1747683200629913968,-0.136
1747683200637600671,-0.153
1747683200645287374,-0.126
1747683200652974077,-0.111
1747683200660660780,-0.128
1747683200668347483,-0.106
1747683200676034186,-0.07100000000000001
1747683200683720889,-0.091
1747683200691407592,-0.111
1747683200699094295,-0.098
1747683200706780998,-0.091
1747683200714467701,-0.101
1747683200722154404,-0.094
1747683200729841107,-0.094
1747683200737527810,-0.113
1747683200745214513,-0.113
1747683200752901216,-0.08600000000000001
1747683200760587919,0.056
1747683200768274622,0.423
1747683200775961325,0.655
1747683200783648028,0.244
1747683200791334731,-0.452
1747683200799021434,-0.608
1747683200806708137,-0.333
1747683200814394840,-0.232
1747683200822081543,-0.23
1747683200829768246,-0.113
1747683200837454949,-0.051000000000000004
1747683200845141652,-0.074
1747683200852828355,-0.069
1747683200860515058,-0.044
1747683200868201761,-0.047
1747683200875888464,-0.049
1747683200883575227,-0.034,83,745
1747683200891261930,-0.024,,693
1747683200898948633,-0.027
1747683200906635336,-0.019
1747683200914322039,0.007
1747683200922008742,0.019
1747683200929695445,0.017
1747683200937382148,0.009000000000000001
1747683200945068851,0.002
1747683200952755554,0.007
1747683200960442257,0.022
1747683200968128960,0.039
1747683200975815663,0.056
1747683200983502366,0.066
1747683200991189069,0.079
1747683200998875772,0.091
1747683201006562475,0.089
1747683201014249178,0.076
1747683201021935881,0.066
1747683201029622584,0.066
1747683201037309287,0.066
1747683201044995990,0.064
1747683201052682693,0.044
1747683201060369396,0.002
1747683201068056099,-0.032
1747683201075742802,-0.069
1747683201083429505,-0.108
1747683201091116208,-0.126
1747683201098802911,-0.138
1747683201106489614,-0.145
1747683201114176317,-0.14100000000000001
1747683201121863020,-0.14300000000000002
1747683201129549723,-0.14300000000000002
1747683201137236426,-0.131
1747683201144923129,-0.121
1747683201152609832,-0.11800000000000001
1747683201160296535,-0.116
1747683201167983238,-0.108
1747683201175669941,-0.096
1747683201183356644,-0.098
1747683201191043347,-0.108
1747683201198730050,-0.106
1747683201206416753,-0.10300000000000001
1747683201214103456,-0.113
1747683201221790159,-0.113
1747683201229476862,-0.10300000000000001
1747683201237163565,-0.108
1747683201244850268,-0.113
1747683201252536971,-0.106
1747683201260223674,-0.111
1747683201267910377,-0.123
1747683201275597080,-0.121
1747683201283283783,-0.116
1747683201290970486,-0.121
1747683201298657189,-0.121
1747683201306343892,-0.111
1747683201314030595,-0.101
1747683201321717298,-0.096
1747683201329404001,-0.084
1747683201337090704,-0.081
1747683201344777407,-0.096
1747683201352464110,-0.101
1747683201360150813,-0.089
1747683201367837516,-0.089
1747683201375524219,-0.101
1747683201383210922,-0.106
1747683201390897625,-0.094
1747683201398584328,-0.094
1747683201406271031,-0.111
1747683201413957734,-0.10300000000000001
1747683201421644437,0.069
1747683201429331140,0.452
1747683201437017843,0.648
1747683201444704606,0.222
1747683201452391727,-0.41500000000000004
1747683201460078848,-0.534
1747683201467765969,-0.299
1747683201475453090,-0.225
1747683201483140211,-0.215
1747683201490827332,-0.108
1747683201498514453,-0.064
1747683201506201574,-0.089
1747683201513888695,-0.074
1747683201521575816,-0.056
1747683201529262937,-0.064
1747683201536950058,-0.059000000000000004
1747683201544637179,-0.039
1747683201552324300,-0.034
1747683201560011421,-0.039
1747683201567698542,-0.037
1747683201575385663,-0.027
1747683201583072784,-0.012
1747683201590759905,-0.002
1747683201598447026,-0.007
1747683201606134147,-0.004
1747683201613821268,0.004
1747683201621508389,0.014
1747683201629195510,0.024
1747683201636882631,0.037
1747683201644569752,0.042
1747683201652256873,0.051000000000000004
1747683201659943994,0.064
1747683201667631115,0.059000000000000004
1747683201675318236,0.054
1747683201683005357,0.059000000000000004
1747683201690692478,0.054
1747683201698379599,0.042
1747683201706066720,0.037
1747683201713753841,0.027
1747683201721440962,-0.007
1747683201729128083,-0.049
1747683201736815204,-0.079
1747683201744502325,-0.10300000000000001
1747683201752189446,-0.126
1747683201759876567,-0.138
1747683201767563688,-0.145
1747683201775250809,-0.158
1747683201782937930,-0.15
1747683201790625051,-0.133
1747683201798312172,-0.131
1747683201805999293,-0.126
1747683201813686414,-0.111
1747683201821373535,-0.111
1747683201829060656,-0.121
1747683201836747777,-0.11800000000000001
1747683201844434898,-0.111
1747683201852122019,-0.108
1747683201859809140,-0.106
1747683201867496261,-0.111
1747683201875183382,-0.11800000000000001
1747683201882870503,-0.116
1747683201890557624,-0.11800000000000001
1747683201898244745,-0.121
1747683201905931866,-0.111
1747683201913618987,-0.113
1747683201921306108,-0.126
1747683201928993229,-0.11800000000000001
1747683201936680350,-0.108
1747683201944367471,-0.11800000000000001
1747683201952054592,-0.126
1747683201959741713,-0.11800000000000001
1747683201967428834,-0.111
1747683201975115955,-0.11800000000000001
1747683201982803076,-0.131
1747683201990490197,-0.133
1747683201998177318,-0.123
1747683202005864507,-0.10300000000000001,83,677
1747683202013551210,-0.081
1747683202021237913,-0.084
1747683202028924616,-0.094
1747683202036611319,-0.081
1747683202044298022,-0.084
1747683202051984725,-0.101
1747683202059671428,-0.101
1747683202067358131,-0.091
1747683202075044834,-0.101
1747683202082731537,-0.111
1747683202090418240,-0.108
1747683202098104943,-0.098
1747683202105791646,-0.106
1747683202113478349,-0.113
1747683202121165052,-0.017
1747683202128851755,0.304
1747683202136538458,0.611
1747683202144225161,0.418
1747683202151911864,-0.17500000000000002
1747683202159598567,-0.484
1747683202167285270,-0.35100000000000003
1747683202174971973,-0.22
1747683202182658676,-0.195
1747683202190345379,-0.11800000000000001
1747683202198032082,-0.07100000000000001
1747683202205718785,-0.101
1747683202213405488,-0.094
1747683202221092191,-0.056
1747683202228778894,-0.054
1747683202236465597,-0.061
1747683202244152300,-0.047
1747683202251839003,-0.037
1747683202259525706,-0.039
1747683202267212409,-0.037
1747683202274899112,-0.034
1747683202282585815,-0.034
1747683202290272518,-0.029
1747683202297959221,-0.012
1747683202305645924,-0.004
1747683202313332627,-0.007
1747683202321019330,0.0
1747683202328706033,0.014
1747683202336392736,0.024
1747683202344079439,0.029
1747683202351766142,0.032
1747683202359452845,0.039
1747683202367139548,0.047
1747683202374826251,0.049
1747683202382512954,0.051000000000000004
1747683202390199657,0.054
1747683202397886360,0.049
1747683202405573063,0.042
1747683202413259766,0.027
1747683202420946469,0.002
1747683202428633172,-0.032
1747683202436319875,-0.056
1747683202444006578,-0.079
1747683202451693281,-0.098
1747683202459379984,-0.111
1747683202467066687,-0.121
1747683202474753390,-0.136
1747683202482440093,-0.136
1747683202490126796,-0.126
1747683202497813499,-0.126
1747683202505500202,-0.128
1747683202513186905,-0.121
1747683202520873608,-0.116
1747683202528560311,-0.116
1747683202536247014,-0.113
1747683202543933717,-0.108
1747683202551620420,-0.108
1747683202559307123,-0.108
1747683202566993886,-0.10300000000000001
1747683202574680589,-0.101
1747683202582367292,-0.108
1747683202590053995,-0.111
1747683202597740698,-0.10300000000000001
1747683202605427401,-0.106
1747683202613114104,-0.113
1747683202620800807,-0.106
1747683202628487510,-0.101
1747683202636174213,-0.106
1747683202643860916,-0.111
1747683202651547619,-0.108
1747683202659234322,-0.10300000000000001
1747683202666921025,-0.098
1747683202674607728,-0.101
1747683202682294431,-0.108
1747683202689981134,-0.108
1747683202697667837,-0.098
1747683202705354540,-0.098
1747683202713041243,-0.101
1747683202720727946,-0.10300000000000001
1747683202728414649,-0.108
1747683202736101352,-0.106
1747683202743788055,-0.091
1747683202751474758,-0.076
1747683202759161461,-0.07100000000000001
1747683202766848164,-0.066
1747683202774534867,-0.061
1747683202782221570,-0.066
1747683202789908273,-0.084
1747683202797594976,-0.08600000000000001
1747683202805281679,-0.084
1747683202812968382,-0.084
1747683202820655085,-0.081
1747683202828341788,-0.081
1747683202836028491,-0.081
1747683202843715194,-0.074
1747683202851401897,-0.08600000000000001
1747683202859088600,-0.098
1747683202866775303,0.044
1747683202874462006,0.41000000000000003
1747683202882148709,0.638
1747683202889835412,0.319
1747683202897522115,-0.252
1747683202905208818,-0.445
1747683202912895521,-0.274
1747683202920582224,-0.183
1747683202928268927,-0.178
1747683202935955630,-0.108
1747683202943642333,-0.069
1747683202951329036,-0.08600000000000001
1747683202959015739,-0.076
1747683202966702442,-0.054
1747683202974389145,-0.051000000000000004
1747683202982075848,-0.049
1747683202989762551,-0.042
1747683202997449254,-0.042
1747683203005135957,-0.047
1747683203012822660,-0.039
1747683203020509363,-0.024
1747683203028196066,-0.019
1747683203035882769,-0.027
1747683203043569472,-0.024
1747683203051256175,-0.014
1747683203058942878,-0.009000000000000001
1747683203066629581,-0.004
1747683203074316284,0.004
1747683203082002987,0.017
1747683203089689690,0.022
1747683203097376393,0.032
1747683203105063096,0.042
1747683203112749799,0.039
1747683203120436502,0.034
1747683203128123265,0.034,84,664
1747683203135810177,0.032,,661
1747683203143497089,0.029
1747683203151184001,0.024
1747683203158870913,0.009000000000000001
1747683203166557825,-0.007
1747683203174244737,-0.027
1747683203181931649,-0.064
1747683203189618561,-0.096
1747683203197305473,-0.108
1747683203204992385,-0.123
1747683203212679297,-0.14100000000000001
1747683203220366209,-0.145
1747683203228053121,-0.14300000000000002
1747683203235740033,-0.14300000000000002
1747683203243426945,-0.138
1747683203251113857,-0.128
1747683203258800769,-0.123
1747683203266487681,-0.128
1747683203274174593,-0.131
1747683203281861505,-0.121
1747683203289548417,-0.116
1747683203297235329,-0.121
1747683203304922241,-0.123
1747683203312609153,-0.116
1747683203320296065,-0.113
1747683203327982977,-0.11800000000000001
1747683203335669889,-0.126
1747683203343356801,-0.126
1747683203351043713,-0.123
1747683203358730625,-0.128
1747683203366417537,-0.131
1747683203374104449,-0.121
1747683203381791361,-0.116
1747683203389478273,-0.11800000000000001
1747683203397165185,-0.116
1747683203404852097,-0.116
1747683203412539009,-0.121
1747683203420225921,-0.123
1747683203427912833,-0.121
1747683203435599745,-0.121
1747683203443286657,-0.11800000000000001
1747683203450973569,-0.116
1747683203458660481,-0.121
1747683203466347393,-0.11800000000000001
1747683203474034305,-0.108
1747683203481721217,-0.111
1747683203489408129,-0.121
1747683203497095041,-0.128
1747683203504781953,-0.128
1747683203512468865,-0.11800000000000001
1747683203520155777,-0.098
1747683203527842689,-0.08600000000000001
1747683203535529601,-0.084
1747683203543216513,-0.079
1747683203550903425,-0.084
1747683203558590337,-0.098
1747683203566277249,-0.106
1747683203573964161,-0.106
1747683203581651073,-0.106
1747683203589337985,-0.10300000000000001
1747683203597024897,-0.101
1747683203604711809,-0.098
1747683203612398721,-0.10300000000000001
1747683203620085633,-0.113
1747683203627772545,-0.101
1747683203635459457,0.059000000000000004
1747683203643146369,0.41500000000000004
1747683203650833281,0.586
1747683203658520193,0.2
1747683203666207105,-0.34800000000000003
1747683203673894017,-0.467
1747683203681580929,-0.28600000000000003
1747683203689267905,-0.22,85,702
1747683203696954678,-0.197
1747683203704641451,-0.108
1747683203712328224,-0.074
1747683203720014997,-0.101
1747683203727701770,-0.098
1747683203735388543,-0.074
1747683203743075316,-0.07100000000000001
1747683203750762089,-0.074
1747683203758448862,-0.061
1747683203766135635,-0.047
1747683203773822408,-0.049
1747683203781509181,-0.056
1747683203789195954,-0.051000000000000004
1747683203796882727,-0.042
1747683203804569500,-0.039
1747683203812256273,-0.034
1747683203819943046,-0.024
1747683203827629819,-0.017
1747683203835316592,-0.014
1747683203843003365,-0.009000000000000001
1747683203850690138,0.0
1747683203858376911,0.009000000000000001
1747683203866063684,0.022
1747683203873750457,0.032
1747683203881437230,0.037
1747683203889124003,0.037
1747683203896810776,0.032
1747683203904497549,0.029
1747683203912184322,0.024
1747683203919871095,0.017
1747683203927557868,0.004
1747683203935244641,-0.022
1747683203942931414,-0.051000000000000004
1747683203950618187,-0.069
1747683203958304960,-0.094
1747683203965991733,-0.133
1747683203973678506,-0.158
1747683203981365279,-0.163
1747683203989052052,-0.165
1747683203996738825,-0.16
1747683204004425598,-0.15
1747683204012112371,-0.145
1747683204019799144,-0.14300000000000002
1747683204027485917,-0.14100000000000001
1747683204035172690,-0.14300000000000002
1747683204042859463,-0.14100000000000001
1747683204050546236,-0.138
1747683204058233009,-0.138
1747683204065919782,-0.131
1747683204073606555,-0.11800000000000001
1747683204081293328,-0.11800000000000001
1747683204088980101,-0.123
1747683204096666874,-0.128
1747683204104353647,-0.128
1747683204112040420,-0.126
1747683204119727193,-0.128
1747683204127413966,-0.136
1747683204135100739,-0.133
1747683204142787512,-0.133
1747683204150474285,-0.136
1747683204158161058,-0.131
1747683204165847831,-0.133
1747683204173534604,-0.131
1747683204181221377,-0.116
1747683204188908150,-0.121
1747683204196594923,-0.133
1747683204204281696,-0.128
1747683204211968469,-0.123
1747683204219655242,-0.123
1747683204227342015,-0.126
1747683204235028788,-0.126
1747683204242715561,-0.126
1747683204250402371,-0.126
1747683204258088796,-0.11800000000000001
1747683204265775221,-0.096
1747683204273461646,-0.089
1747683204281148071,-0.08600000000000001
1747683204288834496,-0.079
1747683204296520921,-0.084
1747683204304207346,-0.098
1747683204311893771,-0.108
1747683204319580196,-0.111
1747683204327266621,-0.106
1747683204334953046,-0.094
1747683204342639471,-0.096
1747683204350325896,-0.106
1747683204358012321,-0.106
1747683204365698746,-0.089
1747683204373385171,0.044
1747683204381071596,0.388
1747683204388758021,0.591
1747683204396444446,0.197
1747683204404130871,-0.403
1747683204411817296,-0.526
1747683204419503721,-0.319
1747683204427190146,-0.247
1747683204434876571,-0.225
1747683204442562996,-0.111
1747683204450249421,-0.066
1747683204457935846,-0.08600000000000001
1747683204465622271,-0.069
1747683204473308696,-0.049
1747683204480995121,-0.056
1747683204488681546,-0.056
1747683204496367971,-0.042
1747683204504054396,-0.037
1747683204511740821,-0.034
1747683204519427246,-0.034
1747683204527113671,-0.032
1747683204534800096,-0.022
1747683204542486521,-0.012
1747683204550172946,-0.009000000000000001
1747683204557859371,-0.004
1747683204565545796,0.002
1747683204573232221,0.012
1747683204580918646,0.024
1747683204588605071,0.032
1747683204596291496,0.039
1747683204603977921,0.061
1747683204611664346,0.079
1747683204619350771,0.066
1747683204627037196,0.054
1747683204634723621,0.074
1747683204642410046,0.091
1747683204650096471,0.069
1747683204657782896,0.037
1747683204665469321,0.017
1747683204673155746,0.002
1747683204680842171,-0.027
1747683204688528596,-0.07100000000000001
1747683204696215021,-0.10300000000000001
1747683204703901446,-0.121
1747683204711587871,-0.14300000000000002
1747683204719274296,-0.16
1747683204726960721,-0.165
1747683204734647146,-0.165
1747683204742333571,-0.153
1747683204750019996,-0.14100000000000001
1747683204757706421,-0.138
1747683204765392846,-0.138
1747683204773079271,-0.126
1747683204780765696,-0.116
1747683204788452121,-0.111
1747683204796138546,-0.111
1747683204803824971,-0.111
1747683204811511402,-0.108,85,744
1747683204819198523,-0.106
1747683204826885644,-0.106
1747683204834572765,-0.116
1747683204842259886,-0.121
1747683204849947007,-0.108
1747683204857634128,-0.108
1747683204865321249,-0.121
1747683204873008370,-0.11800000000000001
1747683204880695491,-0.106
1747683204888382612,-0.108
1747683204896069733,-0.11800000000000001
1747683204903756854,-0.121
1747683204911443975,-0.116
1747683204919131096,-0.116
1747683204926818217,-0.11800000000000001
1747683204934505338,-0.121
1747683204942192459,-0.121
1747683204949879580,-0.116
1747683204957566701,-0.113
1747683204965253822,-0.11800000000000001
1747683204972940943,-0.11800000000000001
1747683204980628064,-0.113
1747683204988315185,-0.094
1747683204996002306,-0.079
1747683205003689427,-0.076
1747683205011376548,-0.074
1747683205019063669,-0.07100000000000001
1747683205026750790,-0.076
1747683205034437911,-0.089
1747683205042125032,-0.091
1747683205049812153,-0.08600000000000001
1747683205057499274,-0.091
1747683205065186395,-0.089
1747683205072873516,-0.079
1747683205080560637,-0.084
1747683205088247758,-0.098
1747683205095934879,-0.089
1747683205103622000,0.054
1747683205111309121,0.41000000000000003
1747683205118996242,0.633
1747683205126683363,0.269
1747683205134370484,-0.356
1747683205142057605,-0.517
1747683205149744726,-0.304
1747683205157431847,-0.225
1747683205165118968,-0.212
1747683205172806089,-0.101
1747683205180493210,-0.059000000000000004
1747683205188180331,-0.089
1747683205195867452,-0.074
1747683205203554573,-0.047
1747683205211241694,-0.047
1747683205218928815,-0.037
1747683205226615936,-0.022
1747683205234303057,-0.029
1747683205241990178,-0.037
1747683205249677299,-0.032
1747683205257364420,-0.022
1747683205265051541,-0.017
1747683205272738662,-0.009000000000000001
1747683205280425783,0.002
1747683205288112904,0.007
1747683205295800025,0.009000000000000001
1747683205303487146,0.012
1747683205311174267,0.022
1747683205318861388,0.037
1747683205326548509,0.047
1747683205334235630,0.054
1747683205341922751,0.064
1747683205349609872,0.064
1747683205357296993,0.064
1747683205364984114,0.069
1747683205372671303,0.069
1747683205380358355,0.061
1747683205388045407,0.051000000000000004
1747683205395732459,0.037
1747683205403419511,0.014
1747683205411106563,-0.009000000000000001
1747683205418793615,-0.054
1747683205426480667,-0.089
1747683205434167719,-0.101
1747683205441854771,-0.113
1747683205449541823,-0.136
1747683205457228875,-0.14300000000000002
1747683205464915927,-0.138
1747683205472602979,-0.131
1747683205480290031,-0.126
1747683205487977083,-0.128
1747683205495664135,-0.128
1747683205503351187,-0.123
1747683205511038239,-0.11800000000000001
1747683205518725291,-0.116
1747683205526412343,-0.111
1747683205534099395,-0.106
1747683205541786447,-0.101
1747683205549473499,-0.098
1747683205557160551,-0.094
1747683205564847603,-0.089
1747683205572534655,-0.091
1747683205580221707,-0.106
1747683205587908759,-0.108
1747683205595595811,-0.098
1747683205603282863,-0.098
1747683205610969915,-0.108
1747683205618656967,-0.113
1747683205626344019,-0.10300000000000001
1747683205634031071,-0.098
1747683205641718123,-0.101
1747683205649405175,-0.096
1747683205657092227,-0.096
1747683205664779279,-0.101
1747683205672466331,-0.096
1747683205680153383,-0.08600000000000001
1747683205687840435,-0.094
1747683205695527487,-0.098
1747683205703214539,-0.094
1747683205710901591,-0.101
1747683205718588643,-0.106
1747683205726275695,-0.094
1747683205733962747,-0.08600000000000001
1747683205741649799,-0.076
1747683205749336851,-0.059000000000000004
1747683205757023903,-0.051000000000000004
1747683205764710955,-0.051000000000000004
1747683205772398007,-0.056
1747683205780085059,-0.066
1747683205787772111,-0.069
1747683205795459163,-0.066
1747683205803146215,-0.07100000000000001
1747683205810833267,-0.081
1747683205818520319,-0.076
1747683205826207371,-0.066
1747683205833894423,-0.07100000000000001
1747683205841581475,-0.08600000000000001
1747683205849268527,-0.069
1747683205856955579,0.108
1747683205864642631,0.47200000000000003
1747683205872329683,0.638
1747683205880016735,0.254
1747683205887703787,-0.304
1747683205895390839,-0.432
1747683205903077891,-0.247
1747683205910764943,-0.17500000000000002
1747683205918451995,-0.158
1747683205926139047,-0.081
1747683205933826114,-0.061,84,768
1747683205941512469,-0.081,,738
1747683205949198824,-0.066
1747683205956885179,-0.047
1747683205964571534,-0.044
1747683205972257889,-0.039
1747683205979944244,-0.032
1747683205987630599,-0.029
1747683205995316954,-0.027
1747683206003003309,-0.022
1747683206010689664,-0.019
1747683206018376019,-0.019
1747683206026062374,-0.007
1747683206033748729,-0.002
1747683206041435084,-0.009000000000000001
1747683206049121439,-0.002
1747683206056807794,0.012
1747683206064494149,0.019
1747683206072180504,0.027
1747683206079866859,0.034
1747683206087553214,0.037
1747683206095239569,0.044
1747683206102925924,0.059000000000000004
1747683206110612279,0.064
1747683206118298634,0.054
1747683206125984989,0.047
1747683206133671344,0.047
1747683206141357699,0.039
1747683206149044054,0.019
1747683206156730409,0.0
1747683206164416764,-0.022
1747683206172103119,-0.054
1747683206179789474,-0.081
1747683206187475829,-0.098
1747683206195162184,-0.113
1747683206202848539,-0.126
1747683206210534894,-0.128
1747683206218221249,-0.131
1747683206225907604,-0.131
1747683206233593959,-0.121
1747683206241280314,-0.121
1747683206248966669,-0.128
1747683206256653024,-0.11800000000000001
1747683206264339379,-0.111
1747683206272025734,-0.116
1747683206279712089,-0.111
1747683206287398444,-0.106
1747683206295084799,-0.108
1747683206302771154,-0.101
1747683206310457509,-0.094
1747683206318143864,-0.101
1747683206325830219,-0.106
1747683206333516574,-0.101
1747683206341202929,-0.108
1747683206348889284,-0.11800000000000001
1747683206356575639,-0.111
1747683206364261994,-0.106
1747683206371948349,-0.108
1747683206379634704,-0.111
1747683206387321059,-0.111
1747683206395007414,-0.108
1747683206402693769,-0.10300000000000001
1747683206410380124,-0.101
1747683206418066479,-0.106
1747683206425752834,-0.106
1747683206433439189,-0.101
1747683206441125544,-0.098
1747683206448811899,-0.098
1747683206456498254,-0.094
1747683206464184609,-0.094
1747683206471870964,-0.096
1747683206479557319,-0.096
1747683206487243674,-0.094
1747683206494930061,-0.10300000000000001
1747683206502616764,-0.116
1747683206510303467,-0.111
1747683206517990170,-0.098
1747683206525676873,-0.084
1747683206533363576,-0.07100000000000001
1747683206541050279,-0.07100000000000001
1747683206548736982,-0.074
1747683206556423685,-0.066
1747683206564110388,-0.074
1747683206571797091,-0.089
1747683206579483794,-0.091
1747683206587170497,-0.094
1747683206594857200,-0.098
1747683206602543903,-0.096
1747683206610230606,-0.094
1747683206617917309,-0.094
1747683206625604012,-0.098
1747683206633290715,-0.106
1747683206640977418,-0.027
1747683206648664121,0.262
1747683206656350824,0.578
1747683206664037527,0.435
1747683206671724230,-0.128
1747683206679410933,-0.465
1747683206687097636,-0.358
1747683206694784339,-0.227
1747683206702471042,-0.212
1747683206710157745,-0.145
1747683206717844448,-0.084
1747683206725531151,-0.096
1747683206733217854,-0.096
1747683206740904557,-0.079
1747683206748591260,-0.076
1747683206756277963,-0.074
1747683206763964666,-0.059000000000000004
1747683206771651369,-0.051000000000000004
1747683206779338072,-0.051000000000000004
1747683206787024775,-0.044
1747683206794711478,-0.044
1747683206802398181,-0.047
1747683206810084884,-0.039
1747683206817771587,-0.037
1747683206825458290,-0.037
1747683206833144993,-0.029
1747683206840831696,-0.017
1747683206848518399,-0.007
1747683206856205102,0.002
1747683206863891805,0.019
1747683206871578508,0.029
1747683206879265211,0.029
1747683206886951914,0.027
1747683206894638617,0.032
1747683206902325320,0.029
1747683206910012023,0.032
1747683206917698726,0.037
1747683206925385429,0.032
1747683206933072132,0.012
1747683206940758835,-0.007
1747683206948445538,-0.029
1747683206956132241,-0.064
1747683206963818944,-0.098
1747683206971505647,-0.123
1747683206979192350,-0.138
1747683206986879053,-0.14300000000000002
1747683206994565756,-0.15
1747683207002252459,-0.16
1747683207009939162,-0.165
1747683207017625865,-0.153
1747683207025312568,-0.14300000000000002
1747683207032999271,-0.145
1747683207040685974,-0.15
1747683207048372677,-0.14300000000000002
1747683207056059440,-0.136,84,730
1747683207063746143,-0.133
1747683207071432846,-0.131
1747683207079119549,-0.126
1747683207086806252,-0.126
1747683207094492955,-0.131
1747683207102179658,-0.128
1747683207109866361,-0.128
1747683207117553064,-0.136
1747683207125239767,-0.131
1747683207132926470,-0.128
1747683207140613173,-0.133
1747683207148299876,-0.136
1747683207155986579,-0.131
1747683207163673282,-0.11800000000000001
1747683207171359985,-0.121
1747683207179046688,-0.14100000000000001
1747683207186733391,-0.145
1747683207194420094,-0.128
1747683207202106797,-0.123
1747683207209793500,-0.131
1747683207217480203,-0.123
1747683207225166906,-0.113
1747683207232853609,-0.116
1747683207240540312,-0.123
1747683207248227015,-0.123
1747683207255913718,-0.116
1747683207263600421,-0.113
1747683207271287124,-0.113
1747683207278973827,-0.116
1747683207286660530,-0.116
1747683207294347233,-0.111
1747683207302033936,-0.10300000000000001
1747683207309720639,-0.098
1747683207317407342,-0.084
1747683207325094045,-0.07100000000000001
1747683207332780748,-0.076
1747683207340467451,-0.091
1747683207348154154,-0.096
1747683207355840857,-0.089
1747683207363527560,-0.096
1747683207371214263,-0.113
1747683207378900966,-0.106
1747683207386587669,-0.089
1747683207394274372,-0.096
1747683207401961075,-0.113
1747683207409647778,-0.10300000000000001
1747683207417334481,0.037
1747683207425021184,0.376
1747683207432707887,0.5760000000000001
1747683207440394590,0.21
1747683207448081293,-0.371
1747683207455767996,-0.502
1747683207463454699,-0.311
1747683207471141402,-0.252
1747683207478828105,-0.23900000000000002
1747683207486514808,-0.11800000000000001
1747683207494201511,-0.066
1747683207501888214,-0.098
1747683207509574917,-0.084
1747683207517261620,-0.054
1747683207524948323,-0.056
1747683207532635026,-0.044
1747683207540321729,-0.029
1747683207548008432,-0.037
1747683207555695135,-0.042
1747683207563381838,-0.032
1747683207571068541,-0.027
1747683207578755244,-0.027
1747683207586441947,-0.022
1747683207594128650,-0.019
1747683207601815353,-0.017
1747683207609502056,-0.002
1747683207617188819,0.007
1747683207624875522,0.014
1747683207632562225,0.027
1747683207640248928,0.039
1747683207647935631,0.051000000000000004
1747683207655622334,0.056
1747683207663309037,0.061
1747683207670995740,0.066
1747683207678682443,0.064
1747683207686369146,0.069
1747683207694055849,0.066
1747683207701742552,0.032
1747683207709429255,0.014
1747683207717115958,0.009000000000000001
1747683207724802661,-0.017
1747683207732489364,-0.059000000000000004
1747683207740176067,-0.098
1747683207747862770,-0.126
1747683207755549473,-0.14300000000000002
1747683207763236176,-0.153
1747683207770922879,-0.155
1747683207778609582,-0.148
1747683207786296285,-0.14300000000000002
1747683207793982988,-0.145
1747683207801669691,-0.14100000000000001
1747683207809356394,-0.128
1747683207817043097,-0.126
1747683207824729800,-0.126
1747683207832416503,-0.11800000000000001
1747683207840103206,-0.106
1747683207847789909,-0.098
1747683207855476612,-0.094
1747683207863163315,-0.08600000000000001
1747683207870850018,-0.089
1747683207878536721,-0.106
1747683207886223424,-0.10300000000000001
1747683207893910127,-0.091
1747683207901596830,-0.096
1747683207909283533,-0.113
1747683207916970236,-0.11800000000000001
1747683207924656939,-0.116
1747683207932343642,-0.113
1747683207940030345,-0.111
1747683207947717048,-0.106
1747683207955403751,-0.106
1747683207963090454,-0.108
1747683207970777157,-0.111
1747683207978463860,-0.106
1747683207986150563,-0.098
1747683207993837266,-0.101
1747683208001523969,-0.101
1747683208009210672,-0.098
1747683208016897375,-0.101
1747683208024584078,-0.10300000000000001
1747683208032270781,-0.101
1747683208039957484,-0.101
1747683208047644187,-0.106
1747683208055330890,-0.101
1747683208063017593,-0.08600000000000001
1747683208070704296,-0.07100000000000001
1747683208078390999,-0.066
1747683208086077702,-0.064
1747683208093764405,-0.059000000000000004
1747683208101451108,-0.061
1747683208109137811,-0.076
1747683208116824514,-0.08600000000000001
1747683208124511217,-0.08600000000000001
1747683208132197920,-0.079
1747683208139884623,-0.07100000000000001
1747683208147571326,-0.076
1747683208155258029,-0.081
1747683208162944732,-0.084
1747683208170631435,-0.089
1747683208178318198,-0.002,83,753
1747683208186004901,0.311
1747683208193691604,0.62
1747683208201378307,0.405
1747683208209065010,-0.217
1747683208216751713,-0.512
1747683208224438416,-0.34600000000000003
1747683208232125119,-0.222
1747683208239811822,-0.22
1747683208247498525,-0.133
1747683208255185228,-0.059000000000000004
1747683208262871931,-0.076
1747683208270558634,-0.069
1747683208278245337,-0.037
1747683208285932040,-0.042
1747683208293618743,-0.049
1747683208301305446,-0.034
1747683208308992149,-0.029
1747683208316678852,-0.034
1747683208324365555,-0.022
1747683208332052258,-0.009000000000000001
1747683208339738961,-0.017
1747683208347425664,-0.017
1747683208355112367,-0.009000000000000001
1747683208362799070,-0.007
1747683208370485773,-0.002
1747683208378172476,0.004
1747683208385859179,0.014
1747683208393545882,0.022
1747683208401232585,0.029
1747683208408919288,0.044
1747683208416605991,0.054
1747683208424292694,0.054
1747683208431979397,0.059000000000000004
1747683208439666100,0.059000000000000004
1747683208447352803,0.054
1747683208455039506,0.051000000000000004
1747683208462726209,0.044
1747683208470412912,0.034
1747683208478099615,0.022
1747683208485786318,-0.004
1747683208493473021,-0.042
1747683208501159724,-0.076
1747683208508846427,-0.101
1747683208516533130,-0.116
1747683208524219833,-0.128
1747683208531906536,-0.14100000000000001
1747683208539593239,-0.138
1747683208547279942,-0.133
1747683208554966645,-0.131
1747683208562653348,-0.11800000000000001
1747683208570340051,-0.108
1747683208578026754,-0.126
1747683208585713457,-0.131
1747683208593400160,-0.106
1747683208601086863,-0.101
1747683208608773566,-0.106
1747683208616460269,-0.098
1747683208624146972,-0.101
1747683208631833675,-0.106
1747683208639520378,-0.096
1747683208647207081,-0.096
1747683208654893784,-0.106
1747683208662580487,-0.108
1747683208670267190,-0.101
1747683208677953893,-0.101
1747683208685640596,-0.10300000000000001
1747683208693327299,-0.10300000000000001
1747683208701014002,-0.10300000000000001
1747683208708700705,-0.106
1747683208716387408,-0.10300000000000001
1747683208724074111,-0.101
1747683208731760814,-0.10300000000000001
1747683208739447577,-0.10300000000000001,83,787
1747683208747134280,-0.106
1747683208754820983,-0.106
1747683208762507686,-0.108
1747683208770194389,-0.10300000000000001
1747683208777881092,-0.096
1747683208785567795,-0.091
1747683208793254498,-0.096
1747683208800941201,-0.101
1747683208808627904,-0.10300000000000001
1747683208816314607,-0.101
1747683208824001310,-0.106
1747683208831688013,-0.101
1747683208839374716,-0.084
1747683208847061419,-0.074
1747683208854748122,-0.079
1747683208862434825,-0.07100000000000001
1747683208870121528,-0.061
1747683208877808231,-0.07100000000000001
1747683208885494934,-0.08600000000000001
1747683208893181637,-0.084
1747683208900868340,-0.084
1747683208908555043,-0.091
1747683208916241746,-0.089
1747683208923928449,-0.084
1747683208931615152,-0.084
1747683208939301855,-0.096
1747683208946988558,-0.10300000000000001
1747683208954675261,-0.042
1747683208962361964,0.212
1747683208970048667,0.559
1747683208977735370,0.536
1747683208985422073,0.014
1747683208993108776,-0.42
1747683209000795479,-0.39
1747683209008482182,-0.23500000000000001
1747683209016168885,-0.2
1747683209023855588,-0.14100000000000001
1747683209031542291,-0.074
1747683209039228994,-0.089
1747683209046915697,-0.10300000000000001
1747683209054602400,-0.074
1747683209062289103,-0.059000000000000004
1747683209069975806,-0.064
1747683209077662509,-0.066
1747683209085349212,-0.056
1747683209093035915,-0.049
1747683209100722618,-0.049
1747683209108409321,-0.044
1747683209116096024,-0.044
1747683209123782727,-0.039
1747683209131469430,-0.032
1747683209139156133,-0.024
1747683209146842836,-0.017
1747683209154529539,-0.009000000000000001
1747683209162216242,-0.012
1747683209169902945,-0.004
1747683209177589648,0.007
1747683209185276351,0.009000000000000001
1747683209192963054,0.022
1747683209200649757,0.037
1747683209208336460,0.037
1747683209216023163,0.032
1747683209223709866,0.032
1747683209231396569,0.029
1747683209239083272,0.027
1747683209246769975,0.019
1747683209254456678,0.002
1747683209262143381,-0.019
1747683209269830084,-0.051000000000000004
1747683209277516787,-0.08600000000000001
1747683209285203490,-0.111
1747683209292890193,-0.121
1747683209300576960,-0.133
1747683209308263663,-0.14100000000000001
1747683209315950366,-0.14300000000000002
1747683209323637069,-0.148
1747683209331323772,-0.15
1747683209339010475,-0.14300000000000002
1747683209346697178,-0.136
1747683209354383881,-0.133
1747683209362070584,-0.131
1747683209369757287,-0.126
1747683209377443990,-0.128
1747683209385130693,-0.131
1747683209392817396,-0.131
1747683209400504099,-0.126
1747683209408190802,-0.121
1747683209415877505,-0.126
1747683209423564208,-0.128
1747683209431250911,-0.121
1747683209438937614,-0.116
1747683209446624317,-0.11800000000000001
1747683209454311020,-0.123
1747683209461997723,-0.128
1747683209469684426,-0.128
1747683209477371129,-0.126
1747683209485057832,-0.131
1747683209492744535,-0.133
1747683209500431238,-0.121
1747683209508117941,-0.11800000000000001
1747683209515804644,-0.123
1747683209523491347,-0.123
1747683209531178050,-0.11800000000000001
1747683209538864753,-0.116
1747683209546551456,-0.11800000000000001
1747683209554238159,-0.123
1747683209561924862,-0.126
1747683209569611565,-0.11800000000000001
1747683209577298268,-0.113
1747683209584984971,-0.11800000000000001
1747683209592671674,-0.126
1747683209600358377,-0.126
1747683209608045080,-0.131
1747683209615731783,-0.131
1747683209623418486,-0.121
1747683209631105189,-0.106
1747683209638791892,-0.091
1747683209646478595,-0.091
1747683209654165298,-0.091
1747683209661852001,-0.084
1747683209669538704,-0.096
1747683209677225407,-0.116
1747683209684912110,-0.11800000000000001
1747683209692598813,-0.108
1747683209700285516,-0.111
1747683209707972219,-0.116
1747683209715658922,-0.113
1747683209723345625,-0.113
1747683209731032328,-0.121
1747683209738719031,-0.121
1747683209746405734,-0.039
1747683209754092437,0.259
1747683209761779140,0.5710000000000001
1747683209769465843,0.403
1747683209777152546,-0.178
1747683209784839249,-0.497
1747683209792525952,-0.376
1747683209800212655,-0.249
1747683209807899358,-0.23
1747683209815586061,-0.16
1747683209823272764,-0.111
1747683209830959467,-0.126
1747683209838646170,-0.11800000000000001
1747683209846332873,-0.098
1747683209854019576,-0.094
1747683209861706339,-0.089,82,773
1747683209869393042,-0.081,,763
1747683209877079745,-0.074
1747683209884766448,-0.066
1747683209892453151,-0.07100000000000001
1747683209900139854,-0.074
1747683209907826557,-0.059000000000000004
1747683209915513260,-0.054
1747683209923199963,-0.066
1747683209930886666,-0.056
1747683209938573369,-0.034
1747683209946260072,-0.032
1747683209953946775,-0.029
1747683209961633478,-0.024
1747683209969320181,-0.022
1747683209977006884,-0.007
1747683209984693587,0.014
1747683209992380290,0.014
1747683210000066993,0.007
1747683210007753696,0.007
1747683210015440399,0.012
1747683210023127102,0.012
1747683210030813805,0.012
1747683210038500508,-0.004
1747683210046187211,-0.039
1747683210053873914,-0.059000000000000004
1747683210061560617,-0.074
1747683210069247320,-0.108
1747683210076934023,-0.14100000000000001
1747683210084620726,-0.155
1747683210092307429,-0.168
1747683210099994132,-0.18
1747683210107680835,-0.178
1747683210115367538,-0.168
1747683210123054241,-0.163
1747683210130740944,-0.163
1747683210138427647,-0.163
1747683210146114350,-0.16
1747683210153801053,-0.153
1747683210161487756,-0.14300000000000002
1747683210169174459,-0.136
1747683210176861162,-0.14300000000000002
1747683210184547865,-0.148
1747683210192234568,-0.14300000000000002
1747683210199921271,-0.14300000000000002
1747683210207607974,-0.148
1747683210215294677,-0.14300000000000002
1747683210222981380,-0.133
1747683210230668083,-0.138
1747683210238354786,-0.14100000000000001
1747683210246041489,-0.133
1747683210253728192,-0.138
1747683210261414895,-0.14100000000000001
1747683210269101598,-0.133
1747683210276788301,-0.136
1747683210284475004,-0.14100000000000001
1747683210292161707,-0.138
1747683210299848410,-0.138
1747683210307535113,-0.138
1747683210315221816,-0.126
1747683210322908519,-0.126
1747683210330595222,-0.138
1747683210338281925,-0.133
1747683210345968628,-0.123
1747683210353655331,-0.128
1747683210361342034,-0.131
1747683210369028737,-0.133
1747683210376715440,-0.138
1747683210384402143,-0.136
1747683210392088846,-0.116
1747683210399775549,-0.101
1747683210407462252,-0.098
1747683210415148955,-0.096
1747683210422835718,-0.089
1747683210430522421,-0.096
1747683210438209124,-0.108
1747683210445895827,-0.11800000000000001
1747683210453582530,-0.11800000000000001
1747683210461269233,-0.111
1747683210468955936,-0.113
1747683210476642639,-0.121
1747683210484329342,-0.116
1747683210492016045,-0.113
1747683210499702748,-0.11800000000000001
1747683210507389451,-0.027
1747683210515076154,0.28200000000000003
1747683210522762857,0.5660000000000001
1747683210530449560,0.326
1747683210538136263,-0.291
1747683210545822966,-0.551
1747683210553509669,-0.376
1747683210561196372,-0.267
1747683210568883075,-0.264
1747683210576569778,-0.16
1747683210584256481,-0.084
1747683210591943184,-0.101
1747683210599629887,-0.098
1747683210607316590,-0.074
1747683210615003293,-0.07100000000000001
1747683210622689996,-0.059000000000000004
1747683210630376699,-0.049
1747683210638063402,-0.064
1747683210645750105,-0.059000000000000004
1747683210653436808,-0.039
1747683210661123511,-0.037
1747683210668810214,-0.042
1747683210676496917,-0.037
1747683210684183620,-0.027
1747683210691870323,-0.014
1747683210699557026,-0.007
1747683210707243729,-0.004
1747683210714930432,0.0
1747683210722617135,0.014
1747683210730303838,0.029
1747683210737990541,0.032
1747683210745677244,0.047
1747683210753363947,0.07100000000000001
1747683210761050650,0.066
1747683210768737353,0.044
1747683210776424056,0.047
1747683210784110759,0.051000000000000004
1747683210791797462,0.042
1747683210799484165,0.027
1747683210807170868,0.002
1747683210814857571,-0.037
1747683210822544274,-0.066
1747683210830230977,-0.094
1747683210837917680,-0.123
1747683210845604383,-0.145
1747683210853291086,-0.153
1747683210860977789,-0.163
1747683210868664492,-0.168
1747683210876351195,-0.16
1747683210884037898,-0.153
1747683210891724601,-0.15
1747683210899411304,-0.14300000000000002
1747683210907098007,-0.136
1747683210914784710,-0.138
1747683210922471413,-0.131
1747683210930158116,-0.121
1747683210937844819,-0.121
1747683210945531522,-0.111
1747683210953218225,-0.108
1747683210960904928,-0.11800000000000001
1747683210968591631,-0.113
1747683210976278334,-0.111
1747683210983965097,-0.121,81,778
1747683210991651800,-0.126
1747683210999338503,-0.11800000000000001
1747683211007025206,-0.11800000000000001
1747683211014711909,-0.11800000000000001
1747683211022398612,-0.11800000000000001
1747683211030085315,-0.121
1747683211037772018,-0.126
1747683211045458721,-0.121
1747683211053145424,-0.11800000000000001
1747683211060832127,-0.121
1747683211068518830,-0.11800000000000001
1747683211076205533,-0.121
1747683211083892236,-0.121
1747683211091578939,-0.121
1747683211099265642,-0.121
1747683211106952345,-0.123
1747683211114639048,-0.126
1747683211122325751,-0.126
1747683211130012454,-0.126
1747683211137699157,-0.116
1747683211145385860,-0.098
1747683211153072563,-0.084
1747683211160759266,-0.07100000000000001
1747683211168445969,-0.061
1747683211176132672,-0.074
1747683211183819375,-0.091
1747683211191506078,-0.089
1747683211199192781,-0.091
1747683211206879484,-0.106
1747683211214566187,-0.10300000000000001
1747683211222252890,-0.089
1747683211229939593,-0.094
1747683211237626296,-0.10300000000000001
1747683211245312999,-0.10300000000000001
1747683211252999702,-0.069
1747683211260686405,0.153
1747683211268373108,0.526
1747683211276059811,0.551
1747683211283746514,0.004
1747683211291433217,-0.47900000000000004
1747683211299119920,-0.432
1747683211306806623,-0.249
1747683211314493326,-0.23500000000000001
1747683211322180029,-0.178
1747683211329866732,-0.069
1747683211337553435,-0.066
1747683211345240138,-0.089
1747683211352926841,-0.054
1747683211360613544,-0.032
1747683211368300247,-0.039
1747683211375986950,-0.044
1747683211383673653,-0.034
1747683211391360356,-0.029
1747683211399047059,-0.027
1747683211406733762,-0.024
1747683211414420465,-0.017
1747683211422107168,-0.014
1747683211429793871,-0.014
1747683211437480574,-0.007
1747683211445167277,-0.002
1747683211452853980,0.002
1747683211460540683,0.009000000000000001
1747683211468227386,0.017
1747683211475914089,0.029
1747683211483600792,0.034
1747683211491287495,0.042
1747683211498974198,0.054
1747683211506660901,0.056
1747683211514347604,0.056
1747683211522034307,0.056
1747683211529721010,0.054
1747683211537407713,0.042
1747683211545094476,0.032
1747683211552782015,0.022
1747683211560469554,-0.002
1747683211568157093,-0.032
1747683211575844632,-0.061
1747683211583532171,-0.096
1747683211591219710,-0.126
1747683211598907249,-0.131
1747683211606594788,-0.131
1747683211614282327,-0.14300000000000002
1747683211621969866,-0.14100000000000001
1747683211629657405,-0.131
1747683211637344944,-0.131
1747683211645032483,-0.128
1747683211652720022,-0.116
1747683211660407561,-0.116
1747683211668095100,-0.11800000000000001
1747683211675782639,-0.106
1747683211683470178,-0.094
1747683211691157717,-0.101
1747683211698845256,-0.106
1747683211706532795,-0.098
1747683211714220334,-0.094
1747683211721907873,-0.094
1747683211729595412,-0.096
1747683211737282951,-0.108
1747683211744970490,-0.111
1747683211752658029,-0.10300000000000001
1747683211760345568,-0.101
1747683211768033107,-0.111
1747683211775720646,-0.111
1747683211783408185,-0.101
1747683211791095724,-0.101
1747683211798783263,-0.113
1747683211806470802,-0.106
1747683211814158341,-0.094
1747683211821845880,-0.096
1747683211829533419,-0.106
1747683211837220958,-0.098
1747683211844908497,-0.094
1747683211852596036,-0.108
1747683211860283575,-0.121
1747683211867971114,-0.113
1747683211875658653,-0.108
1747683211883346192,-0.108
1747683211891033731,-0.091
1747683211898721270,-0.069
1747683211906408809,-0.07100000000000001
1747683211914096348,-0.076
1747683211921783887,-0.064
1747683211929471426,-0.07100000000000001
1747683211937158965,-0.094
1747683211944846504,-0.096
1747683211952534043,-0.084
1747683211960221582,-0.084
1747683211967909121,-0.091
1747683211975596660,-0.091
1747683211983284199,-0.089
1747683211990971738,-0.094
1747683211998659277,-0.10300000000000001
1747683212006346816,-0.009000000000000001
1747683212014034355,0.311
1747683212021721894,0.625
1747683212029409433,0.445
1747683212037096972,-0.14300000000000002
1747683212044784511,-0.467
1747683212052472050,-0.338
1747683212060159589,-0.20500000000000002
1747683212067847128,-0.188
1747683212075534667,-0.11800000000000001
1747683212083222206,-0.076
1747683212090909745,-0.108
1747683212098597284,-0.101
1747683212106284893,-0.066,81,790
1747683212113971178,-0.069
1747683212121657463,-0.07100000000000001
1747683212129343748,-0.051000000000000004
1747683212137030033,-0.044
1747683212144716318,-0.051000000000000004
1747683212152402603,-0.051000000000000004
1747683212160088888,-0.042
1747683212167775173,-0.034
1747683212175461458,-0.029
1747683212183147743,-0.027
1747683212190834028,-0.027
1747683212198520313,-0.024
1747683212206206598,-0.017
1747683212213892883,-0.012
1747683212221579168,-0.007
1747683212229265453,0.007
1747683212236951738,0.017
1747683212244638023,0.024
1747683212252324308,0.034
1747683212260010593,0.034
1747683212267696878,0.024
1747683212275383163,0.024
1747683212283069448,0.024
1747683212290755733,0.017
1747683212298442018,0.004
1747683212306128303,-0.007
1747683212313814588,-0.032
1747683212321500873,-0.064
1747683212329187158,-0.089
1747683212336873443,-0.113
1747683212344559728,-0.128
1747683212352246013,-0.136
1747683212359932298,-0.153
1747683212367618583,-0.155
1747683212375304868,-0.14300000000000002
1747683212382991153,-0.14100000000000001
1747683212390677438,-0.136
1747683212398363723,-0.128
1747683212406050008,-0.126
1747683212413736293,-0.121
1747683212421422578,-0.11800000000000001
1747683212429108863,-0.131
1747683212436795148,-0.131
1747683212444481433,-0.11800000000000001
1747683212452167718,-0.113
1747683212459854003,-0.11800000000000001
1747683212467540288,-0.121
1747683212475226573,-0.121
1747683212482912858,-0.121
1747683212490599143,-0.121
1747683212498285428,-0.11800000000000001
1747683212505971713,-0.121
1747683212513657998,-0.11800000000000001
1747683212521344283,-0.121
1747683212529030568,-0.116
1747683212536716853,-0.116
1747683212544403138,-0.123
1747683212552089423,-0.128
1747683212559775708,-0.121
1747683212567461993,-0.113
1747683212575148278,-0.11800000000000001
1747683212582834563,-0.11800000000000001
1747683212590520848,-0.116
1747683212598207133,-0.123
1747683212605893418,-0.131
1747683212613579703,-0.128
1747683212621265988,-0.123
1747683212628952273,-0.108
1747683212636638558,-0.089
1747683212644324843,-0.08600000000000001
1747683212652011128,-0.084
1747683212659697413,-0.079
1747683212667383756,-0.094,80,760
