time,ecg,hr,rr,marker
1748367723917307523,-0.093
1748367723924994575,-0.093
1748367723932681627,-0.122
1748367723940368679,-0.151
1748367723948055731,-0.14400000000000002
1748367723955742783,-0.134
1748367723963429835,-0.132
1748367723971116887,-0.129
1748367723978803939,-0.122
1748367723986490991,-0.12
1748367723994178043,-0.124
1748367724001865095,-0.149
1748367724009552147,-0.22
1748367724017239199,-0.281
1748367724024926251,-0.066
1748367724032613303,0.649
1748367724040300355,1.567
1748367724047987407,2.035
1748367724055674459,1.295
1748367724063361511,-0.222
1748367724071048563,-0.6950000000000001
1748367724078735615,-0.154
1748367724086422667,-0.078
1748367724094109719,-0.279
1748367724101796771,-0.181
1748367724109483823,-0.112
1748367724117170875,-0.171
1748367724124857927,-0.14200000000000002
1748367724132544979,-0.088
1748367724140232031,-0.085
1748367724147919083,-0.07100000000000001
1748367724155606135,-0.034
1748367724163293187,-0.012
1748367724170980239,0.012
1748367724178667291,0.041
1748367724186354343,0.068
1748367724194041395,0.097
1748367724201728447,0.132
1748367724209415499,0.164
1748367724217102551,0.193
1748367724224789603,0.213
1748367724232476655,0.227
1748367724240163707,0.232
1748367724247850759,0.225
1748367724255537811,0.213
1748367724263224863,0.193
1748367724270911915,0.171
1748367724278598967,0.137
1748367724286286019,0.083
1748367724293973071,0.012
1748367724301660123,-0.063
1748367724309347175,-0.137
1748367724317034227,-0.20500000000000002
1748367724324721279,-0.257
1748367724332408331,-0.28600000000000003
1748367724340095383,-0.296
1748367724347782435,-0.296
1748367724355469487,-0.289
1748367724363156539,-0.279
1748367724370843591,-0.267
1748367724378530643,-0.254
1748367724386217695,-0.24
1748367724393904747,-0.225
1748367724401591799,-0.215
1748367724409278851,-0.21
1748367724416965903,-0.20500000000000002
1748367724424652955,-0.2
1748367724432340007,-0.198
1748367724440027059,-0.195
1748367724447714111,-0.193
1748367724455401163,-0.193
1748367724463088215,-0.191
1748367724470775267,-0.191
1748367724478462337,-0.191,89,686
1748367724486149110,-0.188,,688
1748367724493835883,-0.188
1748367724501522656,-0.186
1748367724509209429,-0.183
1748367724516896202,-0.178
1748367724524582975,-0.176
1748367724532269748,-0.17300000000000001
1748367724539956521,-0.169
1748367724547643294,-0.171
1748367724555330067,-0.176
1748367724563016840,-0.176
1748367724570703613,-0.161
1748367724578390386,-0.14200000000000002
1748367724586077159,-0.124
1748367724593763932,-0.12
1748367724601450705,-0.107
1748367724609137478,-0.095
1748367724616824251,-0.11
1748367724624511024,-0.146
1748367724632197797,-0.154
1748367724639884570,-0.139
1748367724647571343,-0.134
1748367724655258116,-0.132
1748367724662944889,-0.127
1748367724670631662,-0.122
1748367724678318435,-0.122
1748367724686005208,-0.132
1748367724693691981,-0.17300000000000001
1748367724701378754,-0.257
1748367724709065527,-0.23500000000000001
1748367724716752300,0.21
1748367724724439073,1.075
1748367724732125846,1.8860000000000001
1748367724739812619,1.8780000000000001
1748367724747499392,0.585
1748367724755186165,-0.654
1748367724762872938,-0.47500000000000003
1748367724770559711,-0.029
1748367724778246484,-0.20500000000000002
1748367724785933257,-0.267
1748367724793620030,-0.122
1748367724801306803,-0.139
1748367724808993576,-0.176
1748367724816680349,-0.117
1748367724824367122,-0.085
1748367724832053895,-0.085
1748367724839740668,-0.058
1748367724847427441,-0.024
1748367724855114214,-0.002
1748367724862800987,0.024
1748367724870487760,0.058
1748367724878174533,0.088
1748367724885861306,0.117
1748367724893548079,0.151
1748367724901234852,0.181
1748367724908921625,0.20800000000000002
1748367724916608398,0.225
1748367724924295171,0.23
1748367724931981944,0.23
1748367724939668717,0.225
1748367724947355490,0.20500000000000002
1748367724955042263,0.181
1748367724962729036,0.159
1748367724970415809,0.122
1748367724978102582,0.056
1748367724985789355,-0.024
1748367724993476128,-0.10200000000000001
1748367725001162901,-0.17300000000000001
1748367725008849674,-0.23500000000000001
1748367725016536447,-0.274
1748367725024223220,-0.298
1748367725031909993,-0.301
1748367725039596799,-0.291,89,674
1748367725047283920,-0.279
1748367725054971041,-0.271
1748367725062658162,-0.257
1748367725070345283,-0.242
1748367725078032404,-0.23500000000000001
1748367725085719525,-0.227
1748367725093406646,-0.213
1748367725101093767,-0.20500000000000002
1748367725108780888,-0.20800000000000002
1748367725116468009,-0.2
1748367725124155130,-0.193
1748367725131842251,-0.198
1748367725139529372,-0.198
1748367725147216493,-0.193
1748367725154903614,-0.191
1748367725162590735,-0.191
1748367725170277856,-0.188
1748367725177964977,-0.188
1748367725185652098,-0.186
1748367725193339219,-0.176
1748367725201026340,-0.171
1748367725208713461,-0.171
1748367725216400582,-0.169
1748367725224087703,-0.166
1748367725231774824,-0.171
1748367725239461945,-0.176
1748367725247149066,-0.169
1748367725254836187,-0.156
1748367725262523308,-0.14200000000000002
1748367725270210429,-0.127
1748367725277897550,-0.112
1748367725285584671,-0.093
1748367725293271792,-0.085
1748367725300958913,-0.12
1748367725308646034,-0.156
1748367725316333155,-0.149
1748367725324020276,-0.134
1748367725331707397,-0.137
1748367725339394518,-0.132
1748367725347081639,-0.124
1748367725354768760,-0.12
1748367725362455881,-0.122
1748367725370143002,-0.139
1748367725377830123,-0.181
1748367725385517244,-0.269
1748367725393204365,-0.20800000000000002
1748367725400891486,0.352
1748367725408578607,1.254
1748367725416265728,1.895
1748367725423952849,1.575
1748367725431639970,0.195
1748367725439327091,-0.7030000000000001
1748367725447014212,-0.323
1748367725454701333,-0.026000000000000002
1748367725462388454,-0.23500000000000001
1748367725470075575,-0.21
1748367725477762696,-0.088
1748367725485449817,-0.132
1748367725493136938,-0.137
1748367725500824059,-0.075
1748367725508511180,-0.066
1748367725516198301,-0.056
1748367725523885422,-0.009000000000000001
1748367725531572543,0.014
1748367725539259664,0.019
1748367725546946785,0.053
1748367725554633906,0.088
1748367725562321027,0.11
1748367725570008148,0.14400000000000002
1748367725577695269,0.186
1748367725585382390,0.218
1748367725593069511,0.24
1748367725600756700,0.252
1748367725608443403,0.254
1748367725616130106,0.249
1748367725623816809,0.23700000000000002
1748367725631503512,0.218
1748367725639190215,0.188
1748367725646876918,0.154
1748367725654563621,0.107
1748367725662250324,0.041
1748367725669937027,-0.034
1748367725677623730,-0.11
1748367725685310433,-0.186
1748367725692997136,-0.252
1748367725700683839,-0.289
1748367725708370542,-0.291
1748367725716057245,-0.293
1748367725723743948,-0.293
1748367725731430651,-0.281
1748367725739117354,-0.267
1748367725746804057,-0.257
1748367725754490760,-0.249
1748367725762177463,-0.23700000000000002
1748367725769864166,-0.225
1748367725777550869,-0.213
1748367725785237572,-0.21
1748367725792924275,-0.20800000000000002
1748367725800610978,-0.198
1748367725808297681,-0.191
1748367725815984384,-0.191
1748367725823671087,-0.186
1748367725831357790,-0.178
1748367725839044493,-0.186
1748367725846731196,-0.193
1748367725854417899,-0.183
1748367725862104602,-0.178
1748367725869791305,-0.178
1748367725877478008,-0.176
1748367725885164711,-0.171
1748367725892851414,-0.171
1748367725900538117,-0.17300000000000001
1748367725908224820,-0.176
1748367725915911523,-0.176
1748367725923598226,-0.161
1748367725931284929,-0.14200000000000002
1748367725938971632,-0.132
1748367725946658335,-0.127
1748367725954345038,-0.115
1748367725962031741,-0.10200000000000001
1748367725969718444,-0.117
1748367725977405147,-0.154
1748367725985091850,-0.161
1748367725992778553,-0.14400000000000002
1748367726000465256,-0.139
1748367726008151959,-0.139
1748367726015838662,-0.134
1748367726023525365,-0.127
1748367726031212068,-0.124
1748367726038898771,-0.139
1748367726046585474,-0.178
1748367726054272177,-0.254
1748367726061958880,-0.225
1748367726069645583,0.23
1748367726077332286,1.058
1748367726085018989,1.734
1748367726092705692,1.599
1748367726100392395,0.379
1748367726108079098,-0.671
1748367726115765801,-0.433
1748367726123452504,-0.034
1748367726131139207,-0.195
1748367726138825910,-0.23
1748367726146512613,-0.10200000000000001
1748367726154199316,-0.124
1748367726161886079,-0.146,88,697
1748367726169573200,-0.09,,688
1748367726177260321,-0.07100000000000001
1748367726184947442,-0.066
1748367726192634563,-0.034
1748367726200321684,-0.012
1748367726208008805,0.004
1748367726215695926,0.036000000000000004
1748367726223383047,0.066
1748367726231070168,0.088
1748367726238757289,0.117
1748367726246444410,0.149
1748367726254131531,0.176
1748367726261818652,0.2
1748367726269505773,0.215
1748367726277192894,0.22
1748367726284880015,0.213
1748367726292567136,0.195
1748367726300254257,0.178
1748367726307941378,0.156
1748367726315628499,0.127
1748367726323315620,0.083
1748367726331002741,0.022
1748367726338689862,-0.051000000000000004
1748367726346376983,-0.127
1748367726354064104,-0.198
1748367726361751225,-0.252
1748367726369438346,-0.28400000000000003
1748367726377125467,-0.296
1748367726384812588,-0.301
1748367726392499709,-0.298
1748367726400186830,-0.289
1748367726407873951,-0.271
1748367726415561072,-0.259
1748367726423248193,-0.249
1748367726430935314,-0.23700000000000002
1748367726438622435,-0.225
1748367726446309556,-0.218
1748367726453996677,-0.213
1748367726461683798,-0.20800000000000002
1748367726469370919,-0.203
1748367726477058040,-0.2
1748367726484745161,-0.198
1748367726492432282,-0.198
1748367726500119403,-0.195
1748367726507806524,-0.193
1748367726515493645,-0.191
1748367726523180766,-0.191
1748367726530867887,-0.188
1748367726538555008,-0.188
1748367726546242129,-0.186
1748367726553929250,-0.183
1748367726561616371,-0.181
1748367726569303492,-0.178
1748367726576990613,-0.181
1748367726584677734,-0.186
1748367726592364855,-0.186
1748367726600051976,-0.17300000000000001
1748367726607739097,-0.154
1748367726615426218,-0.14200000000000002
1748367726623113339,-0.134
1748367726630800460,-0.12
1748367726638487581,-0.107
1748367726646174702,-0.12
1748367726653861823,-0.151
1748367726661548944,-0.164
1748367726669236065,-0.154
1748367726676923186,-0.146
1748367726684610307,-0.14400000000000002
1748367726692297428,-0.139
1748367726699984549,-0.137
1748367726707671670,-0.134
1748367726715358791,-0.14400000000000002
1748367726723045976,-0.178
1748367726730732958,-0.257
1748367726738419940,-0.262
1748367726746106922,0.129
1748367726753793904,0.96
1748367726761480886,1.7610000000000001
1748367726769167868,1.839
1748367726776854850,0.6930000000000001
1748367726784541832,-0.595
1748367726792228814,-0.541
1748367726799915796,-0.051000000000000004
1748367726807602778,-0.17300000000000001
1748367726815289760,-0.279
1748367726822976742,-0.14400000000000002
1748367726830663724,-0.139
1748367726838350706,-0.181
1748367726846037688,-0.124
1748367726853724670,-0.09
1748367726861411652,-0.093
1748367726869098634,-0.066
1748367726876785616,-0.031
1748367726884472598,-0.014
1748367726892159580,0.012
1748367726899846562,0.044
1748367726907533544,0.068
1748367726915220526,0.1
1748367726922907508,0.137
1748367726930594490,0.164
1748367726938281472,0.188
1748367726945968454,0.20500000000000002
1748367726953655436,0.213
1748367726961342418,0.213
1748367726969029400,0.203
1748367726976716382,0.186
1748367726984403364,0.166
1748367726992090346,0.139
1748367726999777328,0.093
1748367727007464310,0.034
1748367727015151292,-0.036000000000000004
1748367727022838274,-0.11
1748367727030525256,-0.183
1748367727038212238,-0.244
1748367727045899220,-0.281
1748367727053586202,-0.298
1748367727061273184,-0.306
1748367727068960166,-0.303
1748367727076647148,-0.293
1748367727084334130,-0.279
1748367727092021112,-0.269
1748367727099708094,-0.257
1748367727107395076,-0.244
1748367727115082058,-0.232
1748367727122769040,-0.222
1748367727130456022,-0.215
1748367727138143004,-0.21
1748367727145829986,-0.20500000000000002
1748367727153516968,-0.203
1748367727161203950,-0.2
1748367727168890932,-0.198
1748367727176577914,-0.198
1748367727184264896,-0.195
1748367727191951878,-0.195
1748367727199638860,-0.195
1748367727207325842,-0.195
1748367727215012824,-0.191
1748367727222699806,-0.188
1748367727230386788,-0.183
1748367727238073770,-0.181
1748367727245760752,-0.176
1748367727253447734,-0.178
1748367727261134716,-0.183
1748367727268821698,-0.183
1748367727276508680,-0.171
1748367727284195703,-0.151,88,683
1748367727291882546,-0.137
1748367727299569389,-0.129
1748367727307256232,-0.12
1748367727314943075,-0.10200000000000001
1748367727322629918,-0.112
1748367727330316761,-0.149
1748367727338003604,-0.164
1748367727345690447,-0.149
1748367727353377290,-0.14200000000000002
1748367727361064133,-0.14200000000000002
1748367727368750976,-0.134
1748367727376437819,-0.132
1748367727384124662,-0.132
1748367727391811505,-0.14200000000000002
1748367727399498348,-0.176
1748367727407185191,-0.262
1748367727414872034,-0.254
1748367727422558877,0.171
1748367727430245720,1.033
1748367727437932563,1.856
1748367727445619406,1.881
1748367727453306249,0.631
1748367727460993092,-0.636
1748367727468679935,-0.504
1748367727476366778,-0.041
1748367727484053621,-0.195
1748367727491740464,-0.276
1748367727499427307,-0.139
1748367727507114150,-0.149
1748367727514800993,-0.178
1748367727522487836,-0.12
1748367727530174679,-0.097
1748367727537861522,-0.095
1748367727545548365,-0.061
1748367727553235208,-0.031
1748367727560922051,-0.012
1748367727568608894,0.017
1748367727576295737,0.048
1748367727583982580,0.075
1748367727591669423,0.107
1748367727599356266,0.14200000000000002
1748367727607043109,0.171
1748367727614729952,0.198
1748367727622416795,0.218
1748367727630103638,0.225
1748367727637790481,0.22
1748367727645477324,0.20800000000000002
1748367727653164167,0.191
1748367727660851010,0.171
1748367727668537853,0.14400000000000002
1748367727676224696,0.1
1748367727683911539,0.036000000000000004
1748367727691598382,-0.039
1748367727699285225,-0.115
1748367727706972068,-0.188
1748367727714658911,-0.247
1748367727722345754,-0.28400000000000003
1748367727730032597,-0.301
1748367727737719440,-0.306
1748367727745406283,-0.306
1748367727753093126,-0.296
1748367727760779969,-0.28400000000000003
1748367727768466812,-0.267
1748367727776153655,-0.254
1748367727783840498,-0.244
1748367727791527341,-0.23500000000000001
1748367727799214184,-0.222
1748367727806901027,-0.218
1748367727814587870,-0.213
1748367727822274713,-0.20800000000000002
1748367727829961556,-0.20500000000000002
1748367727837648399,-0.203
1748367727845335252,-0.2
1748367727853022373,-0.2
1748367727860709494,-0.2
1748367727868396615,-0.198
1748367727876083736,-0.195
1748367727883770857,-0.195
1748367727891457978,-0.193
1748367727899145099,-0.193
1748367727906832220,-0.188
1748367727914519341,-0.183
1748367727922206462,-0.181
1748367727929893583,-0.178
1748367727937580704,-0.178
1748367727945267825,-0.183
1748367727952954946,-0.181
1748367727960642067,-0.161
1748367727968329188,-0.139
1748367727976016309,-0.129
1748367727983703430,-0.124
1748367727991390551,-0.11
1748367727999077672,-0.10200000000000001
1748367728006764793,-0.127
1748367728014451914,-0.154
1748367728022139035,-0.149
1748367728029826156,-0.139
1748367728037513277,-0.139
1748367728045200398,-0.139
1748367728052887519,-0.134
1748367728060574640,-0.127
1748367728068261761,-0.127
1748367728075948882,-0.14400000000000002
1748367728083636003,-0.2
1748367728091323124,-0.274
1748367728099010245,-0.149
1748367728106697366,0.46
1748367728114384487,1.3760000000000001
1748367728122071608,2.003
1748367728129758729,1.538
1748367728137445850,0.031
1748367728145132971,-0.749
1748367728152820092,-0.267
1748367728160507213,-0.039
1748367728168194334,-0.264
1748367728175881455,-0.218
1748367728183568576,-0.11
1748367728191255697,-0.154
1748367728198942818,-0.14400000000000002
1748367728206629939,-0.09
1748367728214317060,-0.09
1748367728222004181,-0.075
1748367728229691302,-0.031
1748367728237378423,-0.009000000000000001
1748367728245065544,0.012
1748367728252752665,0.051000000000000004
1748367728260439786,0.075
1748367728268126907,0.1
1748367728275814028,0.134
1748367728283501149,0.171
1748367728291188270,0.203
1748367728298875391,0.227
1748367728306562512,0.232
1748367728314249633,0.23500000000000001
1748367728321936754,0.24
1748367728329623875,0.222
1748367728337310996,0.2
1748367728344998117,0.178
1748367728352685238,0.146
1748367728360372359,0.095
1748367728368059480,0.024
1748367728375746601,-0.051000000000000004
1748367728383433722,-0.127
1748367728391120843,-0.2
1748367728398807964,-0.252
1748367728406495149,-0.281,88,670
1748367728414182270,-0.303,,678
1748367728421869391,-0.303
1748367728429556512,-0.28600000000000003
1748367728437243633,-0.279
1748367728444930754,-0.276
1748367728452617875,-0.257
1748367728460304996,-0.23700000000000002
1748367728467992117,-0.232
1748367728475679238,-0.23
1748367728483366359,-0.213
1748367728491053480,-0.203
1748367728498740601,-0.20500000000000002
1748367728506427722,-0.198
1748367728514114843,-0.193
1748367728521801964,-0.198
1748367728529489085,-0.191
1748367728537176206,-0.181
1748367728544863327,-0.183
1748367728552550448,-0.193
1748367728560237569,-0.193
1748367728567924690,-0.188
1748367728575611811,-0.183
1748367728583298932,-0.178
1748367728590986053,-0.176
1748367728598673174,-0.17300000000000001
1748367728606360295,-0.17300000000000001
1748367728614047416,-0.17300000000000001
1748367728621734537,-0.176
1748367728629421658,-0.169
1748367728637108779,-0.151
1748367728644795900,-0.134
1748367728652483021,-0.122
1748367728660170142,-0.112
1748367728667857263,-0.10200000000000001
1748367728675544384,-0.112
1748367728683231505,-0.146
1748367728690918626,-0.159
1748367728698605747,-0.14400000000000002
1748367728706292868,-0.137
1748367728713979989,-0.137
1748367728721667110,-0.134
1748367728729354231,-0.127
1748367728737041352,-0.122
1748367728744728473,-0.129
1748367728752415594,-0.164
1748367728760102715,-0.23700000000000002
1748367728767789836,-0.271
1748367728775476957,0.053
1748367728783164078,0.864
1748367728790851199,1.68
1748367728798538320,1.795
1748367728806225441,0.747
1748367728813912562,-0.531
1748367728821599683,-0.556
1748367728829286804,-0.063
1748367728836973925,-0.149
1748367728844661046,-0.249
1748367728852348167,-0.115
1748367728860035288,-0.11
1748367728867722409,-0.146
1748367728875409530,-0.093
1748367728883096651,-0.061
1748367728890783772,-0.066
1748367728898470893,-0.039
1748367728906158014,-0.002
1748367728913845135,0.017
1748367728921532256,0.041
1748367728929219377,0.075
1748367728936906498,0.105
1748367728944593619,0.137
1748367728952280740,0.171
1748367728959967861,0.198
1748367728967655050,0.22,88,676
1748367728975341893,0.23700000000000002
1748367728983028736,0.247
1748367728990715579,0.244
1748367728998402422,0.232
1748367729006089265,0.21
1748367729013776108,0.186
1748367729021462951,0.156
1748367729029149794,0.112
1748367729036836637,0.048
1748367729044523480,-0.026000000000000002
1748367729052210323,-0.107
1748367729059897166,-0.181
1748367729067584009,-0.242
1748367729075270852,-0.281
1748367729082957695,-0.301
1748367729090644538,-0.311
1748367729098331381,-0.308
1748367729106018224,-0.298
1748367729113705067,-0.28600000000000003
1748367729121391910,-0.271
1748367729129078753,-0.257
1748367729136765596,-0.247
1748367729144452439,-0.24
1748367729152139282,-0.227
1748367729159826125,-0.215
1748367729167512968,-0.21
1748367729175199811,-0.20500000000000002
1748367729182886654,-0.20500000000000002
1748367729190573497,-0.203
1748367729198260340,-0.198
1748367729205947183,-0.195
1748367729213634026,-0.193
1748367729221320869,-0.186
1748367729229007712,-0.186
1748367729236694555,-0.191
1748367729244381398,-0.191
1748367729252068241,-0.188
1748367729259755084,-0.183
1748367729267441927,-0.181
1748367729275128770,-0.183
1748367729282815613,-0.191
1748367729290502456,-0.191
1748367729298189299,-0.181
1748367729305876142,-0.159
1748367729313562985,-0.14200000000000002
1748367729321249828,-0.134
1748367729328936671,-0.127
1748367729336623514,-0.112
1748367729344310357,-0.122
1748367729351997200,-0.154
1748367729359684043,-0.171
1748367729367370886,-0.159
1748367729375057729,-0.149
1748367729382744572,-0.146
1748367729390431415,-0.14200000000000002
1748367729398118258,-0.132
1748367729405805101,-0.137
1748367729413491944,-0.151
1748367729421178787,-0.186
1748367729428865630,-0.264
1748367729436552473,-0.23
1748367729444239316,0.247
1748367729451926159,1.124
1748367729459613002,1.866
1748367729467299845,1.724
1748367729474986688,0.404
1748367729482673531,-0.6980000000000001
1748367729490360374,-0.438
1748367729498047217,-0.041
1748367729505734060,-0.218
1748367729513420903,-0.249
1748367729521107746,-0.117
1748367729528794603,-0.146
1748367729536481585,-0.169
1748367729544168567,-0.107
1748367729551855549,-0.085
1748367729559542531,-0.083
1748367729567229513,-0.051000000000000004
1748367729574916495,-0.026000000000000002
1748367729582603477,-0.007
1748367729590290459,0.024
1748367729597977441,0.056
1748367729605664423,0.08
1748367729613351405,0.112
1748367729621038387,0.14400000000000002
1748367729628725369,0.17300000000000001
1748367729636412351,0.2
1748367729644099333,0.218
1748367729651786315,0.22
1748367729659473297,0.213
1748367729667160279,0.203
1748367729674847261,0.186
1748367729682534243,0.161
1748367729690221225,0.132
1748367729697908207,0.085
1748367729705595189,0.019
1748367729713282171,-0.056
1748367729720969153,-0.132
1748367729728656135,-0.203
1748367729736343117,-0.257
1748367729744030099,-0.289
1748367729751717081,-0.303
1748367729759404063,-0.306
1748367729767091045,-0.303
1748367729774778027,-0.293
1748367729782465009,-0.279
1748367729790151991,-0.267
1748367729797838973,-0.252
1748367729805525955,-0.24
1748367729813212937,-0.232
1748367729820899919,-0.222
1748367729828586901,-0.213
1748367729836273883,-0.20800000000000002
1748367729843960865,-0.20800000000000002
1748367729851647847,-0.203
1748367729859334829,-0.198
1748367729867021811,-0.198
1748367729874708793,-0.198
1748367729882395775,-0.198
1748367729890082757,-0.195
1748367729897769739,-0.193
1748367729905456721,-0.195
1748367729913143703,-0.195
1748367729920830685,-0.191
1748367729928517667,-0.183
1748367729936204649,-0.183
1748367729943891631,-0.183
1748367729951578613,-0.186
1748367729959265595,-0.188
1748367729966952577,-0.183
1748367729974639559,-0.166
1748367729982326541,-0.146
1748367729990013523,-0.139
1748367729997700505,-0.127
1748367730005387487,-0.107
1748367730013074469,-0.107
1748367730020761451,-0.139
1748367730028448433,-0.166
1748367730036135415,-0.159
1748367730043822397,-0.146
1748367730051509379,-0.149
1748367730059196361,-0.14400000000000002
1748367730066883343,-0.134
1748367730074570325,-0.129
1748367730082257307,-0.137
1748367730089944326,-0.159,88,682
1748367730097631447,-0.225,,673
1748367730105318568,-0.291
1748367730113005689,-0.088
1748367730120692810,0.614
1748367730128379931,1.54
1748367730136067052,2.05
1748367730143754173,1.347
1748367730151441294,-0.195
1748367730159128415,-0.72
1748367730166815536,-0.183
1748367730174502657,-0.088
1748367730182189778,-0.291
1748367730189876899,-0.198
1748367730197564020,-0.127
1748367730205251141,-0.181
1748367730212938262,-0.151
1748367730220625383,-0.1
1748367730228312504,-0.1
1748367730235999625,-0.08
1748367730243686746,-0.039
1748367730251373867,-0.022
1748367730259060988,0.0
1748367730266748109,0.036000000000000004
1748367730274435230,0.068
1748367730282122351,0.093
1748367730289809472,0.124
1748367730297496593,0.161
1748367730305183714,0.191
1748367730312870835,0.213
1748367730320557956,0.227
1748367730328245077,0.227
1748367730335932198,0.22
1748367730343619319,0.20500000000000002
1748367730351306440,0.186
1748367730358993561,0.159
1748367730366680682,0.124
1748367730374367803,0.07100000000000001
1748367730382054924,-0.004
1748367730389742045,-0.085
1748367730397429166,-0.159
1748367730405116287,-0.227
1748367730412803408,-0.274
1748367730420490529,-0.298
1748367730428177650,-0.308
1748367730435864771,-0.308
1748367730443551892,-0.301
1748367730451239013,-0.291
1748367730458926134,-0.276
1748367730466613255,-0.262
1748367730474300376,-0.249
1748367730481987497,-0.23700000000000002
1748367730489674618,-0.23
1748367730497361739,-0.222
1748367730505048860,-0.215
1748367730512735981,-0.21
1748367730520423102,-0.20800000000000002
1748367730528110223,-0.203
1748367730535797344,-0.198
1748367730543484465,-0.195
1748367730551171586,-0.198
1748367730558858707,-0.198
1748367730566545828,-0.195
1748367730574232949,-0.191
1748367730581920070,-0.188
1748367730589607191,-0.191
1748367730597294312,-0.188
1748367730604981433,-0.181
1748367730612668554,-0.178
1748367730620355675,-0.181
1748367730628042796,-0.186
1748367730635729917,-0.183
1748367730643417038,-0.17300000000000001
1748367730651104223,-0.154
1748367730658791275,-0.137
1748367730666478327,-0.127
1748367730674165379,-0.117
1748367730681852431,-0.1
1748367730689539483,-0.107
1748367730697226535,-0.14400000000000002
1748367730704913587,-0.161
1748367730712600639,-0.149
1748367730720287691,-0.14200000000000002
1748367730727974743,-0.14200000000000002
1748367730735661795,-0.134
1748367730743348847,-0.129
1748367730751035899,-0.127
1748367730758722951,-0.134
1748367730766410003,-0.164
1748367730774097055,-0.23700000000000002
1748367730781784107,-0.281
1748367730789471159,0.002
1748367730797158211,0.769
1748367730804845263,1.68
1748367730812532315,2.057
1748367730820219367,1.139
1748367730827906419,-0.384
1748367730835593471,-0.668
1748367730843280523,-0.115
1748367730850967575,-0.127
1748367730858654627,-0.296
1748367730866341679,-0.171
1748367730874028731,-0.132
1748367730881715783,-0.186
1748367730889402835,-0.139
1748367730897089887,-0.095
1748367730904776939,-0.095
1748367730912463991,-0.07100000000000001
1748367730920151043,-0.034
1748367730927838095,-0.014
1748367730935525147,0.007
1748367730943212199,0.041
1748367730950899251,0.075
1748367730958586303,0.105
1748367730966273355,0.139
1748367730973960407,0.17300000000000001
1748367730981647459,0.2
1748367730989334511,0.222
1748367730997021563,0.23700000000000002
1748367731004708615,0.23700000000000002
1748367731012395667,0.227
1748367731020082719,0.213
1748367731027769771,0.193
1748367731035456823,0.169
1748367731043143875,0.129
1748367731050830927,0.066
1748367731058517979,-0.009000000000000001
1748367731066205031,-0.088
1748367731073892083,-0.164
1748367731081579135,-0.23
1748367731089266187,-0.274
1748367731096953239,-0.296
1748367731104640291,-0.303
1748367731112327343,-0.303
1748367731120014395,-0.296
1748367731127701447,-0.28400000000000003
1748367731135388499,-0.267
1748367731143075551,-0.257
1748367731150762603,-0.247
1748367731158449655,-0.23500000000000001
1748367731166136707,-0.225
1748367731173823759,-0.213
1748367731181510811,-0.20500000000000002
1748367731189197863,-0.203
1748367731196884915,-0.2
1748367731204571967,-0.198
1748367731212259037,-0.195,88,667
1748367731219945810,-0.198
1748367731227632583,-0.198
1748367731235319356,-0.193
1748367731243006129,-0.191
1748367731250692902,-0.186
1748367731258379675,-0.183
1748367731266066448,-0.183
1748367731273753221,-0.183
1748367731281439994,-0.176
1748367731289126767,-0.17300000000000001
1748367731296813540,-0.171
1748367731304500313,-0.169
1748367731312187086,-0.171
1748367731319873859,-0.176
1748367731327560632,-0.171
1748367731335247405,-0.151
1748367731342934178,-0.132
1748367731350620951,-0.124
1748367731358307724,-0.115
1748367731365994497,-0.097
1748367731373681270,-0.093
1748367731381368043,-0.117
1748367731389054816,-0.146
1748367731396741589,-0.146
1748367731404428362,-0.137
1748367731412115135,-0.137
1748367731419801908,-0.127
1748367731427488681,-0.115
1748367731435175454,-0.117
1748367731442862227,-0.122
1748367731450549000,-0.132
1748367731458235773,-0.178
1748367731465922546,-0.267
1748367731473609319,-0.20800000000000002
1748367731481296092,0.301
1748367731488982865,1.202
1748367731496669638,1.984
1748367731504356411,1.829
1748367731512043184,0.41300000000000003
1748367731519729957,-0.705
1748367731527416730,-0.396
1748367731535103503,-0.019
1748367731542790276,-0.222
1748367731550477049,-0.24
1748367731558163822,-0.11
1748367731565850595,-0.149
1748367731573537368,-0.166
1748367731581224141,-0.095
1748367731588910914,-0.07100000000000001
1748367731596597687,-0.073
1748367731604284460,-0.036000000000000004
1748367731611971233,-0.002
1748367731619658006,0.014
1748367731627344779,0.041
1748367731635031552,0.078
1748367731642718325,0.112
1748367731650405098,0.137
1748367731658091871,0.169
1748367731665778644,0.21
1748367731673465417,0.23700000000000002
1748367731681152190,0.249
1748367731688838963,0.257
1748367731696525736,0.254
1748367731704212509,0.24
1748367731711899282,0.227
1748367731719586055,0.20800000000000002
1748367731727272828,0.169
1748367731734959601,0.122
1748367731742646374,0.061
1748367731750333147,-0.024
1748367731758019920,-0.117
1748367731765706693,-0.191
1748367731773393499,-0.24
1748367731781080620,-0.279
1748367731788767741,-0.296
1748367731796454862,-0.301
1748367731804141983,-0.298
1748367731811829104,-0.28400000000000003
1748367731819516225,-0.271
1748367731827203346,-0.264
1748367731834890467,-0.252
1748367731842577588,-0.24
1748367731850264709,-0.23
1748367731857951830,-0.218
1748367731865638951,-0.20800000000000002
1748367731873326072,-0.20500000000000002
1748367731881013193,-0.2
1748367731888700314,-0.193
1748367731896387435,-0.195
1748367731904074556,-0.2
1748367731911761677,-0.191
1748367731919448798,-0.186
1748367731927135919,-0.188
1748367731934823040,-0.183
1748367731942510161,-0.181
1748367731950197282,-0.183
1748367731957884403,-0.183
1748367731965571524,-0.188
1748367731973258645,-0.193
1748367731980945766,-0.176
1748367731988632887,-0.166
1748367731996320008,-0.178
1748367732004007129,-0.198
1748367732011694250,-0.193
1748367732019381371,-0.17300000000000001
1748367732027068492,-0.17300000000000001
1748367732034755613,-0.17300000000000001
1748367732042442734,-0.151
1748367732050129855,-0.132
1748367732057816976,-0.124
1748367732065504097,-0.132
1748367732073191218,-0.166
1748367732080878339,-0.193
1748367732088565460,-0.183
1748367732096252581,-0.166
1748367732103939702,-0.161
1748367732111626823,-0.186
1748367732119313944,-0.2
1748367732127001065,-0.17300000000000001
1748367732134688186,-0.14400000000000002
1748367732142375307,-0.166
1748367732150062428,-0.242
1748367732157749549,-0.315
1748367732165436670,-0.169
1748367732173123791,0.445
1748367732180810912,1.361
1748367732188498033,1.969
1748367732196185154,1.42
1748367732203872275,-0.10200000000000001
1748367732211559396,-0.761
1748367732219246517,-0.252
1748367732226933638,-0.10200000000000001
1748367732234620759,-0.328
1748367732242307880,-0.232
1748367732249995001,-0.132
1748367732257682122,-0.203
1748367732265369243,-0.186
1748367732273056364,-0.124
1748367732280743485,-0.139
1748367732288430606,-0.132
1748367732296117727,-0.073
1748367732303804848,-0.034
1748367732311491969,-0.024
1748367732319179090,-0.004
1748367732326866211,0.034
1748367732334553400,0.07100000000000001,89,673
1748367732342240521,0.093,,676
1748367732349927642,0.134
1748367732357614763,0.181
1748367732365301884,0.203
1748367732372989005,0.213
1748367732380676126,0.227
1748367732388363247,0.218
1748367732396050368,0.191
1748367732403737489,0.17300000000000001
1748367732411424610,0.151
1748367732419111731,0.115
1748367732426798852,0.068
1748367732434485973,-0.002
1748367732442173094,-0.093
1748367732449860215,-0.176
1748367732457547336,-0.252
1748367732465234457,-0.311
1748367732472921578,-0.342
1748367732480608699,-0.355
1748367732488295820,-0.357
1748367732495982941,-0.352
1748367732503670062,-0.342
1748367732511357183,-0.333
1748367732519044304,-0.313
1748367732526731425,-0.28600000000000003
1748367732534418546,-0.279
1748367732542105667,-0.28400000000000003
1748367732549792788,-0.269
1748367732557479909,-0.249
1748367732565167030,-0.242
1748367732572854151,-0.24
1748367732580541272,-0.23500000000000001
1748367732588228393,-0.23
1748367732595915514,-0.23
1748367732603602635,-0.23
1748367732611289756,-0.225
1748367732618976877,-0.218
1748367732626663998,-0.225
1748367732634351119,-0.23
1748367732642038240,-0.222
1748367732649725361,-0.213
1748367732657412482,-0.215
1748367732665099603,-0.218
1748367732672786724,-0.21
1748367732680473845,-0.186
1748367732688160966,-0.169
1748367732695848087,-0.169
1748367732703535208,-0.156
1748367732711222329,-0.137
1748367732718909450,-0.146
1748367732726596571,-0.178
1748367732734283692,-0.188
1748367732741970813,-0.176
1748367732749657934,-0.164
1748367732757345055,-0.156
1748367732765032176,-0.154
1748367732772719297,-0.149
1748367732780406418,-0.151
1748367732788093539,-0.156
1748367732795780660,-0.176
1748367732803467781,-0.242
1748367732811154902,-0.28400000000000003
1748367732818842023,0.026000000000000002
1748367732826529144,0.835
1748367732834216265,1.682
1748367732841903386,1.8760000000000001
1748367732849590507,0.903
1748367732857277628,-0.458
1748367732864964749,-0.622
1748367732872651870,-0.122
1748367732880338991,-0.151
1748367732888026112,-0.242
1748367732895713297,-0.09
1748367732903400000,-0.075
1748367732911086703,-0.122
1748367732918773406,-0.058
1748367732926460109,-0.017
1748367732934146812,-0.024
1748367732941833515,0.002
1748367732949520218,0.044
1748367732957206921,0.07100000000000001
1748367732964893624,0.1
1748367732972580327,0.137
1748367732980267030,0.171
1748367732987953733,0.20800000000000002
1748367732995640436,0.249
1748367733003327139,0.28400000000000003
1748367733011013842,0.313
1748367733018700545,0.338
1748367733026387248,0.34700000000000003
1748367733034073951,0.34
1748367733041760654,0.328
1748367733049447357,0.311
1748367733057134060,0.28400000000000003
1748367733064820763,0.247
1748367733072507466,0.198
1748367733080194169,0.132
1748367733087880872,0.048
1748367733095567575,-0.044
1748367733103254278,-0.129
1748367733110940981,-0.195
1748367733118627684,-0.23700000000000002
1748367733126314387,-0.257
1748367733134001090,-0.262
1748367733141687793,-0.264
1748367733149374496,-0.257
1748367733157061199,-0.247
1748367733164747902,-0.232
1748367733172434605,-0.22
1748367733180121308,-0.21
1748367733187808011,-0.198
1748367733195494714,-0.186
1748367733203181417,-0.17300000000000001
1748367733210868120,-0.166
1748367733218554823,-0.159
1748367733226241526,-0.154
1748367733233928229,-0.14400000000000002
1748367733241614932,-0.137
1748367733249301635,-0.137
1748367733256988338,-0.139
1748367733264675041,-0.134
1748367733272361744,-0.134
1748367733280048447,-0.139
1748367733287735150,-0.139
1748367733295421853,-0.137
1748367733303108556,-0.137
1748367733310795259,-0.139
1748367733318481962,-0.14400000000000002
1748367733326168665,-0.14400000000000002
1748367733333855368,-0.132
1748367733341542071,-0.117
1748367733349228774,-0.11
1748367733356915477,-0.10200000000000001
1748367733364602180,-0.083
1748367733372288883,-0.068
1748367733379975586,-0.09
1748367733387662289,-0.124
1748367733395348992,-0.127
1748367733403035695,-0.107
1748367733410722398,-0.107
1748367733418409101,-0.107
1748367733426095804,-0.10200000000000001
1748367733433782507,-0.095
1748367733441469210,-0.097
1748367733449155913,-0.112
1748367733456842676,-0.156,89,688
1748367733464529797,-0.232
1748367733472216918,-0.139
1748367733479904039,0.423
1748367733487591160,1.2630000000000001
1748367733495278281,1.824
1748367733502965402,1.5350000000000001
1748367733510652523,0.269
1748367733518339644,-0.663
1748367733526026765,-0.369
1748367733533713886,-0.029
1748367733541401007,-0.188
1748367733549088128,-0.203
1748367733556775249,-0.093
1748367733564462370,-0.12
1748367733572149491,-0.129
1748367733579836612,-0.07100000000000001
1748367733587523733,-0.053
1748367733595210854,-0.051000000000000004
1748367733602897975,-0.019
1748367733610585096,0.004
1748367733618272217,0.022
1748367733625959338,0.051000000000000004
1748367733633646459,0.078
1748367733641333580,0.107
1748367733649020701,0.139
1748367733656707822,0.171
1748367733664394943,0.2
1748367733672082064,0.227
1748367733679769185,0.244
1748367733687456306,0.249
1748367733695143427,0.242
1748367733702830548,0.23
1748367733710517669,0.21
1748367733718204790,0.191
1748367733725891911,0.156
1748367733733579032,0.10200000000000001
1748367733741266153,0.031
1748367733748953274,-0.046
1748367733756640395,-0.129
1748367733764327516,-0.198
1748367733772014637,-0.249
1748367733779701758,-0.279
1748367733787388879,-0.291
1748367733795076000,-0.293
1748367733802763121,-0.289
1748367733810450242,-0.276
1748367733818137363,-0.264
1748367733825824484,-0.252
1748367733833511605,-0.24
1748367733841198726,-0.23
1748367733848885847,-0.222
1748367733856572968,-0.213
1748367733864260089,-0.20500000000000002
1748367733871947210,-0.2
1748367733879634331,-0.193
1748367733887321452,-0.188
1748367733895008573,-0.188
1748367733902695694,-0.188
1748367733910382815,-0.186
1748367733918069936,-0.183
1748367733925757057,-0.183
1748367733933444178,-0.183
1748367733941131299,-0.181
1748367733948818420,-0.178
1748367733956505541,-0.176
1748367733964192662,-0.178
1748367733971879783,-0.183
1748367733979566904,-0.183
1748367733987254025,-0.17300000000000001
1748367733994941146,-0.156
1748367734002628267,-0.146
1748367734010315388,-0.139
1748367734018002573,-0.124,88,689
1748367734025689625,-0.11,,650
1748367734033376677,-0.12
1748367734041063729,-0.154
1748367734048750781,-0.169
1748367734056437833,-0.154
1748367734064124885,-0.149
1748367734071811937,-0.149
1748367734079498989,-0.14200000000000002
1748367734087186041,-0.137
1748367734094873093,-0.134
1748367734102560145,-0.14400000000000002
1748367734110247197,-0.171
1748367734117934249,-0.247
1748367734125621301,-0.267
1748367734133308353,0.095
1748367734140995405,0.901
1748367734148682457,1.702
1748367734156369509,1.864
1748367734164056561,0.845
1748367734171743613,-0.502
1748367734179430665,-0.592
1748367734187117717,-0.068
1748367734194804769,-0.139
1748367734202491821,-0.28400000000000003
1748367734210178873,-0.154
1748367734217865925,-0.127
1748367734225552977,-0.176
1748367734233240029,-0.127
1748367734240927081,-0.085
1748367734248614133,-0.083
1748367734256301185,-0.056
1748367734263988237,-0.024
1748367734271675289,-0.007
1748367734279362341,0.022
1748367734287049393,0.056
1748367734294736445,0.088
1748367734302423497,0.117
1748367734310110549,0.154
1748367734317797601,0.188
1748367734325484653,0.218
1748367734333171705,0.242
1748367734340858757,0.254
1748367734348545809,0.249
1748367734356232861,0.24
1748367734363919913,0.227
1748367734371606965,0.20500000000000002
1748367734379294017,0.171
1748367734386981069,0.12
1748367734394668121,0.048
1748367734402355173,-0.034
1748367734410042225,-0.117
1748367734417729277,-0.198
1748367734425416329,-0.259
1748367734433103381,-0.296
1748367734440790433,-0.313
1748367734448477485,-0.318
1748367734456164537,-0.315
1748367734463851589,-0.306
1748367734471538641,-0.293
1748367734479225693,-0.279
1748367734486912745,-0.264
1748367734494599797,-0.252
1748367734502286849,-0.23700000000000002
1748367734509973901,-0.227
1748367734517660953,-0.222
1748367734525348005,-0.215
1748367734533035057,-0.21
1748367734540722109,-0.20800000000000002
1748367734548409161,-0.20500000000000002
1748367734556096213,-0.203
1748367734563783265,-0.2
1748367734571470317,-0.198
1748367734579157387,-0.195
1748367734586844160,-0.193
1748367734594530933,-0.188
1748367734602217706,-0.186
1748367734609904479,-0.186
1748367734617591252,-0.183
1748367734625278025,-0.176
1748367734632964798,-0.171
1748367734640651571,-0.169
1748367734648338344,-0.171
1748367734656025117,-0.176
1748367734663711890,-0.176
1748367734671398663,-0.161
1748367734679085436,-0.14200000000000002
1748367734686772209,-0.129
1748367734694458982,-0.122
1748367734702145755,-0.105
1748367734709832528,-0.09
1748367734717519301,-0.107
1748367734725206074,-0.14400000000000002
1748367734732892847,-0.151
1748367734740579620,-0.137
1748367734748266393,-0.134
1748367734755953166,-0.132
1748367734763639939,-0.127
1748367734771326712,-0.122
1748367734779013485,-0.117
1748367734786700258,-0.127
1748367734794387031,-0.161
1748367734802073804,-0.242
1748367734809760577,-0.271
1748367734817447350,0.058
1748367734825134123,0.872
1748367734832820896,1.766
1748367734840507669,2.035
1748367734848194442,1.006
1748367734855881215,-0.46
1748367734863567988,-0.622
1748367734871254761,-0.08
1748367734878941534,-0.134
1748367734886628307,-0.281
1748367734894315080,-0.151
1748367734902001853,-0.124
1748367734909688626,-0.17300000000000001
1748367734917375399,-0.127
1748367734925062172,-0.085
1748367734932748945,-0.083
1748367734940435718,-0.058
1748367734948122491,-0.024
1748367734955809264,0.0
1748367734963496037,0.024
1748367734971182810,0.058
1748367734978869583,0.09
1748367734986556356,0.117
1748367734994243129,0.149
1748367735001929902,0.186
1748367735009616675,0.215
1748367735017303448,0.23700000000000002
1748367735024990221,0.252
1748367735032676994,0.254
1748367735040363767,0.247
1748367735048050540,0.232
1748367735055737313,0.215
1748367735063424086,0.188
1748367735071110859,0.146
1748367735078797632,0.08
1748367735086484405,0.002
1748367735094171178,-0.08
1748367735101857951,-0.156
1748367735109544724,-0.225
1748367735117231497,-0.269
1748367735124918270,-0.293
1748367735132605043,-0.303
1748367735140291849,-0.303,89,657
1748367735147978970,-0.289
1748367735155666091,-0.264
1748367735163353212,-0.259
1748367735171040333,-0.264
1748367735178727454,-0.247
1748367735186414575,-0.225
1748367735194101696,-0.20800000000000002
1748367735201788817,-0.178
1748367735209475938,-0.166
1748367735217163059,-0.21
1748367735224850180,-0.232
1748367735232537301,-0.2
1748367735240224422,-0.164
1748367735247911543,-0.137
1748367735255598664,-0.14200000000000002
1748367735263285785,-0.166
1748367735270972906,-0.193
1748367735278660027,-0.178
1748367735286347148,-0.122
1748367735294034269,-0.127
1748367735301721390,-0.061
1748367735309408511,0.026000000000000002
1748367735317095632,-0.139
1748367735324782753,-0.22
1748367735332469874,-0.048
1748367735340156995,-0.07100000000000001
1748367735347844116,-0.181
1748367735355531237,-0.154
1748367735363218358,-0.178
1748367735370905479,-0.171
1748367735378592600,-0.105
1748367735386279721,-0.122
1748367735393966842,-0.063
1748367735401653963,0.041
1748367735409341084,-0.009000000000000001
1748367735417028205,-0.195
1748367735424715326,-0.252
1748367735432402447,-0.09
1748367735440089568,0.048
1748367735447776689,-0.034
1748367735455463810,-0.32
1748367735463150931,-0.306
1748367735470838052,-0.009000000000000001
1748367735478525173,0.0
1748367735486212294,-0.1
1748367735493899415,-0.127
1748367735501586536,-0.262
1748367735509273657,-0.078
1748367735516960778,0.793
1748367735524647899,1.7850000000000001
1748367735532335020,2.1550000000000002
1748367735540022141,1.168
1748367735547709262,-0.387
1748367735555396383,-0.58
1748367735563083504,-0.105
1748367735570770625,-0.181
1748367735578457746,-0.23500000000000001
1748367735586144867,-0.078
1748367735593831988,-0.066
1748367735601519109,-0.198
1748367735609206230,-0.107
1748367735616893351,0.041
1748367735624580472,-0.164
1748367735632267593,-0.166
1748367735639954714,0.137
1748367735647641835,0.097
1748367735655328956,-0.088
1748367735663016077,0.0
1748367735670703198,0.23700000000000002
1748367735678390319,0.225
1748367735686077440,0.044
1748367735693764561,0.171
1748367735701451750,0.36
1748367735709138871,0.267
1748367735716825992,0.252
1748367735724513113,0.404
1748367735732200234,0.271
1748367735739887355,0.115
1748367735747574476,0.289
1748367735755261597,0.355
1748367735762948718,0.257
1748367735770635839,0.166
1748367735778322960,0.068
1748367735786010081,0.056
1748367735793697202,-0.122
1748367735801384323,-0.362
1748367735809071444,-0.242
1748367735816758565,-0.112
1748367735824445686,-0.259
1748367735832132807,-0.35000000000000003
1748367735839819928,-0.22
1748367735847507049,-0.191
1748367735855194170,-0.28400000000000003
1748367735862881291,-0.22
1748367735870568412,-0.164
1748367735878255533,-0.191
1748367735885942654,-0.156
1748367735893629775,-0.139
1748367735901316896,-0.198
1748367735909004017,-0.198
1748367735916691138,-0.151
1748367735924378259,-0.156
1748367735932065380,-0.129
1748367735939752501,-0.124
1748367735947439622,-0.166
1748367735955126743,-0.127
1748367735962813864,-0.117
1748367735970500985,-0.151
1748367735978188106,-0.117
1748367735985875227,-0.105
1748367735993562348,-0.134
1748367736001249469,-0.12
1748367736008936590,-0.115
1748367736016623711,-0.14200000000000002
1748367736024310832,-0.1
1748367736031997953,-0.08
1748367736039685074,-0.105
1748367736047372195,-0.056
1748367736055059316,-0.026000000000000002
1748367736062746437,-0.019
1748367736070433558,-0.007
1748367736078120679,-0.095
1748367736085807800,-0.137
1748367736093494921,-0.083
1748367736101182042,-0.09
1748367736108869163,-0.115
1748367736116556284,-0.105
1748367736124243405,-0.073
1748367736131930526,-0.068
1748367736139617647,-0.107
1748367736147304768,-0.11
1748367736154991889,-0.137
1748367736162679010,-0.252
1748367736170366131,-0.122
1748367736178053252,0.587
1748367736185740373,1.543
1748367736193427494,2.069
1748367736201114615,1.504
1748367736208801736,-0.004
1748367736216488857,-0.737
1748367736224175978,-0.24
1748367736231863099,-0.026000000000000002
1748367736239550220,-0.254
1748367736247237341,-0.183
1748367736254924462,-0.058
1748367736262611647,-0.115,89,656
1748367736270298559,-0.12,,685
1748367736277985471,-0.068
1748367736285672383,-0.056
1748367736293359295,-0.024
1748367736301046207,0.014
1748367736308733119,0.036000000000000004
1748367736316420031,0.053
1748367736324106943,0.085
1748367736331793855,0.10200000000000001
1748367736339480767,0.122
1748367736347167679,0.191
1748367736354854591,0.249
1748367736362541503,0.244
1748367736370228415,0.244
1748367736377915327,0.28600000000000003
1748367736385602239,0.296
1748367736393289151,0.276
1748367736400976063,0.279
1748367736408662975,0.257
1748367736416349887,0.188
1748367736424036799,0.149
1748367736431723711,0.139
1748367736439410623,0.078
1748367736447097535,-0.019
1748367736454784447,-0.115
1748367736462471359,-0.193
1748367736470158271,-0.24
1748367736477845183,-0.274
1748367736485532095,-0.313
1748367736493219007,-0.315
1748367736500905919,-0.291
1748367736508592831,-0.259
1748367736516279743,-0.24
1748367736523966655,-0.252
1748367736531653567,-0.244
1748367736539340479,-0.21
1748367736547027391,-0.20800000000000002
1748367736554714303,-0.22
1748367736562401215,-0.193
1748367736570088127,-0.164
1748367736577775039,-0.195
1748367736585461951,-0.21
1748367736593148863,-0.166
1748367736600835775,-0.166
1748367736608522687,-0.195
1748367736616209599,-0.17300000000000001
1748367736623896511,-0.137
1748367736631583423,-0.156
1748367736639270335,-0.169
1748367736646957247,-0.132
1748367736654644159,-0.124
1748367736662331071,-0.159
1748367736670017983,-0.166
1748367736677704895,-0.129
1748367736685391807,-0.124
1748367736693078719,-0.161
1748367736700765631,-0.137
1748367736708452543,-0.085
1748367736716139455,-0.093
1748367736723826367,-0.107
1748367736731513279,-0.073
1748367736739200191,-0.056
1748367736746887103,-0.10200000000000001
1748367736754574015,-0.14200000000000002
1748367736762260927,-0.129
1748367736769947839,-0.10200000000000001
1748367736777634751,-0.10200000000000001
1748367736785321663,-0.12
1748367736793008575,-0.105
1748367736800695487,-0.097
1748367736808382399,-0.11
1748367736816069311,-0.127
1748367736823756287,-0.186
1748367736831443199,-0.274
1748367736839130111,-0.161
1748367736846817023,0.453
1748367736854503935,1.3980000000000001
1748367736862190847,2.045
1748367736869877759,1.604
1748367736877564671,0.115
1748367736885251583,-0.722
1748367736892938495,-0.301
1748367736900625407,-0.053
1748367736908312319,-0.244
1748367736915999231,-0.195
1748367736923686143,-0.12
1748367736931373055,-0.166
1748367736939059967,-0.127
1748367736946746879,-0.068
1748367736954433791,-0.085
1748367736962120703,-0.073
1748367736969807615,-0.009000000000000001
1748367736977494527,0.012
1748367736985181439,0.007
1748367736992868351,0.058
1748367737000555263,0.112
1748367737008242175,0.115
1748367737015929087,0.139
1748367737023615999,0.193
1748367737031302911,0.22
1748367737038989823,0.247
1748367737046676735,0.289
1748367737054363647,0.296
1748367737062050559,0.267
1748367737069737471,0.247
1748367737077424383,0.247
1748367737085111295,0.225
1748367737092798207,0.17300000000000001
1748367737100485119,0.107
1748367737108172031,0.041
1748367737115858943,-0.041
1748367737123545855,-0.154
1748367737131232767,-0.24
1748367737138919679,-0.276
1748367737146606591,-0.303
1748367737154293503,-0.338
1748367737161980415,-0.34700000000000003
1748367737169667327,-0.33
1748367737177354239,-0.315
1748367737185041151,-0.308
1748367737192728063,-0.291
1748367737200414975,-0.269
1748367737208101887,-0.259
1748367737215788799,-0.252
1748367737223475711,-0.24
1748367737231162623,-0.23500000000000001
1748367737238849535,-0.23500000000000001
1748367737246536447,-0.225
1748367737254223359,-0.20500000000000002
1748367737261910271,-0.2
1748367737269597183,-0.20500000000000002
1748367737277284095,-0.198
1748367737284971007,-0.188
1748367737292657919,-0.198
1748367737300344831,-0.213
1748367737308031743,-0.2
1748367737315718655,-0.181
1748367737323405567,-0.17300000000000001
1748367737331092479,-0.183
1748367737338779391,-0.2
1748367737346466303,-0.191
1748367737354153215,-0.176
1748367737361840127,-0.169
1748367737369527039,-0.154
1748367737377213951,-0.137
1748367737384900923,-0.12,89,692
1748367737392588044,-0.117
1748367737400275165,-0.146
1748367737407962286,-0.178
1748367737415649407,-0.17300000000000001
1748367737423336528,-0.151
1748367737431023649,-0.164
1748367737438710770,-0.171
1748367737446397891,-0.14400000000000002
1748367737454085012,-0.137
1748367737461772133,-0.156
1748367737469459254,-0.164
1748367737477146375,-0.203
1748367737484833496,-0.301
1748367737492520617,-0.2
1748367737500207738,0.443
1748367737507894859,1.383
1748367737515581980,1.942
1748367737523269101,1.496
1748367737530956222,0.139
1748367737538643343,-0.678
1748367737546330464,-0.342
1748367737554017585,-0.093
1748367737561704706,-0.252
1748367737569391827,-0.20500000000000002
1748367737577078948,-0.105
1748367737584766069,-0.14400000000000002
1748367737592453190,-0.129
1748367737600140311,-0.08
1748367737607827432,-0.073
1748367737615514553,-0.048
1748367737623201674,-0.009000000000000001
1748367737630888795,0.012
1748367737638575916,0.036000000000000004
1748367737646263037,0.068
1748367737653950158,0.097
1748367737661637279,0.134
1748367737669324400,0.183
1748367737677011521,0.222
1748367737684698642,0.249
1748367737692385763,0.281
1748367737700072884,0.296
1748367737707760005,0.28600000000000003
1748367737715447126,0.279
1748367737723134247,0.269
1748367737730821368,0.242
1748367737738508489,0.213
1748367737746195610,0.176
1748367737753882731,0.10200000000000001
1748367737761569852,0.002
1748367737769256973,-0.083
1748367737776944094,-0.156
1748367737784631215,-0.232
1748367737792318336,-0.289
1748367737800005457,-0.318
1748367737807692578,-0.325
1748367737815379699,-0.323
1748367737823066820,-0.32
1748367737830753941,-0.311
1748367737838441062,-0.296
1748367737846128183,-0.28400000000000003
1748367737853815304,-0.274
1748367737861502425,-0.262
1748367737869189546,-0.247
1748367737876876667,-0.24
1748367737884563788,-0.232
1748367737892250909,-0.218
1748367737899938030,-0.21
1748367737907625151,-0.213
1748367737915312272,-0.20500000000000002
1748367737922999393,-0.2
1748367737930686514,-0.198
1748367737938373635,-0.193
1748367737946060820,-0.195
1748367737953747941,-0.193
1748367737961435062,-0.188
1748367737969122183,-0.193
1748367737976809304,-0.193
1748367737984496425,-0.186
1748367737992183546,-0.188
1748367737999870667,-0.2
1748367738007557788,-0.198
1748367738015244909,-0.178
1748367738022932030,-0.161
1748367738030619151,-0.159
1748367738038306272,-0.149
1748367738045993393,-0.122
1748367738053680514,-0.122
1748367738061367635,-0.156
1748367738069054756,-0.17300000000000001
1748367738076741877,-0.161
1748367738084428998,-0.159
1748367738092116119,-0.166
1748367738099803240,-0.156
1748367738107490361,-0.146
1748367738115177482,-0.149
1748367738122864603,-0.14200000000000002
1748367738130551724,-0.159
1748367738138238845,-0.23
1748367738145925966,-0.301
1748367738153613087,-0.124
1748367738161300208,0.543
1748367738168987329,1.418
1748367738176674450,1.92
1748367738184361571,1.415
1748367738192048692,-0.004
1748367738199735813,-0.734
1748367738207422934,-0.281
1748367738215110055,-0.056
1748367738222797176,-0.269
1748367738230484297,-0.23
1748367738238171418,-0.12
1748367738245858539,-0.164
1748367738253545660,-0.161
1748367738261232781,-0.105
1748367738268919902,-0.088
1748367738276607023,-0.078
1748367738284294144,-0.048
1748367738291981265,-0.024
1748367738299668386,0.002
1748367738307355507,0.034
1748367738315042628,0.061
1748367738322729749,0.09
1748367738330416870,0.124
1748367738338103991,0.161
1748367738345791112,0.193
1748367738353478233,0.22
1748367738361165354,0.23700000000000002
1748367738368852475,0.24
1748367738376539596,0.23500000000000001
1748367738384226717,0.227
1748367738391913838,0.20800000000000002
1748367738399600959,0.178
1748367738407288080,0.14400000000000002
1748367738414975201,0.085
1748367738422662322,-0.004
1748367738430349443,-0.093
1748367738438036564,-0.161
1748367738445723685,-0.225
1748367738453410806,-0.28400000000000003
1748367738461097927,-0.313
1748367738468785048,-0.315
1748367738476472169,-0.315
1748367738484159290,-0.308
1748367738491846411,-0.298
1748367738499533532,-0.281
1748367738507220717,-0.267,89,663
1748367738514907838,-0.262,,670
1748367738522594959,-0.249
1748367738530282080,-0.227
1748367738537969201,-0.218
1748367738545656322,-0.22
1748367738553343443,-0.21
1748367738561030564,-0.203
1748367738568717685,-0.203
1748367738576404806,-0.203
1748367738584091927,-0.2
1748367738591779048,-0.195
1748367738599466169,-0.193
1748367738607153290,-0.195
1748367738614840411,-0.193
1748367738622527532,-0.186
1748367738630214653,-0.181
1748367738637901774,-0.181
1748367738645588895,-0.181
1748367738653276016,-0.183
1748367738660963137,-0.181
1748367738668650258,-0.178
1748367738676337379,-0.176
1748367738684024500,-0.156
1748367738691711621,-0.137
1748367738699398742,-0.132
1748367738707085863,-0.129
1748367738714772984,-0.11
1748367738722460105,-0.105
1748367738730147226,-0.139
1748367738737834347,-0.161
1748367738745521468,-0.149
1748367738753208589,-0.14200000000000002
1748367738760895710,-0.139
1748367738768582831,-0.134
1748367738776269952,-0.134
1748367738783957073,-0.132
1748367738791644194,-0.129
1748367738799331315,-0.151
1748367738807018436,-0.225
1748367738814705557,-0.303
1748367738822392678,-0.115
1748367738830079799,0.6
1748367738837766920,1.553
1748367738845454041,2.091
1748367738853141162,1.472
1748367738860828283,-0.068
1748367738868515404,-0.734
1748367738876202525,-0.23
1748367738883889646,-0.058
1748367738891576767,-0.279
1748367738899263888,-0.218
1748367738906951009,-0.12
1748367738914638130,-0.171
1748367738922325251,-0.156
1748367738930012372,-0.097
1748367738937699493,-0.09
1748367738945386614,-0.08
1748367738953073735,-0.041
1748367738960760856,-0.017
1748367738968447977,0.004
1748367738976135098,0.036000000000000004
1748367738983822219,0.07100000000000001
1748367738991509340,0.105
1748367738999196461,0.139
1748367739006883582,0.178
1748367739014570703,0.215
1748367739022257824,0.23700000000000002
1748367739029944945,0.252
1748367739037632066,0.259
1748367739045319187,0.257
1748367739053006308,0.244
1748367739060693429,0.225
1748367739068380618,0.198,89,653
1748367739076067739,0.159
1748367739083754860,0.095
1748367739091441981,0.009000000000000001
1748367739099129102,-0.08
1748367739106816223,-0.169
1748367739114503344,-0.242
1748367739122190465,-0.28600000000000003
1748367739129877586,-0.313
1748367739137564707,-0.325
1748367739145251828,-0.323
1748367739152938949,-0.313
1748367739160626070,-0.303
1748367739168313191,-0.293
1748367739176000312,-0.276
1748367739183687433,-0.262
1748367739191374554,-0.252
1748367739199061675,-0.23700000000000002
1748367739206748796,-0.225
1748367739214435917,-0.222
1748367739222123038,-0.218
1748367739229810159,-0.21
1748367739237497280,-0.20500000000000002
1748367739245184401,-0.203
1748367739252871522,-0.2
1748367739260558643,-0.2
1748367739268245764,-0.198
1748367739275932885,-0.191
1748367739283620006,-0.188
1748367739291307127,-0.188
1748367739298994248,-0.188
1748367739306681369,-0.186
1748367739314368490,-0.178
1748367739322055611,-0.171
1748367739329742732,-0.171
1748367739337429853,-0.171
1748367739345116974,-0.17300000000000001
1748367739352804095,-0.176
1748367739360491216,-0.171
1748367739368178337,-0.156
1748367739375865458,-0.134
1748367739383552579,-0.12
1748367739391239700,-0.112
1748367739398926821,-0.097
1748367739406613942,-0.093
1748367739414301063,-0.127
1748367739421988184,-0.156
1748367739429675305,-0.14400000000000002
1748367739437362426,-0.129
1748367739445049547,-0.134
1748367739452736668,-0.132
1748367739460423789,-0.122
1748367739468110910,-0.12
1748367739475798031,-0.12
1748367739483485152,-0.129
1748367739491172273,-0.181
1748367739498859394,-0.279
1748367739506546515,-0.225
1748367739514233636,0.306
1748367739521920757,1.229
1748367739529607878,2.008
1748367739537294999,1.859
1748367739544982120,0.45
1748367739552669241,-0.6950000000000001
1748367739560356362,-0.406
1748367739568043483,-0.012
1748367739575730604,-0.222
1748367739583417725,-0.257
1748367739591104846,-0.115
1748367739598791967,-0.14200000000000002
1748367739606479088,-0.161
1748367739614166209,-0.1
1748367739621853330,-0.078
1748367739629540515,-0.075
1748367739637227427,-0.048
1748367739644914339,-0.017
1748367739652601251,0.007
1748367739660288163,0.034
1748367739667975075,0.07100000000000001
1748367739675661987,0.112
1748367739683348899,0.146
1748367739691035811,0.171
1748367739698722723,0.203
1748367739706409635,0.23700000000000002
1748367739714096547,0.257
1748367739721783459,0.267
1748367739729470371,0.269
1748367739737157283,0.259
1748367739744844195,0.244
1748367739752531107,0.227
1748367739760218019,0.183
1748367739767904931,0.12
1748367739775591843,0.051000000000000004
1748367739783278755,-0.031
1748367739790965667,-0.12
1748367739798652579,-0.191
1748367739806339491,-0.252
1748367739814026403,-0.291
1748367739821713315,-0.308
1748367739829400227,-0.32
1748367739837087139,-0.325
1748367739844774051,-0.306
1748367739852460963,-0.289
1748367739860147875,-0.276
1748367739867834787,-0.262
1748367739875521699,-0.249
1748367739883208611,-0.23700000000000002
1748367739890895523,-0.222
1748367739898582435,-0.215
1748367739906269347,-0.22
1748367739913956259,-0.22
1748367739921643171,-0.20500000000000002
1748367739929330083,-0.195
1748367739937016995,-0.20500000000000002
1748367739944703907,-0.20800000000000002
1748367739952390819,-0.198
1748367739960077731,-0.195
1748367739967764643,-0.198
1748367739975451555,-0.191
1748367739983138467,-0.186
1748367739990825379,-0.186
1748367739998512291,-0.181
1748367740006199203,-0.171
1748367740013886115,-0.169
1748367740021573027,-0.176
1748367740029259939,-0.183
1748367740036946851,-0.183
1748367740044633763,-0.169
1748367740052320675,-0.151
1748367740060007587,-0.137
1748367740067694499,-0.124
1748367740075381411,-0.117
1748367740083068323,-0.112
1748367740090755235,-0.105
1748367740098442147,-0.127
1748367740106129059,-0.159
1748367740113815971,-0.151
1748367740121502883,-0.132
1748367740129189795,-0.134
1748367740136876707,-0.137
1748367740144563619,-0.127
1748367740152250531,-0.122
1748367740159937443,-0.122
1748367740167624355,-0.139
1748367740175311267,-0.176
1748367740182998179,-0.252
1748367740190685155,-0.244,90,660
1748367740198372067,0.159,,668
1748367740206058979,0.982
1748367740213745891,1.707
1748367740221432803,1.724
1748367740229119715,0.656
1748367740236806627,-0.546
1748367740244493539,-0.516
1748367740252180451,-0.044
1748367740259867363,-0.139
1748367740267554275,-0.23700000000000002
1748367740275241187,-0.107
1748367740282928099,-0.088
1748367740290615011,-0.122
1748367740298301923,-0.083
1748367740305988835,-0.051000000000000004
1748367740313675747,-0.041
1748367740321362659,-0.017
1748367740329049571,0.022
1748367740336736483,0.048
1748367740344423395,0.07100000000000001
1748367740352110307,0.105
1748367740359797219,0.137
1748367740367484131,0.17300000000000001
1748367740375171043,0.218
1748367740382857955,0.252
1748367740390544867,0.269
1748367740398231779,0.28400000000000003
1748367740405918691,0.311
1748367740413605603,0.306
1748367740421292515,0.279
1748367740428979427,0.271
1748367740436666339,0.247
1748367740444353251,0.20500000000000002
1748367740452040163,0.169
1748367740459727075,0.095
1748367740467413987,-0.004
1748367740475100899,-0.105
1748367740482787811,-0.181
1748367740490474723,-0.232
1748367740498161635,-0.271
1748367740505848547,-0.293
1748367740513535459,-0.306
1748367740521222371,-0.301
1748367740528909283,-0.281
1748367740536596195,-0.271
1748367740544283107,-0.279
1748367740551970019,-0.267
1748367740559656931,-0.24
1748367740567343843,-0.227
1748367740575030755,-0.213
1748367740582717667,-0.20800000000000002
1748367740590404579,-0.21
1748367740598091491,-0.198
1748367740605778403,-0.195
1748367740613465315,-0.203
1748367740621152227,-0.198
1748367740628839139,-0.183
1748367740636526051,-0.178
1748367740644212963,-0.183
1748367740651899875,-0.188
1748367740659586787,-0.181
1748367740667273699,-0.181
1748367740674960611,-0.191
1748367740682647523,-0.183
1748367740690334435,-0.161
1748367740698021347,-0.169
1748367740705708259,-0.186
1748367740713395171,-0.181
1748367740721082083,-0.164
1748367740728768995,-0.14400000000000002
1748367740736455907,-0.127
1748367740744142819,-0.124
1748367740751829791,-0.117
1748367740759516912,-0.10200000000000001
1748367740767204033,-0.124
1748367740774891154,-0.166
1748367740782578275,-0.159
1748367740790265396,-0.137
1748367740797952517,-0.146
1748367740805639638,-0.14400000000000002
1748367740813326759,-0.134
1748367740821013880,-0.139
1748367740828701001,-0.129
1748367740836388122,-0.127
1748367740844075243,-0.161
1748367740851762364,-0.24
1748367740859449485,-0.244
1748367740867136606,0.176
1748367740874823727,1.0010000000000001
1748367740882510848,1.575
1748367740890197969,1.437
1748367740897885090,0.514
1748367740905572211,-0.489
1748367740913259332,-0.509
1748367740920946453,-0.1
1748367740928633574,-0.134
1748367740936320695,-0.2
1748367740944007816,-0.088
1748367740951694937,-0.085
1748367740959382058,-0.122
1748367740967069179,-0.068
1748367740974756300,-0.029
1748367740982443421,-0.036000000000000004
1748367740990130542,-0.017
1748367740997817663,0.022
1748367741005504784,0.048
1748367741013191905,0.08
1748367741020879026,0.115
1748367741028566147,0.14400000000000002
1748367741036253268,0.17300000000000001
1748367741043940389,0.20500000000000002
1748367741051627510,0.24
1748367741059314631,0.274
1748367741067001752,0.291
1748367741074688873,0.291
1748367741082375994,0.279
1748367741090063115,0.269
1748367741097750236,0.242
1748367741105437357,0.21
1748367741113124478,0.188
1748367741120811599,0.134
1748367741128498720,0.041
1748367741136185841,-0.036000000000000004
1748367741143872962,-0.1
1748367741151560083,-0.183
1748367741159247204,-0.257
1748367741166934325,-0.28600000000000003
1748367741174621446,-0.296
1748367741182308567,-0.306
1748367741189995688,-0.308
1748367741197682809,-0.296
1748367741205369930,-0.281
1748367741213057051,-0.276
1748367741220744172,-0.262
1748367741228431293,-0.24
1748367741236118414,-0.232
1748367741243805535,-0.23500000000000001
1748367741251492656,-0.218
1748367741259179777,-0.203
1748367741266866898,-0.203
1748367741274554019,-0.2
1748367741282241140,-0.195
1748367741289928261,-0.188
1748367741297615382,-0.183
1748367741305302503,-0.186
1748367741312989688,-0.186,90,687
1748367741320676391,-0.181
1748367741328363094,-0.181
1748367741336049797,-0.181
1748367741343736500,-0.183
1748367741351423203,-0.188
1748367741359109906,-0.186
1748367741366796609,-0.183
1748367741374483312,-0.188
1748367741382170015,-0.188
1748367741389856718,-0.176
1748367741397543421,-0.161
1748367741405230124,-0.151
1748367741412916827,-0.139
1748367741420603530,-0.122
1748367741428290233,-0.122
1748367741435976936,-0.146
1748367741443663639,-0.169
1748367741451350342,-0.171
1748367741459037045,-0.164
1748367741466723748,-0.159
1748367741474410451,-0.156
1748367741482097154,-0.154
1748367741489783857,-0.149
1748367741497470560,-0.146
1748367741505157263,-0.156
1748367741512843966,-0.188
1748367741520530669,-0.257
1748367741528217372,-0.2
1748367741535904075,0.279
1748367741543590778,1.014
1748367741551277481,1.504
1748367741558964184,1.379
1748367741566650887,0.374
1748367741574337590,-0.624
1748367741582024293,-0.482
1748367741589710996,-0.051000000000000004
1748367741597397699,-0.161
1748367741605084402,-0.23700000000000002
1748367741612771105,-0.124
1748367741620457808,-0.122
1748367741628144511,-0.14400000000000002
1748367741635831214,-0.095
1748367741643517917,-0.068
1748367741651204620,-0.066
1748367741658891323,-0.041
1748367741666578026,-0.017
1748367741674264729,0.0
1748367741681951432,0.026000000000000002
1748367741689638135,0.053
1748367741697324838,0.078
1748367741705011541,0.107
1748367741712698244,0.139
1748367741720384947,0.164
1748367741728071650,0.186
1748367741735758353,0.2
1748367741743445056,0.20800000000000002
1748367741751131759,0.2
1748367741758818462,0.186
1748367741766505165,0.169
1748367741774191868,0.146
1748367741781878571,0.117
1748367741789565274,0.073
1748367741797251977,0.007
1748367741804938680,-0.068
1748367741812625383,-0.137
1748367741820312086,-0.20500000000000002
1748367741827998789,-0.262
1748367741835685492,-0.291
1748367741843372195,-0.303
1748367741851058898,-0.306
1748367741858745601,-0.303
1748367741866432304,-0.289
1748367741874119067,-0.274
1748367741881806188,-0.264
1748367741889493309,-0.252
1748367741897180430,-0.24
1748367741904867551,-0.232
1748367741912554672,-0.225
1748367741920241793,-0.218
1748367741927928914,-0.21
1748367741935616035,-0.21
1748367741943303156,-0.20500000000000002
1748367741950990277,-0.203
1748367741958677398,-0.2
1748367741966364519,-0.2
1748367741974051640,-0.198
1748367741981738761,-0.198
1748367741989425882,-0.198
1748367741997113003,-0.195
1748367742004800124,-0.193
1748367742012487245,-0.191
1748367742020174366,-0.188
1748367742027861487,-0.181
1748367742035548608,-0.181
1748367742043235729,-0.188
1748367742050922850,-0.191
1748367742058609971,-0.181
1748367742066297092,-0.161
1748367742073984213,-0.149
1748367742081671334,-0.146
1748367742089358455,-0.134
1748367742097045576,-0.117
1748367742104732697,-0.117
1748367742112419818,-0.14400000000000002
1748367742120106939,-0.169
1748367742127794060,-0.161
1748367742135481181,-0.149
1748367742143168302,-0.146
1748367742150855423,-0.14200000000000002
1748367742158542544,-0.137
1748367742166229665,-0.134
1748367742173916786,-0.137
1748367742181603907,-0.151
1748367742189291028,-0.2
1748367742196978149,-0.267
1748367742204665270,-0.11
1748367742212352391,0.497
1748367742220039512,1.2730000000000001
1748367742227726633,1.704
1748367742235413754,1.229
1748367742243100875,-0.075
1748367742250787996,-0.705
1748367742258475117,-0.23500000000000001
1748367742266162238,-0.024
1748367742273849359,-0.23700000000000002
1748367742281536480,-0.198
1748367742289223601,-0.095
1748367742296910722,-0.139
1748367742304597843,-0.137
1748367742312284964,-0.078
1748367742319972085,-0.068
1748367742327659206,-0.056
1748367742335346327,-0.022
1748367742343033448,0.0
1748367742350720569,0.019
1748367742358407690,0.046
1748367742366094811,0.075
1748367742373781932,0.10200000000000001
1748367742381469053,0.129
1748367742389156174,0.161
1748367742396843295,0.188
1748367742404530416,0.20800000000000002
1748367742412217537,0.218
1748367742419904658,0.222
1748367742427591779,0.215
1748367742435278968,0.2,89,686
1748367742442966089,0.183,,668
1748367742450653210,0.161
1748367742458340331,0.127
1748367742466027452,0.073
1748367742473714573,0.0
1748367742481401694,-0.078
1748367742489088815,-0.154
1748367742496775936,-0.22
1748367742504463057,-0.264
1748367742512150178,-0.289
1748367742519837299,-0.301
1748367742527524420,-0.301
1748367742535211541,-0.293
1748367742542898662,-0.28600000000000003
1748367742550585783,-0.274
1748367742558272904,-0.259
1748367742565960025,-0.249
1748367742573647146,-0.23700000000000002
1748367742581334267,-0.23
1748367742589021388,-0.222
1748367742596708509,-0.218
1748367742604395630,-0.213
1748367742612082751,-0.20800000000000002
1748367742619769872,-0.20500000000000002
1748367742627456993,-0.203
1748367742635144114,-0.2
1748367742642831235,-0.198
1748367742650518356,-0.195
1748367742658205477,-0.193
1748367742665892598,-0.191
1748367742673579719,-0.188
1748367742681266840,-0.186
1748367742688953961,-0.183
1748367742696641082,-0.178
1748367742704328203,-0.176
1748367742712015324,-0.17300000000000001
1748367742719702445,-0.178
1748367742727389566,-0.183
1748367742735076687,-0.176
1748367742742763808,-0.156
1748367742750450929,-0.139
1748367742758138050,-0.132
1748367742765825171,-0.122
1748367742773512292,-0.105
1748367742781199413,-0.105
1748367742788886534,-0.134
1748367742796573655,-0.159
1748367742804260776,-0.151
1748367742811947897,-0.139
1748367742819635018,-0.139
1748367742827322139,-0.137
1748367742835009260,-0.129
1748367742842696381,-0.127
1748367742850383502,-0.129
1748367742858070623,-0.14200000000000002
1748367742865757744,-0.191
1748367742873444865,-0.267
1748367742881131986,-0.159
1748367742888819107,0.40900000000000003
1748367742896506228,1.2510000000000001
1748367742904193349,1.805
1748367742911880470,1.423
1748367742919567591,0.078
1748367742927254712,-0.717
1748367742934941833,-0.298
1748367742942628954,-0.019
1748367742950316075,-0.225
1748367742958003196,-0.21
1748367742965690317,-0.097
1748367742973377438,-0.137
1748367742981064559,-0.14200000000000002
1748367742988751680,-0.083
1748367742996438865,-0.068,89,669
1748367743004125568,-0.063
1748367743011812271,-0.029
1748367743019498974,-0.002
1748367743027185677,0.017
1748367743034872380,0.044
1748367743042559083,0.073
1748367743050245786,0.097
1748367743057932489,0.129
1748367743065619192,0.159
1748367743073305895,0.183
1748367743080992598,0.20800000000000002
1748367743088679301,0.222
1748367743096366004,0.222
1748367743104052707,0.215
1748367743111739410,0.203
1748367743119426113,0.186
1748367743127112816,0.164
1748367743134799519,0.132
1748367743142486222,0.083
1748367743150172925,0.017
1748367743157859628,-0.056
1748367743165546331,-0.132
1748367743173233034,-0.2
1748367743180919737,-0.252
1748367743188606440,-0.279
1748367743196293143,-0.291
1748367743203979846,-0.293
1748367743211666549,-0.289
1748367743219353252,-0.274
1748367743227039955,-0.259
1748367743234726658,-0.252
1748367743242413361,-0.24
1748367743250100064,-0.227
1748367743257786767,-0.218
1748367743265473470,-0.213
1748367743273160173,-0.20800000000000002
1748367743280846876,-0.20500000000000002
1748367743288533579,-0.2
1748367743296220282,-0.198
1748367743303906985,-0.198
1748367743311593688,-0.195
1748367743319280391,-0.193
1748367743326967094,-0.193
1748367743334653797,-0.193
1748367743342340500,-0.191
1748367743350027203,-0.186
1748367743357713906,-0.183
1748367743365400609,-0.181
1748367743373087312,-0.178
1748367743380774015,-0.176
1748367743388460718,-0.171
1748367743396147421,-0.166
1748367743403834124,-0.17300000000000001
1748367743411520827,-0.176
1748367743419207530,-0.166
1748367743426894233,-0.146
1748367743434580936,-0.132
1748367743442267639,-0.124
1748367743449954342,-0.117
1748367743457641045,-0.1
1748367743465327748,-0.1
1748367743473014451,-0.134
1748367743480701154,-0.156
1748367743488387857,-0.146
1748367743496074560,-0.137
1748367743503761263,-0.134
1748367743511447966,-0.132
1748367743519134669,-0.127
1748367743526821372,-0.122
1748367743534508075,-0.124
1748367743542194778,-0.14200000000000002
1748367743549881481,-0.193
1748367743557568244,-0.267
1748367743565255365,-0.117
1748367743572942486,0.514
1748367743580629607,1.359
1748367743588316728,1.824
1748367743596003849,1.2590000000000001
1748367743603690970,-0.127
1748367743611378091,-0.715
1748367743619065212,-0.218
1748367743626752333,-0.044
1748367743634439454,-0.244
1748367743642126575,-0.183
1748367743649813696,-0.095
1748367743657500817,-0.146
1748367743665187938,-0.134
1748367743672875059,-0.078
1748367743680562180,-0.073
1748367743688249301,-0.061
1748367743695936422,-0.026000000000000002
1748367743703623543,-0.004
1748367743711310664,0.014
1748367743718997785,0.044
1748367743726684906,0.07100000000000001
1748367743734372027,0.095
1748367743742059148,0.122
1748367743749746269,0.149
1748367743757433390,0.17300000000000001
1748367743765120511,0.193
1748367743772807632,0.203
1748367743780494753,0.2
1748367743788181874,0.193
1748367743795868995,0.181
1748367743803556116,0.161
1748367743811243237,0.139
1748367743818930358,0.107
1748367743826617479,0.061
1748367743834304600,0.0
1748367743841991721,-0.073
1748367743849678842,-0.14200000000000002
1748367743857365963,-0.203
1748367743865053084,-0.252
1748367743872740205,-0.279
1748367743880427326,-0.291
1748367743888114447,-0.289
1748367743895801568,-0.281
1748367743903488689,-0.269
1748367743911175810,-0.254
1748367743918862931,-0.242
1748367743926550052,-0.232
1748367743934237173,-0.225
1748367743941924294,-0.215
1748367743949611415,-0.213
1748367743957298536,-0.21
1748367743964985657,-0.20800000000000002
1748367743972672778,-0.203
1748367743980359899,-0.2
1748367743988047020,-0.2
1748367743995734141,-0.2
1748367744003421262,-0.198
1748367744011108383,-0.195
1748367744018795504,-0.195
1748367744026482625,-0.195
1748367744034169746,-0.191
1748367744041856867,-0.186
1748367744049543988,-0.183
1748367744057231109,-0.181
1748367744064918230,-0.178
1748367744072605351,-0.17300000000000001
1748367744080292472,-0.171
1748367744087979593,-0.176
1748367744095666714,-0.183
1748367744103353835,-0.17300000000000001
1748367744111040956,-0.154
1748367744118728141,-0.139,89,674
1748367744126414844,-0.129
1748367744134101547,-0.12
1748367744141788250,-0.105
1748367744149474953,-0.10200000000000001
1748367744157161656,-0.132
1748367744164848359,-0.161
1748367744172535062,-0.154
1748367744180221765,-0.14200000000000002
1748367744187908468,-0.14200000000000002
1748367744195595171,-0.137
1748367744203281874,-0.132
1748367744210968577,-0.127
1748367744218655280,-0.129
1748367744226341983,-0.146
1748367744234028686,-0.193
1748367744241715389,-0.267
1748367744249402092,-0.154
1748367744257088795,0.426
1748367744264775498,1.2730000000000001
1748367744272462201,1.807
1748367744280148904,1.361
1748367744287835607,-0.002
1748367744295522310,-0.725
1748367744303209013,-0.276
1748367744310895716,-0.036000000000000004
1748367744318582419,-0.23500000000000001
1748367744326269122,-0.2
1748367744333955825,-0.1
1748367744341642528,-0.146
1748367744349329231,-0.14200000000000002
1748367744357015934,-0.085
1748367744364702637,-0.078
1748367744372389340,-0.068
1748367744380076043,-0.034
1748367744387762746,-0.009000000000000001
1748367744395449449,0.007
1748367744403136152,0.034
1748367744410822855,0.061
1748367744418509558,0.085
1748367744426196261,0.112
1748367744433882964,0.139
1748367744441569667,0.159
1748367744449256370,0.176
1748367744456943073,0.186
1748367744464629776,0.186
1748367744472316479,0.178
1748367744480003182,0.164
1748367744487689885,0.14400000000000002
1748367744495376588,0.124
1748367744503063291,0.097
1748367744510749994,0.056
1748367744518436697,0.0
1748367744526123400,-0.063
1748367744533810103,-0.129
1748367744541496806,-0.193
1748367744549183509,-0.24
1748367744556870212,-0.269
1748367744564556915,-0.281
1748367744572243618,-0.281
1748367744579930321,-0.276
1748367744587617024,-0.267
1748367744595303727,-0.254
1748367744602990430,-0.24
1748367744610677133,-0.23
1748367744618363836,-0.222
1748367744626050539,-0.215
1748367744633737242,-0.20800000000000002
1748367744641423945,-0.203
1748367744649110648,-0.203
1748367744656797351,-0.2
1748367744664484054,-0.195
1748367744672170757,-0.195
1748367744679857520,-0.195
1748367744687544641,-0.193
1748367744695231762,-0.193
1748367744702918883,-0.193
1748367744710606004,-0.191
1748367744718293125,-0.188
1748367744725980246,-0.186
1748367744733667367,-0.183
1748367744741354488,-0.181
1748367744749041609,-0.176
1748367744756728730,-0.171
1748367744764415851,-0.171
1748367744772102972,-0.178
1748367744779790093,-0.178
1748367744787477214,-0.169
1748367744795164335,-0.149
1748367744802851456,-0.134
1748367744810538577,-0.127
1748367744818225698,-0.115
1748367744825912819,-0.1
1748367744833599940,-0.10200000000000001
1748367744841287061,-0.137
1748367744848974182,-0.156
1748367744856661303,-0.149
1748367744864348424,-0.14200000000000002
1748367744872035545,-0.14200000000000002
1748367744879722666,-0.134
1748367744887409787,-0.129
1748367744895096908,-0.127
1748367744902784029,-0.132
1748367744910471150,-0.154
1748367744918158271,-0.218
1748367744925845392,-0.274
1748367744933532513,-0.041
1748367744941219634,0.671
1748367744948906755,1.499
1748367744956593876,1.805
1748367744964280997,0.996
1748367744971968118,-0.367
1748367744979655239,-0.658
1748367744987342360,-0.129
1748367744995029481,-0.09
1748367745002716602,-0.257
1748367745010403723,-0.154
1748367745018090844,-0.10200000000000001
1748367745025777965,-0.154
1748367745033465086,-0.122
1748367745041152207,-0.075
1748367745048839328,-0.075
1748367745056526449,-0.056
1748367745064213570,-0.024
1748367745071900691,-0.004
1748367745079587812,0.017
1748367745087274933,0.046
1748367745094962054,0.07100000000000001
1748367745102649175,0.095
1748367745110336296,0.122
1748367745118023417,0.146
1748367745125710538,0.166
1748367745133397659,0.181
1748367745141084780,0.186
1748367745148771901,0.181
1748367745156459022,0.171
1748367745164146143,0.154
1748367745171833264,0.134
1748367745179520385,0.112
1748367745187207506,0.083
1748367745194894627,0.036000000000000004
1748367745202581748,-0.022
1748367745210268869,-0.085
1748367745217955990,-0.151
1748367745225643111,-0.20800000000000002
1748367745233330232,-0.249
1748367745241017417,-0.271,89,678
1748367745248704538,-0.279,,683
1748367745256391659,-0.279
1748367745264078780,-0.271
1748367745271765901,-0.259
1748367745279453022,-0.247
1748367745287140143,-0.23700000000000002
1748367745294827264,-0.227
1748367745302514385,-0.218
1748367745310201506,-0.21
1748367745317888627,-0.20500000000000002
1748367745325575748,-0.2
1748367745333262869,-0.198
1748367745340949990,-0.195
1748367745348637111,-0.193
1748367745356324232,-0.191
1748367745364011353,-0.191
1748367745371698474,-0.191
1748367745379385595,-0.191
1748367745387072716,-0.188
1748367745394759837,-0.188
1748367745402446958,-0.186
1748367745410134079,-0.181
1748367745417821200,-0.178
1748367745425508321,-0.17300000000000001
1748367745433195442,-0.171
1748367745440882563,-0.171
1748367745448569684,-0.176
1748367745456256805,-0.178
1748367745463943926,-0.169
1748367745471631047,-0.151
1748367745479318168,-0.137
1748367745487005289,-0.129
1748367745494692410,-0.12
1748367745502379531,-0.10200000000000001
1748367745510066652,-0.1
1748367745517753773,-0.129
1748367745525440894,-0.156
1748367745533128015,-0.149
1748367745540815136,-0.139
1748367745548502257,-0.139
1748367745556189378,-0.134
1748367745563876499,-0.127
1748367745571563620,-0.124
1748367745579250741,-0.129
1748367745586937862,-0.146
1748367745594624983,-0.2
1748367745602312104,-0.267
1748367745609999225,-0.10200000000000001
1748367745617686346,0.541
1748367745625373467,1.3860000000000001
1748367745633060588,1.82
1748367745640747709,1.202
1748367745648434830,-0.178
1748367745656121951,-0.7030000000000001
1748367745663809072,-0.2
1748367745671496193,-0.058
1748367745679183314,-0.249
1748367745686870435,-0.178
1748367745694557556,-0.1
1748367745702244677,-0.149
1748367745709931798,-0.132
1748367745717618919,-0.08
1748367745725306040,-0.075
1748367745732993161,-0.061
1748367745740680282,-0.026000000000000002
1748367745748367403,-0.004
1748367745756054524,0.012
1748367745763741645,0.041
1748367745771428766,0.068
1748367745779115887,0.09
1748367745786803008,0.117
1748367745794490129,0.14200000000000002
1748367745802177318,0.161
1748367745809864021,0.176
1748367745817550724,0.183
1748367745825237427,0.181
1748367745832924130,0.169
1748367745840610833,0.154
1748367745848297536,0.134
1748367745855984239,0.112
1748367745863670942,0.085
1748367745871357645,0.044
1748367745879044348,-0.014
1748367745886731051,-0.078
1748367745894417754,-0.139
1748367745902104457,-0.2
1748367745909791160,-0.244
1748367745917477863,-0.269
1748367745925164566,-0.279
1748367745932851269,-0.279
1748367745940537972,-0.271
1748367745948224675,-0.259
1748367745955911378,-0.249
1748367745963598081,-0.23700000000000002
1748367745971284784,-0.225
1748367745978971487,-0.218
1748367745986658190,-0.21
1748367745994344893,-0.203
1748367746002031596,-0.198
1748367746009718299,-0.195
1748367746017405002,-0.191
1748367746025091705,-0.188
1748367746032778408,-0.188
1748367746040465111,-0.188
1748367746048151814,-0.186
1748367746055838517,-0.186
1748367746063525220,-0.183
1748367746071211923,-0.181
1748367746078898626,-0.181
1748367746086585329,-0.178
1748367746094272032,-0.176
1748367746101958735,-0.17300000000000001
1748367746109645438,-0.169
1748367746117332141,-0.169
1748367746125018844,-0.17300000000000001
1748367746132705547,-0.176
1748367746140392250,-0.169
1748367746148078953,-0.149
1748367746155765656,-0.134
1748367746163452359,-0.122
1748367746171139062,-0.115
1748367746178825765,-0.1
1748367746186512468,-0.097
1748367746194199171,-0.127
1748367746201885874,-0.154
1748367746209572577,-0.146
1748367746217259280,-0.134
1748367746224945983,-0.134
1748367746232632686,-0.132
1748367746240319389,-0.124
1748367746248006092,-0.12
1748367746255692795,-0.124
1748367746263379498,-0.14200000000000002
1748367746271066201,-0.193
1748367746278752904,-0.259
1748367746286439607,-0.09
1748367746294126310,0.5650000000000001
1748367746301813013,1.418
1748367746309499716,1.837
1748367746317186419,1.188
1748367746324873122,-0.203
1748367746332559825,-0.6980000000000001
1748367746340246528,-0.188
1748367746347933231,-0.061
1748367746355619934,-0.247
1748367746363306697,-0.171,89,685
1748367746370993609,-0.097
1748367746378680521,-0.149
1748367746386367433,-0.127
1748367746394054345,-0.075
1748367746401741257,-0.07100000000000001
1748367746409428169,-0.056
1748367746417115081,-0.022
1748367746424801993,-0.002
1748367746432488905,0.014
1748367746440175817,0.044
1748367746447862729,0.068
1748367746455549641,0.093
1748367746463236553,0.12
1748367746470923465,0.14400000000000002
1748367746478610377,0.166
1748367746486297289,0.178
1748367746493984201,0.186
1748367746501671113,0.183
1748367746509358025,0.171
1748367746517044937,0.156
1748367746524731849,0.137
1748367746532418761,0.115
1748367746540105673,0.085
1748367746547792585,0.044
1748367746555479497,-0.017
1748367746563166409,-0.078
1748367746570853321,-0.14200000000000002
1748367746578540233,-0.2
1748367746586227145,-0.244
1748367746593914057,-0.267
1748367746601600969,-0.279
1748367746609287881,-0.279
1748367746616974793,-0.271
1748367746624661705,-0.259
1748367746632348617,-0.249
1748367746640035529,-0.23700000000000002
1748367746647722441,-0.227
1748367746655409353,-0.218
1748367746663096265,-0.21
1748367746670783177,-0.20500000000000002
1748367746678470089,-0.198
1748367746686157001,-0.195
1748367746693843913,-0.193
1748367746701530825,-0.188
1748367746709217737,-0.186
1748367746716904649,-0.186
1748367746724591561,-0.186
1748367746732278473,-0.186
1748367746739965385,-0.183
1748367746747652297,-0.183
1748367746755339209,-0.178
1748367746763026121,-0.176
1748367746770713033,-0.176
1748367746778399945,-0.17300000000000001
1748367746786086857,-0.169
1748367746793773769,-0.166
1748367746801460681,-0.171
1748367746809147593,-0.17300000000000001
1748367746816834505,-0.166
1748367746824521417,-0.151
1748367746832208329,-0.134
1748367746839895241,-0.122
1748367746847582153,-0.115
1748367746855269065,-0.1
1748367746862955977,-0.097
1748367746870642889,-0.127
1748367746878329801,-0.154
1748367746886016713,-0.149
1748367746893703625,-0.137
1748367746901390537,-0.137
1748367746909077449,-0.132
1748367746916764361,-0.124
1748367746924451337,-0.122
1748367746932138249,-0.127
1748367746939825161,-0.14200000000000002
1748367746947512073,-0.195
1748367746955198985,-0.259
1748367746962885897,-0.068
1748367746970572809,0.614
1748367746978259721,1.467
1748367746985946633,1.846
1748367746993633545,1.119
1748367747001320457,-0.281
1748367747009007369,-0.685
1748367747016694281,-0.159
1748367747024381193,-0.078
1748367747032068105,-0.259
1748367747039755017,-0.166
1748367747047441929,-0.10200000000000001
1748367747055128841,-0.156
1748367747062815753,-0.129
1748367747070502665,-0.078
1748367747078189577,-0.073
1748367747085876489,-0.053
1748367747093563401,-0.017
1748367747101250313,0.0
1748367747108937225,0.017
1748367747116624137,0.044
1748367747124311049,0.073
1748367747131997961,0.10200000000000001
1748367747139684873,0.127
1748367747147371785,0.151
1748367747155058697,0.176
1748367747162745609,0.191
1748367747170432521,0.195
1748367747178119433,0.195
1748367747185806345,0.188
1748367747193493257,0.171
1748367747201180169,0.149
1748367747208867081,0.124
1748367747216553993,0.095
1748367747224240905,0.048
1748367747231927817,-0.014
1748367747239614729,-0.083
1748367747247301641,-0.146
1748367747254988553,-0.203
1748367747262675465,-0.249
1748367747270362377,-0.279
1748367747278049289,-0.281
1748367747285736201,-0.274
1748367747293423113,-0.276
1748367747301110025,-0.267
1748367747308796937,-0.249
1748367747316483849,-0.232
1748367747324170761,-0.225
1748367747331857673,-0.22
1748367747339544585,-0.21
1748367747347231497,-0.203
1748367747354918409,-0.198
1748367747362605321,-0.191
1748367747370292233,-0.191
1748367747377979145,-0.193
1748367747385666057,-0.186
1748367747393352969,-0.178
1748367747401039881,-0.181
1748367747408726793,-0.183
1748367747416413705,-0.181
1748367747424100617,-0.17300000000000001
1748367747431787529,-0.17300000000000001
1748367747439474441,-0.178
1748367747447161353,-0.176
1748367747454848265,-0.166
1748367747462535177,-0.169
1748367747470222089,-0.178
1748367747477909001,-0.176
1748367747485595973,-0.154,89,682
1748367747493282676,-0.132,,678
1748367747500969379,-0.122
1748367747508656082,-0.124
1748367747516342785,-0.115
1748367747524029488,-0.1
1748367747531716191,-0.124
1748367747539402894,-0.156
1748367747547089597,-0.154
1748367747554776300,-0.139
1748367747562463003,-0.132
1748367747570149706,-0.132
1748367747577836409,-0.132
1748367747585523112,-0.129
1748367747593209815,-0.129
1748367747600896518,-0.14200000000000002
1748367747608583221,-0.183
1748367747616269924,-0.257
1748367747623956627,-0.156
1748367747631643330,0.418
1748367747639330033,1.2610000000000001
1748367747647016736,1.7730000000000001
1748367747654703439,1.332
1748367747662390142,0.007
1748367747670076845,-0.705
1748367747677763548,-0.279
1748367747685450251,-0.039
1748367747693136954,-0.218
1748367747700823657,-0.166
1748367747708510360,-0.075
1748367747716197063,-0.129
1748367747723883766,-0.12
1748367747731570469,-0.056
1748367747739257172,-0.046
1748367747746943875,-0.044
1748367747754630578,-0.014
1748367747762317281,0.022
1748367747770003984,0.051000000000000004
1748367747777690687,0.08
1748367747785377390,0.1
1748367747793064093,0.12
1748367747800750796,0.156
1748367747808437499,0.193
1748367747816124202,0.215
1748367747823810905,0.23500000000000001
1748367747831497608,0.242
1748367747839184311,0.232
1748367747846871014,0.222
1748367747854557717,0.215
1748367747862244420,0.188
1748367747869931123,0.156
1748367747877617826,0.12
1748367747885304529,0.073
1748367747892991232,0.012
1748367747900677935,-0.058
1748367747908364638,-0.132
1748367747916051341,-0.203
1748367747923738044,-0.257
1748367747931424747,-0.276
1748367747939111450,-0.281
1748367747946798153,-0.28600000000000003
1748367747954484856,-0.279
1748367747962171559,-0.264
1748367747969858262,-0.257
1748367747977544965,-0.249
1748367747985231668,-0.23700000000000002
1748367747992918371,-0.222
1748367748000605074,-0.213
1748367748008291777,-0.20500000000000002
1748367748015978480,-0.2
1748367748023665183,-0.198
1748367748031351886,-0.193
1748367748039038589,-0.186
1748367748046725352,-0.186,89,677
1748367748054412473,-0.183
1748367748062099594,-0.183
1748367748069786715,-0.183
1748367748077473836,-0.181
1748367748085160957,-0.186
1748367748092848078,-0.181
1748367748100535199,-0.17300000000000001
1748367748108222320,-0.17300000000000001
1748367748115909441,-0.178
1748367748123596562,-0.183
1748367748131283683,-0.183
1748367748138970804,-0.17300000000000001
1748367748146657925,-0.159
1748367748154345046,-0.14400000000000002
1748367748162032167,-0.137
1748367748169719288,-0.124
1748367748177406409,-0.112
1748367748185093530,-0.117
1748367748192780651,-0.149
1748367748200467772,-0.169
1748367748208154893,-0.156
1748367748215842014,-0.146
1748367748223529135,-0.146
1748367748231216256,-0.14400000000000002
1748367748238903377,-0.134
1748367748246590498,-0.129
1748367748254277619,-0.139
1748367748261964740,-0.171
1748367748269651861,-0.225
1748367748277338982,-0.252
1748367748285026103,0.044
1748367748292713224,0.798
1748367748300400345,1.555
1748367748308087466,1.702
1748367748315774587,0.783
1748367748323461708,-0.482
1748367748331148829,-0.607
1748367748338835950,-0.097
1748367748346523071,-0.127
1748367748354210192,-0.254
1748367748361897313,-0.134
1748367748369584434,-0.11
1748367748377271555,-0.156
1748367748384958676,-0.112
1748367748392645797,-0.075
1748367748400332918,-0.075
1748367748408020039,-0.048
1748367748415707160,-0.014
1748367748423394281,0.0
1748367748431081402,0.024
1748367748438768523,0.056
1748367748446455644,0.08
1748367748454142765,0.105
1748367748461829886,0.137
1748367748469517007,0.166
1748367748477204128,0.183
1748367748484891249,0.195
1748367748492578370,0.198
1748367748500265491,0.193
1748367748507952612,0.176
1748367748515639733,0.156
1748367748523326854,0.137
1748367748531013975,0.11
1748367748538701096,0.068
1748367748546388217,0.014
1748367748554075338,-0.048
1748367748561762459,-0.117
1748367748569449580,-0.183
1748367748577136701,-0.24
1748367748584823822,-0.274
1748367748592510943,-0.289
1748367748600198064,-0.293
1748367748607885253,-0.291
1748367748615571956,-0.281
1748367748623258659,-0.269
1748367748630945362,-0.257
1748367748638632065,-0.244
1748367748646318768,-0.23500000000000001
1748367748654005471,-0.225
1748367748661692174,-0.22
1748367748669378877,-0.21
1748367748677065580,-0.203
1748367748684752283,-0.2
1748367748692438986,-0.195
1748367748700125689,-0.193
1748367748707812392,-0.193
1748367748715499095,-0.191
1748367748723185798,-0.188
1748367748730872501,-0.188
1748367748738559204,-0.186
1748367748746245907,-0.186
1748367748753932610,-0.183
1748367748761619313,-0.183
1748367748769306016,-0.178
1748367748776992719,-0.176
1748367748784679422,-0.17300000000000001
1748367748792366125,-0.176
1748367748800052828,-0.181
1748367748807739531,-0.178
1748367748815426234,-0.169
1748367748823112937,-0.146
1748367748830799640,-0.132
1748367748838486343,-0.127
1748367748846173046,-0.117
1748367748853859749,-0.10200000000000001
1748367748861546452,-0.117
1748367748869233155,-0.151
1748367748876919858,-0.161
1748367748884606561,-0.146
1748367748892293264,-0.14400000000000002
1748367748899979967,-0.14400000000000002
1748367748907666670,-0.134
1748367748915353373,-0.129
1748367748923040076,-0.129
1748367748930726779,-0.139
1748367748938413482,-0.171
1748367748946100185,-0.244
1748367748953786888,-0.24
1748367748961473591,0.164
1748367748969160294,0.989
1748367748976846997,1.736
1748367748984533700,1.719
1748367748992220403,0.551
1748367748999907106,-0.624
1748367749007593809,-0.494
1748367749015280512,-0.034
1748367749022967215,-0.171
1748367749030653918,-0.254
1748367749038340621,-0.124
1748367749046027324,-0.129
1748367749053714027,-0.164
1748367749061400730,-0.107
1748367749069087433,-0.078
1748367749076774136,-0.078
1748367749084460839,-0.048
1748367749092147542,-0.017
1748367749099834245,0.0
1748367749107520948,0.026000000000000002
1748367749115207651,0.058
1748367749122894354,0.085
1748367749130581057,0.115
1748367749138267760,0.14400000000000002
1748367749145954463,0.171
1748367749153641166,0.193
1748367749161327869,0.20800000000000002
1748367749169014632,0.213,89,676
1748367749176701475,0.20800000000000002,,663
1748367749184388318,0.193
1748367749192075161,0.176
1748367749199762004,0.154
1748367749207448847,0.127
1748367749215135690,0.08
1748367749222822533,0.017
1748367749230509376,-0.056
1748367749238196219,-0.132
1748367749245883062,-0.198
1748367749253569905,-0.252
1748367749261256748,-0.28400000000000003
1748367749268943591,-0.301
1748367749276630434,-0.303
1748367749284317277,-0.298
1748367749292004120,-0.289
1748367749299690963,-0.274
1748367749307377806,-0.262
1748367749315064649,-0.249
1748367749322751492,-0.23700000000000002
1748367749330438335,-0.227
1748367749338125178,-0.22
1748367749345812021,-0.213
1748367749353498864,-0.20800000000000002
1748367749361185707,-0.20500000000000002
1748367749368872550,-0.2
1748367749376559393,-0.198
1748367749384246236,-0.198
1748367749391933079,-0.195
1748367749399619922,-0.193
1748367749407306765,-0.191
1748367749414993608,-0.193
1748367749422680451,-0.191
1748367749430367294,-0.186
1748367749438054137,-0.183
1748367749445740980,-0.181
1748367749453427823,-0.181
1748367749461114666,-0.176
1748367749468801509,-0.171
1748367749476488352,-0.169
1748367749484175195,-0.17300000000000001
1748367749491862038,-0.176
1748367749499548881,-0.17300000000000001
1748367749507235724,-0.159
1748367749514922567,-0.137
1748367749522609410,-0.122
1748367749530296253,-0.115
1748367749537983096,-0.107
1748367749545669939,-0.10200000000000001
1748367749553356782,-0.124
1748367749561043625,-0.154
1748367749568730468,-0.156
1748367749576417311,-0.14400000000000002
1748367749584104154,-0.14200000000000002
1748367749591790997,-0.139
1748367749599477840,-0.132
1748367749607164683,-0.127
1748367749614851526,-0.129
1748367749622538369,-0.14200000000000002
1748367749630225212,-0.186
1748367749637912055,-0.269
1748367749645598898,-0.218
1748367749653285741,0.28600000000000003
1748367749660972584,1.158
1748367749668659427,1.844
1748367749676346270,1.6380000000000001
1748367749684033113,0.323
1748367749691719956,-0.6980000000000001
1748367749699406799,-0.396
1748367749707093642,-0.024
1748367749714780485,-0.215
1748367749722467328,-0.242
1748367749730154185,-0.115
1748367749737841167,-0.14400000000000002
1748367749745528149,-0.164
1748367749753215131,-0.10200000000000001
1748367749760902113,-0.083
1748367749768589095,-0.078
1748367749776276077,-0.041
1748367749783963059,-0.014
1748367749791650041,0.004
1748367749799337023,0.034
1748367749807024005,0.066
1748367749814710987,0.093
1748367749822397969,0.124
1748367749830084951,0.156
1748367749837771933,0.183
1748367749845458915,0.20800000000000002
1748367749853145897,0.222
1748367749860832879,0.225
1748367749868519861,0.218
1748367749876206843,0.203
1748367749883893825,0.186
1748367749891580807,0.164
1748367749899267789,0.129
1748367749906954771,0.078
1748367749914641753,0.012
1748367749922328735,-0.066
1748367749930015717,-0.14200000000000002
1748367749937702699,-0.21
1748367749945389681,-0.264
1748367749953076663,-0.293
1748367749960763645,-0.303
1748367749968450627,-0.308
1748367749976137609,-0.303
1748367749983824591,-0.291
1748367749991511573,-0.279
1748367749999198555,-0.267
1748367750006885537,-0.254
1748367750014572519,-0.242
1748367750022259501,-0.23
1748367750029946483,-0.222
1748367750037633465,-0.215
1748367750045320447,-0.20800000000000002
1748367750053007429,-0.20500000000000002
1748367750060694411,-0.203
1748367750068381393,-0.2
1748367750076068375,-0.198
1748367750083755357,-0.195
1748367750091442339,-0.193
1748367750099129321,-0.193
1748367750106816303,-0.193
1748367750114503285,-0.191
1748367750122190267,-0.186
1748367750129877249,-0.183
1748367750137564231,-0.183
1748367750145251213,-0.181
1748367750152938195,-0.178
1748367750160625177,-0.17300000000000001
1748367750168312159,-0.166
1748367750175999141,-0.166
1748367750183686123,-0.169
1748367750191373105,-0.171
1748367750199060087,-0.166
1748367750206747069,-0.146
1748367750214434051,-0.12
1748367750222121033,-0.105
1748367750229808015,-0.105
1748367750237494997,-0.1
1748367750245181979,-0.10200000000000001
1748367750252868961,-0.132
1748367750260555943,-0.159
1748367750268242925,-0.151
1748367750275929907,-0.139
1748367750283616889,-0.139
1748367750291303908,-0.137,89,658
1748367750298990611,-0.129
1748367750306677314,-0.127
1748367750314364017,-0.124
1748367750322050720,-0.134
1748367750329737423,-0.171
1748367750337424126,-0.252
1748367750345110829,-0.262
1748367750352797532,0.129
1748367750360484235,0.97
1748367750368170938,1.7710000000000001
1748367750375857641,1.824
1748367750383544344,0.671
1748367750391231047,-0.597
1748367750398917750,-0.536
1748367750406604453,-0.046
1748367750414291156,-0.164
1748367750421977859,-0.264
1748367750429664562,-0.129
1748367750437351265,-0.127
1748367750445037968,-0.166
1748367750452724671,-0.112
1748367750460411374,-0.08
1748367750468098077,-0.08
1748367750475784780,-0.051000000000000004
1748367750483471483,-0.017
1748367750491158186,0.002
1748367750498844889,0.029
1748367750506531592,0.061
1748367750514218295,0.09
1748367750521904998,0.12
1748367750529591701,0.151
1748367750537278404,0.183
1748367750544965107,0.20800000000000002
1748367750552651810,0.225
1748367750560338513,0.232
1748367750568025216,0.23
1748367750575711919,0.215
1748367750583398622,0.2
1748367750591085325,0.178
1748367750598772028,0.149
1748367750606458731,0.1
1748367750614145434,0.036000000000000004
1748367750621832137,-0.039
1748367750629518840,-0.117
1748367750637205543,-0.193
1748367750644892246,-0.249
1748367750652578949,-0.28600000000000003
1748367750660265652,-0.303
1748367750667952355,-0.308
1748367750675639058,-0.306
1748367750683325761,-0.296
1748367750691012464,-0.281
1748367750698699167,-0.269
1748367750706385870,-0.259
1748367750714072573,-0.247
1748367750721759276,-0.23500000000000001
1748367750729445979,-0.225
1748367750737132682,-0.218
1748367750744819385,-0.213
1748367750752506088,-0.20800000000000002
1748367750760192791,-0.203
1748367750767879494,-0.2
1748367750775566197,-0.198
1748367750783252900,-0.195
1748367750790939603,-0.195
1748367750798626306,-0.193
1748367750806313009,-0.193
1748367750813999712,-0.191
1748367750821686415,-0.188
1748367750829373118,-0.186
1748367750837059821,-0.186
1748367750844746524,-0.181
1748367750852433287,-0.178
1748367750860119990,-0.17300000000000001
1748367750867806693,-0.171
1748367750875493396,-0.166
1748367750883180099,-0.161
1748367750890866802,-0.161
1748367750898553505,-0.164
1748367750906240208,-0.164
1748367750913926911,-0.156
1748367750921613614,-0.134
1748367750929300317,-0.112
1748367750936987020,-0.1
1748367750944673723,-0.095
1748367750952360426,-0.093
1748367750960047129,-0.1
1748367750967733832,-0.132
1748367750975420535,-0.154
1748367750983107238,-0.14400000000000002
1748367750990793941,-0.134
1748367750998480644,-0.134
1748367751006167347,-0.129
1748367751013854050,-0.124
1748367751021540753,-0.122
1748367751029227456,-0.122
1748367751036914159,-0.134
1748367751044600862,-0.178
1748367751052287565,-0.264
1748367751059974268,-0.24
1748367751067660971,0.227
1748367751075347674,1.107
1748367751083034377,1.861
1748367751090721080,1.758
1748367751098407783,0.465
1748367751106094486,-0.671
1748367751113781189,-0.445
1748367751121467892,-0.026000000000000002
1748367751129154595,-0.198
1748367751136841298,-0.247
1748367751144528001,-0.115
1748367751152214704,-0.137
1748367751159901407,-0.161
1748367751167588110,-0.105
1748367751175274813,-0.08
1748367751182961516,-0.075
1748367751190648219,-0.044
1748367751198334922,-0.014
1748367751206021625,0.004
1748367751213708328,0.031
1748367751221395031,0.066
1748367751229081734,0.097
1748367751236768437,0.127
1748367751244455140,0.161
1748367751252141843,0.191
1748367751259828546,0.215
1748367751267515249,0.232
1748367751275201952,0.23700000000000002
1748367751282888655,0.232
1748367751290575358,0.22
1748367751298262061,0.203
1748367751305948764,0.178
1748367751313635467,0.149
1748367751321322170,0.10200000000000001
1748367751329008873,0.034
1748367751336695576,-0.046
1748367751344382279,-0.124
1748367751352068982,-0.198
1748367751359755685,-0.252
1748367751367442388,-0.28600000000000003
1748367751375129091,-0.303
1748367751382815794,-0.308
1748367751390502497,-0.303
1748367751398189200,-0.293
1748367751405875903,-0.281
1748367751413562666,-0.267,89,675
1748367751421249787,-0.254,,690
1748367751428936908,-0.244
1748367751436624029,-0.24
1748367751444311150,-0.227
1748367751451998271,-0.213
1748367751459685392,-0.20500000000000002
1748367751467372513,-0.20500000000000002
1748367751475059634,-0.195
1748367751482746755,-0.188
1748367751490433876,-0.193
1748367751498120997,-0.195
1748367751505808118,-0.191
1748367751513495239,-0.188
1748367751521182360,-0.191
1748367751528869481,-0.191
1748367751536556602,-0.186
1748367751544243723,-0.178
1748367751551930844,-0.17300000000000001
1748367751559617965,-0.171
1748367751567305086,-0.166
1748367751574992207,-0.166
1748367751582679328,-0.169
1748367751590366449,-0.164
1748367751598053570,-0.154
1748367751605740691,-0.149
1748367751613427812,-0.149
1748367751621114933,-0.146
1748367751628802054,-0.146
1748367751636489175,-0.146
1748367751644176296,-0.132
1748367751651863417,-0.105
1748367751659550538,-0.088
1748367751667237659,-0.083
1748367751674924780,-0.078
1748367751682611901,-0.075
1748367751690299022,-0.09
1748367751697986143,-0.127
1748367751705673264,-0.149
1748367751713360385,-0.139
1748367751721047506,-0.127
1748367751728734627,-0.122
1748367751736421748,-0.115
1748367751744108869,-0.112
1748367751751795990,-0.115
1748367751759483111,-0.112
1748367751767170232,-0.122
1748367751774857353,-0.169
1748367751782544474,-0.257
1748367751790231595,-0.222
1748367751797918716,0.254
1748367751805605837,1.1340000000000001
1748367751813292958,1.861
1748367751820980079,1.714
1748367751828667200,0.426
1748367751836354321,-0.663
1748367751844041442,-0.421
1748367751851728563,-0.022
1748367751859415684,-0.193
1748367751867102805,-0.225
1748367751874789926,-0.097
1748367751882477047,-0.122
1748367751890164168,-0.134
1748367751897851289,-0.068
1748367751905538410,-0.053
1748367751913225531,-0.063
1748367751920912652,-0.026000000000000002
1748367751928599773,0.009000000000000001
1748367751936286894,0.026000000000000002
1748367751943974015,0.053
1748367751951661136,0.088
1748367751959348257,0.12
1748367751967035378,0.156
1748367751974722567,0.193,89,701
1748367751982409270,0.218
1748367751990095973,0.24
1748367751997782676,0.269
1748367752005469379,0.28400000000000003
1748367752013156082,0.269
1748367752020842785,0.249
1748367752028529488,0.23500000000000001
1748367752036216191,0.213
1748367752043902894,0.181
1748367752051589597,0.132
1748367752059276300,0.058
1748367752066963003,-0.024
1748367752074649706,-0.107
1748367752082336409,-0.183
1748367752090023112,-0.242
1748367752097709815,-0.279
1748367752105396518,-0.301
1748367752113083221,-0.303
1748367752120769924,-0.296
1748367752128456627,-0.293
1748367752136143330,-0.28600000000000003
1748367752143830033,-0.264
1748367752151516736,-0.247
1748367752159203439,-0.242
1748367752166890142,-0.23700000000000002
1748367752174576845,-0.225
1748367752182263548,-0.20800000000000002
1748367752189950251,-0.2
1748367752197636954,-0.2
1748367752205323657,-0.195
1748367752213010360,-0.183
1748367752220697063,-0.183
1748367752228383766,-0.186
1748367752236070469,-0.178
1748367752243757172,-0.176
1748367752251443875,-0.181
1748367752259130578,-0.178
1748367752266817281,-0.17300000000000001
1748367752274503984,-0.17300000000000001
1748367752282190687,-0.169
1748367752289877390,-0.164
1748367752297564093,-0.161
1748367752305250796,-0.164
1748367752312937499,-0.159
1748367752320624202,-0.151
1748367752328310905,-0.151
1748367752335997608,-0.154
1748367752343684311,-0.154
1748367752351371014,-0.14200000000000002
1748367752359057717,-0.122
1748367752366744420,-0.097
1748367752374431123,-0.08
1748367752382117826,-0.083
1748367752389804529,-0.088
1748367752397491232,-0.10200000000000001
1748367752405177935,-0.134
1748367752412864638,-0.14400000000000002
1748367752420551341,-0.132
1748367752428238044,-0.129
1748367752435924747,-0.132
1748367752443611450,-0.122
1748367752451298153,-0.115
1748367752458984856,-0.115
1748367752466671559,-0.117
1748367752474358262,-0.139
1748367752482044965,-0.20500000000000002
1748367752489731668,-0.271
1748367752497418371,-0.051000000000000004
1748367752505105074,0.666
1748367752512791777,1.518
1748367752520478480,1.856
1748367752528165183,1.09
1748367752535851946,-0.291
1748367752543538789,-0.663
1748367752551225632,-0.149
1748367752558912475,-0.085
1748367752566599318,-0.244
1748367752574286161,-0.14400000000000002
1748367752581973004,-0.093
1748367752589659847,-0.14200000000000002
1748367752597346690,-0.11
1748367752605033533,-0.063
1748367752612720376,-0.061
1748367752620407219,-0.041
1748367752628094062,-0.009000000000000001
1748367752635780905,0.012
1748367752643467748,0.039
1748367752651154591,0.068
1748367752658841434,0.097
1748367752666528277,0.134
1748367752674215120,0.169
1748367752681901963,0.198
1748367752689588806,0.225
1748367752697275649,0.247
1748367752704962492,0.259
1748367752712649335,0.259
1748367752720336178,0.252
1748367752728023021,0.23500000000000001
1748367752735709864,0.213
1748367752743396707,0.181
1748367752751083550,0.134
1748367752758770393,0.07100000000000001
1748367752766457236,-0.007
1748367752774144079,-0.093
1748367752781830922,-0.176
1748367752789517765,-0.24
1748367752797204608,-0.279
1748367752804891451,-0.301
1748367752812578294,-0.308
1748367752820265137,-0.311
1748367752827951980,-0.306
1748367752835638823,-0.296
1748367752843325666,-0.281
1748367752851012509,-0.267
1748367752858699352,-0.254
1748367752866386195,-0.244
1748367752874073038,-0.232
1748367752881759881,-0.22
1748367752889446724,-0.213
1748367752897133567,-0.20500000000000002
1748367752904820410,-0.2
1748367752912507253,-0.2
1748367752920194096,-0.195
1748367752927880939,-0.191
1748367752935567782,-0.191
1748367752943254625,-0.191
1748367752950941468,-0.186
1748367752958628311,-0.183
1748367752966315154,-0.183
1748367752974001997,-0.186
1748367752981688840,-0.181
1748367752989375683,-0.178
1748367752997062526,-0.176
1748367753004749369,-0.171
1748367753012436212,-0.171
1748367753020123055,-0.171
1748367753027809898,-0.166
1748367753035496741,-0.161
1748367753043183584,-0.166
1748367753050870427,-0.169
1748367753058557270,-0.161
1748367753066244113,-0.14400000000000002
1748367753073930956,-0.12
1748367753081617799,-0.105
1748367753089304642,-0.1
1748367753096991499,-0.095,88,714
1748367753104678481,-0.097,,730
1748367753112365463,-0.124
1748367753120052445,-0.154
1748367753127739427,-0.149
1748367753135426409,-0.134
1748367753143113391,-0.134
1748367753150800373,-0.134
1748367753158487355,-0.127
1748367753166174337,-0.122
1748367753173861319,-0.127
1748367753181548301,-0.14400000000000002
1748367753189235283,-0.193
1748367753196922265,-0.276
1748367753204609247,-0.203
1748367753212296229,0.34500000000000003
1748367753219983211,1.241
1748367753227670193,1.9080000000000001
1748367753235357175,1.624
1748367753243044157,0.247
1748367753250731139,-0.71
1748367753258418121,-0.364
1748367753266105103,-0.029
1748367753273792085,-0.227
1748367753281479067,-0.232
1748367753289166049,-0.112
1748367753296853031,-0.146
1748367753304540013,-0.159
1748367753312226995,-0.1
1748367753319913977,-0.08
1748367753327600959,-0.075
1748367753335287941,-0.039
1748367753342974923,-0.012
1748367753350661905,0.007
1748367753358348887,0.041
1748367753366035869,0.075
1748367753373722851,0.1
1748367753381409833,0.132
1748367753389096815,0.169
1748367753396783797,0.203
1748367753404470779,0.23
1748367753412157761,0.249
1748367753419844743,0.257
1748367753427531725,0.254
1748367753435218707,0.24
1748367753442905689,0.22
1748367753450592671,0.198
1748367753458279653,0.161
1748367753465966635,0.105
1748367753473653617,0.029
1748367753481340599,-0.053
1748367753489027581,-0.137
1748367753496714563,-0.213
1748367753504401545,-0.269
1748367753512088527,-0.303
1748367753519775509,-0.318
1748367753527462491,-0.318
1748367753535149473,-0.315
1748367753542836455,-0.306
1748367753550523437,-0.293
1748367753558210419,-0.279
1748367753565897401,-0.267
1748367753573584383,-0.252
1748367753581271365,-0.24
1748367753588958347,-0.23
1748367753596645329,-0.222
1748367753604332311,-0.215
1748367753612019293,-0.20800000000000002
1748367753619706275,-0.20500000000000002
1748367753627393257,-0.2
1748367753635080239,-0.198
1748367753642767221,-0.195
1748367753650454203,-0.195
1748367753658141222,-0.193
1748367753665828204,-0.191
1748367753673515186,-0.191
1748367753681202168,-0.191
1748367753688889150,-0.188
1748367753696576132,-0.183
1748367753704263114,-0.181
1748367753711950096,-0.176
1748367753719637078,-0.17300000000000001
1748367753727324060,-0.171
1748367753735011042,-0.166
1748367753742698024,-0.164
1748367753750385006,-0.159
1748367753758071988,-0.159
1748367753765758970,-0.161
1748367753773445952,-0.161
1748367753781132934,-0.151
1748367753788819916,-0.132
1748367753796506898,-0.11
1748367753804193880,-0.097
1748367753811880862,-0.095
1748367753819567844,-0.088
1748367753827254826,-0.097
1748367753834941808,-0.129
1748367753842628790,-0.149
1748367753850315772,-0.139
1748367753858002754,-0.129
1748367753865689736,-0.129
1748367753873376718,-0.127
1748367753881063700,-0.122
1748367753888750682,-0.117
1748367753896437664,-0.122
1748367753904124646,-0.139
1748367753911811628,-0.198
1748367753919498610,-0.279
1748367753927185592,-0.164
1748367753934872574,0.445
1748367753942559556,1.366
1748367753950246538,1.989
1748367753957933520,1.555
1748367753965620502,0.093
1748367753973307484,-0.725
1748367753980994466,-0.289
1748367753988681448,-0.034
1748367753996368430,-0.247
1748367754004055412,-0.215
1748367754011742394,-0.11
1748367754019429376,-0.156
1748367754027116358,-0.154
1748367754034803340,-0.093
1748367754042490322,-0.08
1748367754050177304,-0.07100000000000001
1748367754057864286,-0.034
1748367754065551268,-0.009000000000000001
1748367754073238250,0.012
1748367754080925232,0.044
1748367754088612214,0.075
1748367754096299196,0.105
1748367754103986178,0.14200000000000002
1748367754111673160,0.178
1748367754119360142,0.213
1748367754127047124,0.24
1748367754134734106,0.259
1748367754142421088,0.267
1748367754150108070,0.264
1748367754157795052,0.252
1748367754165482034,0.23500000000000001
1748367754173169016,0.20800000000000002
1748367754180855998,0.169
1748367754188542980,0.107
1748367754196229962,0.029
1748367754203916944,-0.056
1748367754211603926,-0.14200000000000002
1748367754219290949,-0.218,87,703
1748367754226977792,-0.274
1748367754234664635,-0.306
1748367754242351478,-0.32
1748367754250038321,-0.323
1748367754257725164,-0.318
1748367754265412007,-0.306
1748367754273098850,-0.296
1748367754280785693,-0.281
1748367754288472536,-0.267
1748367754296159379,-0.254
1748367754303846222,-0.242
1748367754311533065,-0.23
1748367754319219908,-0.222
1748367754326906751,-0.215
1748367754334593594,-0.21
1748367754342280437,-0.20800000000000002
1748367754349967280,-0.20500000000000002
1748367754357654123,-0.2
1748367754365340966,-0.198
1748367754373027809,-0.195
1748367754380714652,-0.195
1748367754388401495,-0.193
1748367754396088338,-0.191
1748367754403775181,-0.191
1748367754411462024,-0.188
1748367754419148867,-0.183
1748367754426835710,-0.181
1748367754434522553,-0.178
1748367754442209396,-0.17300000000000001
1748367754449896239,-0.169
1748367754457583082,-0.166
1748367754465269925,-0.161
1748367754472956768,-0.156
1748367754480643611,-0.154
1748367754488330454,-0.159
1748367754496017297,-0.159
1748367754503704140,-0.149
1748367754511390983,-0.127
1748367754519077826,-0.10200000000000001
1748367754526764669,-0.09
1748367754534451512,-0.09
1748367754542138355,-0.085
1748367754549825198,-0.093
1748367754557512041,-0.129
1748367754565198884,-0.151
1748367754572885727,-0.139
1748367754580572570,-0.132
1748367754588259413,-0.132
1748367754595946256,-0.127
1748367754603633099,-0.122
1748367754611319942,-0.12
1748367754619006785,-0.12
1748367754626693628,-0.132
1748367754634380471,-0.171
1748367754642067314,-0.257
1748367754649754157,-0.262
1748367754657441000,0.137
1748367754665127843,0.992
1748367754672814686,1.834
1748367754680501529,1.93
1748367754688188372,0.766
1748367754695875215,-0.5730000000000001
1748367754703562058,-0.551
1748367754711248901,-0.048
1748367754718935744,-0.164
1748367754726622587,-0.271
1748367754734309430,-0.137
1748367754741996273,-0.132
1748367754749683116,-0.17300000000000001
1748367754757369959,-0.12
1748367754765056802,-0.083
1748367754772743645,-0.083
1748367754780430498,-0.056
1748367754788117201,-0.022
1748367754795803904,-0.002
1748367754803490607,0.024
1748367754811177310,0.063
1748367754818864013,0.095
1748367754826550716,0.127
1748367754834237419,0.164
1748367754841924122,0.2
1748367754849610825,0.232
1748367754857297528,0.257
1748367754864984231,0.274
1748367754872670934,0.274
1748367754880357637,0.259
1748367754888044340,0.244
1748367754895731043,0.225
1748367754903417746,0.198
1748367754911104449,0.149
1748367754918791152,0.078
1748367754926477855,-0.009000000000000001
1748367754934164558,-0.097
1748367754941851261,-0.181
1748367754949537964,-0.249
1748367754957224667,-0.291
1748367754964911370,-0.311
1748367754972598073,-0.318
1748367754980284776,-0.315
1748367754987971479,-0.311
1748367754995658182,-0.298
1748367755003344885,-0.279
1748367755011031588,-0.267
1748367755018718291,-0.257
1748367755026404994,-0.244
1748367755034091697,-0.232
1748367755041778400,-0.222
1748367755049465103,-0.213
1748367755057151806,-0.203
1748367755064838509,-0.2
1748367755072525212,-0.2
1748367755080211915,-0.195
1748367755087898618,-0.193
1748367755095585321,-0.191
1748367755103272024,-0.183
1748367755110958727,-0.176
1748367755118645430,-0.178
1748367755126332133,-0.183
1748367755134018836,-0.186
1748367755141705539,-0.181
1748367755149392242,-0.17300000000000001
1748367755157078945,-0.169
1748367755164765648,-0.166
1748367755172452351,-0.164
1748367755180139054,-0.161
1748367755187825757,-0.154
1748367755195512460,-0.146
1748367755203199163,-0.14400000000000002
1748367755210885866,-0.149
1748367755218572569,-0.156
1748367755226259272,-0.151
1748367755233945975,-0.127
1748367755241632678,-0.1
1748367755249319381,-0.083
1748367755257006084,-0.078
1748367755264692787,-0.078
1748367755272379490,-0.085
1748367755280066193,-0.117
1748367755287752896,-0.149
1748367755295439599,-0.137
1748367755303126302,-0.115
1748367755310813005,-0.117
1748367755318499708,-0.122
1748367755326186411,-0.117
1748367755333873114,-0.11
1748367755341559877,-0.107,87,710
1748367755349246650,-0.117
1748367755356933423,-0.146
1748367755364620196,-0.215
1748367755372306969,-0.279
1748367755379993742,-0.053
1748367755387680515,0.678
1748367755395367288,1.572
1748367755403054061,1.962
1748367755410740834,1.18
1748367755418427607,-0.274
1748367755426114380,-0.676
1748367755433801153,-0.14200000000000002
1748367755441487926,-0.078
1748367755449174699,-0.252
1748367755456861472,-0.146
1748367755464548245,-0.093
1748367755472235018,-0.14400000000000002
1748367755479921791,-0.11
1748367755487608564,-0.066
1748367755495295337,-0.063
1748367755502982110,-0.039
1748367755510668883,-0.004
1748367755518355656,0.012
1748367755526042429,0.041
1748367755533729202,0.083
1748367755541415975,0.11
1748367755549102748,0.137
1748367755556789521,0.181
1748367755564476294,0.218
1748367755572163067,0.242
1748367755579849840,0.271
1748367755587536613,0.293
1748367755595223386,0.298
1748367755602910159,0.296
1748367755610596932,0.281
1748367755618283705,0.257
1748367755625970478,0.232
1748367755633657251,0.186
1748367755641344024,0.112
1748367755649030797,0.031
1748367755656717570,-0.056
1748367755664404343,-0.14400000000000002
1748367755672091116,-0.222
1748367755679777889,-0.276
1748367755687464662,-0.298
1748367755695151435,-0.311
1748367755702838208,-0.32
1748367755710524981,-0.318
1748367755718211754,-0.301
1748367755725898527,-0.28400000000000003
1748367755733585300,-0.271
1748367755741272073,-0.257
1748367755748958846,-0.242
1748367755756645619,-0.23500000000000001
1748367755764332392,-0.227
1748367755772019165,-0.215
1748367755779705938,-0.20800000000000002
1748367755787392711,-0.20500000000000002
1748367755795079484,-0.198
1748367755802766257,-0.193
1748367755810453030,-0.193
1748367755818139803,-0.188
1748367755825826576,-0.188
1748367755833513349,-0.188
1748367755841200122,-0.186
1748367755848886895,-0.183
1748367755856573668,-0.181
1748367755864260441,-0.178
1748367755871947214,-0.178
1748367755879633987,-0.176
1748367755887320760,-0.17300000000000001
1748367755895007533,-0.169
1748367755902694347,-0.161
1748367755910381399,-0.159
1748367755918068451,-0.159
1748367755925755503,-0.156
1748367755933442555,-0.161
1748367755941129607,-0.161
1748367755948816659,-0.146
1748367755956503711,-0.124
1748367755964190763,-0.105
1748367755971877815,-0.093
1748367755979564867,-0.093
1748367755987251919,-0.093
1748367755994938971,-0.105
1748367756002626023,-0.137
1748367756010313075,-0.151
1748367756018000127,-0.137
1748367756025687179,-0.132
1748367756033374231,-0.132
1748367756041061283,-0.124
1748367756048748335,-0.12
1748367756056435387,-0.122
1748367756064122439,-0.129
1748367756071809491,-0.14400000000000002
1748367756079496543,-0.193
1748367756087183595,-0.269
1748367756094870647,-0.132
1748367756102557699,0.499
1748367756110244751,1.3860000000000001
1748367756117931803,1.903
1748367756125618855,1.374
1748367756133305907,-0.041
1748367756140992959,-0.715
1748367756148680011,-0.252
1748367756156367063,-0.053
1748367756164054115,-0.247
1748367756171741167,-0.186
1748367756179428219,-0.097
1748367756187115271,-0.151
1748367756194802323,-0.14200000000000002
1748367756202489375,-0.083
1748367756210176427,-0.075
1748367756217863479,-0.063
1748367756225550531,-0.029
1748367756233237583,-0.009000000000000001
1748367756240924635,0.014
1748367756248611687,0.048
1748367756256298739,0.078
1748367756263985791,0.105
1748367756271672843,0.14400000000000002
1748367756279359895,0.183
1748367756287046947,0.21
1748367756294733999,0.23700000000000002
1748367756302421051,0.259
1748367756310108103,0.267
1748367756317795155,0.259
1748367756325482207,0.247
1748367756333169259,0.227
1748367756340856311,0.203
1748367756348543363,0.166
1748367756356230415,0.105
1748367756363917467,0.026000000000000002
1748367756371604519,-0.061
1748367756379291571,-0.14400000000000002
1748367756386978623,-0.22
1748367756394665675,-0.276
1748367756402352727,-0.303
1748367756410039779,-0.315
1748367756417726831,-0.32
1748367756425413883,-0.315
1748367756433100935,-0.306
1748367756440787987,-0.293
1748367756448475039,-0.279
1748367756456162091,-0.264
1748367756463849157,-0.252,86,722
1748367756471535860,-0.24,,726
1748367756479222563,-0.23
1748367756486909266,-0.22
1748367756494595969,-0.213
1748367756502282672,-0.20800000000000002
1748367756509969375,-0.20500000000000002
1748367756517656078,-0.203
1748367756525342781,-0.2
1748367756533029484,-0.2
1748367756540716187,-0.198
1748367756548402890,-0.193
1748367756556089593,-0.193
