time,ecg,hr,rr,marker
1748284545796084966,0.021,80,682
1748284545803771669,0.029
1748284545811458372,0.009000000000000001
1748284545819145075,0.014
1748284545826831778,0.034
1748284545834518481,0.043000000000000003
1748284545842205184,0.053
1748284545849891887,0.058
1748284545857578590,0.063
1748284545865265293,0.07
1748284545872951996,0.08700000000000001
1748284545880638699,0.099
1748284545888325402,0.094
1748284545896012105,0.099
1748284545903698808,0.126
1748284545911385511,0.14100000000000001
1748284545919072214,0.136
1748284545926758917,0.133
1748284545934445620,0.136
1748284545942132323,0.14100000000000001
1748284545949819026,0.155
1748284545957505729,0.17200000000000001
1748284545965192432,0.167
1748284545972879135,0.138
1748284545980565838,0.10200000000000001
1748284545988252541,0.048
1748284545995939244,-0.014
1748284546003625947,-0.046
1748284546011312650,-0.07200000000000001
1748284546018999353,-0.111
1748284546026686056,-0.11900000000000001
1748284546034372759,-0.10400000000000001
1748284546042059462,-0.11900000000000001
1748284546049746165,-0.128
1748284546057432868,-0.116
1748284546065119571,-0.10400000000000001
1748284546072806274,-0.10200000000000001
1748284546080492977,-0.116
1748284546088179680,-0.128
1748284546095866383,-0.111
1748284546103553086,-0.08
1748284546111239789,-0.082
1748284546118926492,-0.109
1748284546126613195,-0.10400000000000001
1748284546134299898,-0.097
1748284546141986601,-0.111
1748284546149673304,-0.116
1748284546157360007,-0.109
1748284546165046710,-0.114
1748284546172733413,-0.121
1748284546180420116,-0.116
1748284546188106819,-0.099
1748284546195793522,-0.085
1748284546203480225,-0.092
1748284546211166928,-0.10400000000000001
1748284546218853631,-0.097
1748284546226540334,-0.094
1748284546234227037,-0.10200000000000001
1748284546241913740,-0.114
1748284546249600443,-0.128
1748284546257287146,-0.124
1748284546264973849,-0.085
1748284546272660552,-0.048
1748284546280347255,-0.046
1748284546288033958,-0.051000000000000004
1748284546295720661,-0.048
1748284546303407364,-0.058
1748284546311094067,-0.08
1748284546318780770,-0.092
1748284546326467473,-0.08700000000000001
1748284546334154176,-0.07
1748284546341840879,-0.065
1748284546349527582,-0.077
1748284546357214345,-0.082
1748284546364900839,-0.107
1748284546372587333,-0.131
1748284546380273827,0.10400000000000001
1748284546387960321,0.732
1748284546395646815,1.18
1748284546403333309,0.705
1748284546411019803,-0.343
1748284546418706297,-0.749
1748284546426392791,-0.379
1748284546434079285,-0.17200000000000001
1748284546441765779,-0.209
1748284546449452273,-0.107
1748284546457138767,-0.036000000000000004
1748284546464825261,-0.08
1748284546472511755,-0.068
1748284546480198249,-0.017
1748284546487884743,-0.012
1748284546495571237,-0.019
1748284546503257731,-0.009000000000000001
1748284546510944225,-0.004
1748284546518630719,-0.002
1748284546526317213,0.009000000000000001
1748284546534003707,0.017
1748284546541690201,0.019
1748284546549376695,0.026000000000000002
1748284546557063189,0.038
1748284546564749683,0.041
1748284546572436177,0.038
1748284546580122671,0.058
1748284546587809165,0.08700000000000001
1748284546595495659,0.094
1748284546603182153,0.085
1748284546610868647,0.08700000000000001
1748284546618555141,0.097
1748284546626241635,0.10400000000000001
1748284546633928129,0.107
1748284546641614623,0.099
1748284546649301117,0.097
1748284546656987611,0.107
1748284546664674105,0.109
1748284546672360599,0.092
1748284546680047093,0.07
1748284546687733587,0.075
1748284546695420081,0.065
1748284546703106575,0.007
1748284546710793069,-0.043000000000000003
1748284546718479563,-0.063
1748284546726166057,-0.08700000000000001
1748284546733852551,-0.107
1748284546741539045,-0.114
1748284546749225539,-0.116
1748284546756912033,-0.116
1748284546764598527,-0.111
1748284546772285021,-0.10400000000000001
1748284546779971515,-0.107
1748284546787658009,-0.107
1748284546795344503,-0.092
1748284546803030997,-0.094
1748284546810717491,-0.111
1748284546818403985,-0.114
1748284546826090479,-0.10400000000000001
1748284546833776973,-0.094
1748284546841463467,-0.099
1748284546849149961,-0.099
1748284546856836455,-0.092
1748284546864522949,-0.092
1748284546872209443,-0.099
1748284546879895937,-0.109
1748284546887582431,-0.114
1748284546895268925,-0.099
1748284546902955419,-0.08
1748284546910641913,-0.08700000000000001
1748284546918328467,-0.094,81,667
1748284546926014961,-0.082
1748284546933701455,-0.08
1748284546941387949,-0.085
1748284546949074443,-0.09
1748284546956760937,-0.094
1748284546964447431,-0.094
1748284546972133925,-0.085
1748284546979820419,-0.085
1748284546987506913,-0.08
1748284546995193407,-0.06
1748284547002879901,-0.048
1748284547010566395,-0.051000000000000004
1748284547018252889,-0.038
1748284547025939383,-0.036000000000000004
1748284547033625877,-0.065
1748284547041312371,-0.07
1748284547048998865,-0.06
1748284547056685359,-0.07
1748284547064371853,-0.068
1748284547072058347,-0.053
1748284547079744841,-0.058
1748284547087431335,-0.094
1748284547095117829,-0.128
1748284547102804323,-0.012
1748284547110490817,0.481
1748284547118177311,1.092
1748284547125863805,1.004
1748284547133550299,0.024
1748284547141236793,-0.747
1748284547148923287,-0.554
1748284547156609781,-0.194
1748284547164296275,-0.192
1748284547171982769,-0.15
1748284547179669263,-0.043000000000000003
1748284547187355757,-0.055
1748284547195042251,-0.055
1748284547202728745,-0.012
1748284547210415239,-0.009000000000000001
1748284547218101733,-0.012
1748284547225788227,0.007
1748284547233474721,0.012
1748284547241161215,0.007
1748284547248847709,0.019
1748284547256534203,0.034
1748284547264220697,0.036000000000000004
1748284547271907191,0.034
1748284547279593685,0.031
1748284547287280179,0.041
1748284547294966673,0.068
1748284547302653167,0.092
1748284547310339661,0.099
1748284547318026155,0.094
1748284547325712649,0.097
1748284547333399143,0.109
1748284547341085637,0.11900000000000001
1748284547348772131,0.116
1748284547356458625,0.107
1748284547364145119,0.099
1748284547371831613,0.111
1748284547379518107,0.131
1748284547387204601,0.131
1748284547394891095,0.131
1748284547402577589,0.11900000000000001
1748284547410264083,0.085
1748284547417950577,0.053
1748284547425637071,0.019
1748284547433323565,-0.029
1748284547441010059,-0.07
1748284547448696553,-0.094
1748284547456383047,-0.097
1748284547464069541,-0.08
1748284547471756035,-0.085
1748284547479442585,-0.114
1748284547487129288,-0.114
1748284547494815991,-0.10400000000000001
1748284547502502694,-0.10200000000000001
1748284547510189397,-0.099
1748284547517876100,-0.097
1748284547525562803,-0.099
1748284547533249506,-0.10400000000000001
1748284547540936209,-0.10200000000000001
1748284547548622912,-0.092
1748284547556309615,-0.099
1748284547563996318,-0.109
1748284547571683021,-0.097
1748284547579369724,-0.097
1748284547587056427,-0.109
1748284547594743130,-0.099
1748284547602429833,-0.082
1748284547610116536,-0.097
1748284547617803239,-0.109
1748284547625489942,-0.097
1748284547633176645,-0.08700000000000001
1748284547640863348,-0.094
1748284547648550051,-0.099
1748284547656236754,-0.09
1748284547663923457,-0.082
1748284547671610160,-0.094
1748284547679296863,-0.10200000000000001
1748284547686983566,-0.085
1748284547694670269,-0.077
1748284547702356972,-0.099
1748284547710043675,-0.08700000000000001
1748284547717730378,-0.048
1748284547725417081,-0.055
1748284547733103784,-0.08700000000000001
1748284547740790487,-0.092
1748284547748477190,-0.077
1748284547756163893,-0.07
1748284547763850596,-0.077
1748284547771537299,-0.068
1748284547779224002,-0.06
1748284547786910705,-0.063
1748284547794597408,-0.041
1748284547802284111,-0.019
1748284547809970814,-0.021
1748284547817657517,-0.024
1748284547825344220,-0.031
1748284547833030923,-0.055
1748284547840717626,-0.063
1748284547848404329,-0.06
1748284547856091032,-0.063
1748284547863777735,-0.065
1748284547871464438,-0.058
1748284547879151141,-0.065
1748284547886837844,-0.097
1748284547894524547,0.009000000000000001
1748284547902211250,0.513
1748284547909897953,1.102
1748284547917584656,0.934
1748284547925271359,-0.07200000000000001
1748284547932958062,-0.764
1748284547940644765,-0.52
1748284547948331468,-0.199
1748284547956018171,-0.201
1748284547963704874,-0.116
1748284547971391577,-0.017
1748284547979078280,-0.055
1748284547986764983,-0.051000000000000004
1748284547994451686,0.009000000000000001
1748284548002138389,0.004
1748284548009825092,-0.014
1748284548017511795,0.009000000000000001
1748284548025198498,0.029
1748284548032885201,0.026000000000000002
1748284548040571964,0.024,83,676
1748284548048258667,0.034,,706
1748284548055945370,0.036000000000000004
1748284548063632073,0.041
1748284548071318776,0.053
1748284548079005479,0.063
1748284548086692182,0.055
1748284548094378885,0.053
1748284548102065588,0.07200000000000001
1748284548109752291,0.097
1748284548117438994,0.10200000000000001
1748284548125125697,0.094
1748284548132812400,0.097
1748284548140499103,0.114
1748284548148185806,0.11900000000000001
1748284548155872509,0.107
1748284548163559212,0.109
1748284548171245915,0.109
1748284548178932618,0.10200000000000001
1748284548186619321,0.116
1748284548194306024,0.128
1748284548201992727,0.097
1748284548209679430,0.058
1748284548217366133,0.038
1748284548225052836,0.009000000000000001
1748284548232739539,-0.036000000000000004
1748284548240426242,-0.068
1748284548248112945,-0.077
1748284548255799648,-0.094
1748284548263486351,-0.114
1748284548271173054,-0.109
1748284548278859757,-0.094
1748284548286546460,-0.094
1748284548294233163,-0.097
1748284548301919866,-0.094
1748284548309606569,-0.097
1748284548317293272,-0.10200000000000001
1748284548324979975,-0.099
1748284548332666678,-0.097
1748284548340353381,-0.10400000000000001
1748284548348040084,-0.109
1748284548355726787,-0.099
1748284548363413490,-0.08700000000000001
1748284548371100193,-0.092
1748284548378786896,-0.10200000000000001
1748284548386473599,-0.10400000000000001
1748284548394160302,-0.107
1748284548401847005,-0.107
1748284548409533708,-0.10200000000000001
1748284548417220411,-0.10200000000000001
1748284548424907114,-0.10400000000000001
1748284548432593817,-0.099
1748284548440280520,-0.08700000000000001
1748284548447967223,-0.09
1748284548455653926,-0.097
1748284548463340629,-0.097
1748284548471027332,-0.097
1748284548478714035,-0.092
1748284548486400738,-0.08700000000000001
1748284548494087441,-0.08700000000000001
1748284548501774144,-0.077
1748284548509460847,-0.07200000000000001
1748284548517147550,-0.082
1748284548524834253,-0.077
1748284548532520956,-0.065
1748284548540207659,-0.075
1748284548547894362,-0.07
1748284548555581065,-0.051000000000000004
1748284548563267768,-0.063
1748284548570954471,-0.075
1748284548578641174,-0.063
1748284548586327877,-0.063
1748284548594014580,-0.082
1748284548601701347,-0.08700000000000001
1748284548609387632,-0.063
1748284548617073917,-0.038
1748284548624760202,-0.036000000000000004
1748284548632446487,-0.034
1748284548640132772,-0.019
1748284548647819057,-0.036000000000000004
1748284548655505342,-0.075
1748284548663191627,-0.07200000000000001
1748284548670877912,-0.051000000000000004
1748284548678564197,-0.053
1748284548686250482,-0.063
1748284548693936767,-0.063
1748284548701623052,-0.065
1748284548709309337,-0.092
1748284548716995622,-0.085
1748284548724681907,0.214
1748284548732368192,0.858
1748284548740054477,1.1500000000000001
1748284548747740762,0.457
1748284548755427047,-0.547
1748284548763113332,-0.722
1748284548770799617,-0.316
1748284548778485902,-0.177
1748284548786172187,-0.17200000000000001
1748284548793858472,-0.065
1748284548801544757,-0.046
1748284548809231042,-0.075
1748284548816917327,-0.041
1748284548824603612,-0.004
1748284548832289897,-0.007
1748284548839976182,-0.009000000000000001
1748284548847662467,0.019
1748284548855348752,0.034
1748284548863035037,0.014
1748284548870721322,0.012
1748284548878407607,0.029
1748284548886093892,0.031
1748284548893780177,0.031
1748284548901466462,0.038
1748284548909152747,0.048
1748284548916839032,0.053
1748284548924525317,0.063
1748284548932211602,0.07200000000000001
1748284548939897887,0.07200000000000001
1748284548947584172,0.08
1748284548955270457,0.099
1748284548962956742,0.10400000000000001
1748284548970643027,0.094
1748284548978329312,0.099
1748284548986015597,0.114
1748284548993701882,0.109
1748284549001388167,0.099
1748284549009074452,0.107
1748284549016760737,0.114
1748284549024447022,0.10200000000000001
1748284549032133307,0.07200000000000001
1748284549039819592,0.038
1748284549047505877,0.004
1748284549055192162,-0.024
1748284549062878447,-0.051000000000000004
1748284549070564732,-0.077
1748284549078251017,-0.097
1748284549085937302,-0.109
1748284549093623587,-0.11900000000000001
1748284549101309872,-0.11900000000000001
1748284549108996157,-0.109
1748284549116682442,-0.107
1748284549124368727,-0.109
1748284549132055012,-0.10400000000000001
1748284549139741297,-0.097
1748284549147427582,-0.109
1748284549155113867,-0.121
1748284549162800208,-0.107,83,726
1748284549170486911,-0.08700000000000001
1748284549178173614,-0.10400000000000001
1748284549185860317,-0.131
1748284549193547020,-0.114
1748284549201233723,-0.08700000000000001
1748284549208920426,-0.107
1748284549216607129,-0.126
1748284549224293832,-0.109
1748284549231980535,-0.09
1748284549239667238,-0.097
1748284549247353941,-0.111
1748284549255040644,-0.109
1748284549262727347,-0.107
1748284549270414050,-0.107
1748284549278100753,-0.10200000000000001
1748284549285787456,-0.10200000000000001
1748284549293474159,-0.099
1748284549301160862,-0.092
1748284549308847565,-0.097
1748284549316534268,-0.10200000000000001
1748284549324220971,-0.094
1748284549331907674,-0.092
1748284549339594377,-0.097
1748284549347281080,-0.092
1748284549354967783,-0.082
1748284549362654486,-0.082
1748284549370341189,-0.09
1748284549378027892,-0.092
1748284549385714595,-0.075
1748284549393401298,-0.06
1748284549401088001,-0.075
1748284549408774704,-0.09
1748284549416461407,-0.085
1748284549424148110,-0.08
1748284549431834813,-0.08700000000000001
1748284549439521516,-0.08
1748284549447208219,-0.058
1748284549454894922,-0.046
1748284549462581625,-0.043000000000000003
1748284549470268328,-0.036000000000000004
1748284549477955031,-0.041
1748284549485641734,-0.053
1748284549493328437,-0.065
1748284549501015140,-0.08
1748284549508701843,-0.08700000000000001
1748284549516388546,-0.077
1748284549524075249,-0.06
1748284549531761952,-0.06
1748284549539448655,-0.107
1748284549547135358,-0.136
1748284549554822061,0.128
1748284549562508764,0.778
1748284549570195467,1.194
1748284549577882170,0.654
1748284549585568873,-0.396
1748284549593255576,-0.744
1748284549600942279,-0.362
1748284549608628982,-0.192
1748284549616315685,-0.228
1748284549624002388,-0.10400000000000001
1748284549631689091,-0.034
1748284549639375794,-0.077
1748284549647062497,-0.06
1748284549654749200,-0.026000000000000002
1748284549662435903,-0.034
1748284549670122606,-0.026000000000000002
1748284549677809309,-0.012
1748284549685496012,-0.021
1748284549693182715,-0.019
1748284549700869418,0.019
1748284549708556121,0.038
1748284549716242824,0.026000000000000002
1748284549723929587,0.034
1748284549731616081,0.048
1748284549739302575,0.041
1748284549746989069,0.046
1748284549754675563,0.068
1748284549762362057,0.082
1748284549770048551,0.082
1748284549777735045,0.075
1748284549785421539,0.07200000000000001
1748284549793108033,0.09
1748284549800794527,0.114
1748284549808481021,0.11900000000000001
1748284549816167515,0.107
1748284549823854009,0.107
1748284549831540503,0.116
1748284549839226997,0.121
1748284549846913491,0.11900000000000001
1748284549854599985,0.109
1748284549862286479,0.082
1748284549869972973,0.036000000000000004
1748284549877659467,-0.002
1748284549885345961,-0.034
1748284549893032455,-0.07
1748284549900718949,-0.099
1748284549908405443,-0.10200000000000001
1748284549916091937,-0.10200000000000001
1748284549923778431,-0.114
1748284549931464925,-0.109
1748284549939151419,-0.094
1748284549946837913,-0.10200000000000001
1748284549954524407,-0.121
1748284549962210901,-0.11900000000000001
1748284549969897395,-0.10400000000000001
1748284549977583889,-0.10200000000000001
1748284549985270383,-0.121
1748284549992956877,-0.121
1748284550000643371,-0.097
1748284550008329865,-0.094
1748284550016016359,-0.114
1748284550023702853,-0.109
1748284550031389347,-0.10200000000000001
1748284550039075841,-0.116
1748284550046762335,-0.11900000000000001
1748284550054448829,-0.109
1748284550062135323,-0.109
1748284550069821817,-0.111
1748284550077508311,-0.109
1748284550085194805,-0.116
1748284550092881299,-0.121
1748284550100567793,-0.10200000000000001
1748284550108254287,-0.09
1748284550115940781,-0.10200000000000001
1748284550123627275,-0.10200000000000001
1748284550131313769,-0.082
1748284550139000263,-0.085
1748284550146686757,-0.10200000000000001
1748284550154373251,-0.097
1748284550162059745,-0.08700000000000001
1748284550169746239,-0.09
1748284550177432733,-0.094
1748284550185119227,-0.097
1748284550192805721,-0.099
1748284550200492215,-0.097
1748284550208178709,-0.085
1748284550215865203,-0.077
1748284550223551697,-0.077
1748284550231238191,-0.077
1748284550238924685,-0.075
1748284550246611179,-0.075
1748284550254297673,-0.082
1748284550261984167,-0.09
1748284550269670661,-0.092
1748284550277357155,-0.092
1748284550285043709,-0.07,83,791
1748284550292730203,-0.038
1748284550300416697,-0.041
1748284550308103191,-0.046
1748284550315789685,-0.038
1748284550323476179,-0.055
1748284550331162673,-0.075
1748284550338849167,-0.07
1748284550346535661,-0.07
1748284550354222155,-0.07200000000000001
1748284550361908649,-0.07200000000000001
1748284550369595143,-0.075
1748284550377281637,-0.09
1748284550384968131,-0.114
1748284550392654625,-0.021
1748284550400341119,0.445
1748284550408027613,1.065
1748284550415714107,0.987
1748284550423400601,0.007
1748284550431087095,-0.756
1748284550438773589,-0.579
1748284550446460083,-0.25
1748284550454146577,-0.253
1748284550461833071,-0.177
1748284550469519565,-0.043000000000000003
1748284550477206059,-0.07200000000000001
1748284550484892553,-0.097
1748284550492579047,-0.017
1748284550500265541,0.019
1748284550507952035,-0.019
1748284550515638529,-0.029
1748284550523325023,-0.007
1748284550531011517,0.0
1748284550538698011,0.004
1748284550546384505,0.012
1748284550554070999,0.009000000000000001
1748284550561757493,0.031
1748284550569443987,0.058
1748284550577130481,0.046
1748284550584816975,0.051000000000000004
1748284550592503469,0.094
1748284550600189963,0.094
1748284550607876457,0.07
1748284550615562951,0.08
1748284550623249445,0.10200000000000001
1748284550630935939,0.111
1748284550638622433,0.107
1748284550646308927,0.10200000000000001
1748284550653995421,0.124
1748284550661681915,0.153
1748284550669368409,0.14300000000000002
1748284550677054903,0.11900000000000001
1748284550684741397,0.128
1748284550692427891,0.15
1748284550700114385,0.128
1748284550707800879,0.058
1748284550715487373,-0.007
1748284550723173867,-0.041
1748284550730860361,-0.053
1748284550738546855,-0.07200000000000001
1748284550746233349,-0.097
1748284550753919843,-0.109
1748284550761606337,-0.121
1748284550769292831,-0.138
1748284550776979325,-0.14100000000000001
1748284550784665819,-0.114
1748284550792352313,-0.094
1748284550800038807,-0.114
1748284550807725301,-0.126
1748284550815411795,-0.116
1748284550823098289,-0.097
1748284550830784783,-0.09
1748284550838471277,-0.109
1748284550846157827,-0.121,83,826
1748284550853844530,-0.10400000000000001
1748284550861531233,-0.10200000000000001
1748284550869217936,-0.124
1748284550876904639,-0.124
1748284550884591342,-0.11900000000000001
1748284550892278045,-0.136
1748284550899964748,-0.138
1748284550907651451,-0.126
1748284550915338154,-0.136
1748284550923024857,-0.126
1748284550930711560,-0.085
1748284550938398263,-0.08700000000000001
1748284550946084966,-0.116
1748284550953771669,-0.111
1748284550961458372,-0.099
1748284550969145075,-0.109
1748284550976831778,-0.107
1748284550984518481,-0.097
1748284550992205184,-0.094
1748284550999891887,-0.097
1748284551007578590,-0.099
1748284551015265293,-0.099
1748284551022951996,-0.097
1748284551030638699,-0.09
1748284551038325402,-0.085
1748284551046012105,-0.08700000000000001
1748284551053698808,-0.094
1748284551061385511,-0.09
1748284551069072214,-0.075
1748284551076758917,-0.07
1748284551084445620,-0.077
1748284551092132323,-0.08
1748284551099819026,-0.07200000000000001
1748284551107505729,-0.082
1748284551115192432,-0.097
1748284551122879135,-0.08700000000000001
1748284551130565838,-0.077
1748284551138252541,-0.065
1748284551145939244,-0.048
1748284551153625947,-0.038
1748284551161312650,-0.038
1748284551168999353,-0.036000000000000004
1748284551176686056,-0.046
1748284551184372759,-0.065
1748284551192059462,-0.08
1748284551199746165,-0.082
1748284551207432868,-0.075
1748284551215119571,-0.07200000000000001
1748284551222806274,-0.08700000000000001
1748284551230492977,-0.109
1748284551238179680,-0.10200000000000001
1748284551245866383,0.063
1748284551253553086,0.579
1748284551261239789,1.1360000000000001
1748284551268926492,0.91
1748284551276613195,-0.11900000000000001
1748284551284299898,-0.756
1748284551291986601,-0.496
1748284551299673304,-0.218
1748284551307360007,-0.24
1748284551315046710,-0.155
1748284551322733413,-0.055
1748284551330420116,-0.068
1748284551338106819,-0.051000000000000004
1748284551345793522,-0.019
1748284551353480225,-0.029
1748284551361166928,-0.029
1748284551368853631,-0.014
1748284551376540334,-0.017
1748284551384227037,-0.014
1748284551391913740,0.0
1748284551399600443,0.014
1748284551407287206,0.012
1748284551414973909,0.009000000000000001
1748284551422660612,0.036000000000000004
1748284551430347315,0.063
1748284551438034018,0.055
1748284551445720721,0.053
1748284551453407424,0.068
1748284551461094127,0.07200000000000001
1748284551468780830,0.07200000000000001
1748284551476467533,0.092
1748284551484154236,0.111
1748284551491840939,0.109
1748284551499527642,0.094
1748284551507214345,0.099
1748284551514901048,0.121
1748284551522587751,0.126
1748284551530274454,0.124
1748284551537961157,0.121
1748284551545647860,0.114
1748284551553334563,0.092
1748284551561021266,0.058
1748284551568707969,0.017
1748284551576394672,-0.031
1748284551584081375,-0.077
1748284551591768078,-0.109
1748284551599454781,-0.126
1748284551607141484,-0.128
1748284551614828187,-0.121
1748284551622514890,-0.131
1748284551630201593,-0.145
1748284551637888296,-0.124
1748284551645574999,-0.099
1748284551653261702,-0.114
1748284551660948405,-0.131
1748284551668635108,-0.11900000000000001
1748284551676321811,-0.10200000000000001
1748284551684008514,-0.099
1748284551691695217,-0.10400000000000001
1748284551699381920,-0.109
1748284551707068623,-0.114
1748284551714755326,-0.11900000000000001
1748284551722442029,-0.121
1748284551730128732,-0.11900000000000001
1748284551737815435,-0.11900000000000001
1748284551745502138,-0.124
1748284551753188841,-0.121
1748284551760875544,-0.11900000000000001
1748284551768562247,-0.133
1748284551776248950,-0.138
1748284551783935653,-0.11900000000000001
1748284551791622356,-0.097
1748284551799309059,-0.094
1748284551806995762,-0.107
1748284551814682465,-0.10400000000000001
1748284551822369168,-0.10200000000000001
1748284551830055871,-0.116
1748284551837742574,-0.121
1748284551845429277,-0.09
1748284551853115980,-0.082
1748284551860802683,-0.099
1748284551868489386,-0.09
1748284551876176089,-0.077
1748284551883862792,-0.094
1748284551891549495,-0.10200000000000001
1748284551899236198,-0.08700000000000001
1748284551906922901,-0.077
1748284551914609604,-0.08
1748284551922296307,-0.085
1748284551929983010,-0.085
1748284551937669713,-0.077
1748284551945356416,-0.075
1748284551953043119,-0.085
1748284551960729822,-0.08700000000000001
1748284551968416589,-0.075,82,831
1748284551976102874,-0.063
1748284551983789159,-0.077
1748284551991475444,-0.08700000000000001
1748284551999161729,-0.07200000000000001
1748284552006848014,-0.075
1748284552014534299,-0.08
1748284552022220584,-0.055
1748284552029906869,-0.038
1748284552037593154,-0.041
1748284552045279439,-0.029
1748284552052965724,-0.038
1748284552060652009,-0.07
1748284552068338294,-0.07200000000000001
1748284552076024579,-0.055
1748284552083710864,-0.065
1748284552091397149,-0.07200000000000001
1748284552099083434,-0.063
1748284552106769719,-0.063
1748284552114456004,-0.092
1748284552122142289,-0.114
1748284552129828574,0.08
1748284552137514859,0.674
1748284552145201144,1.18
1748284552152887429,0.795
1748284552160573714,-0.255
1748284552168259999,-0.749
1748284552175946284,-0.418
1748284552183632569,-0.189
1748284552191318854,-0.228
1748284552199005139,-0.124
1748284552206691424,-0.036000000000000004
1748284552214377709,-0.082
1748284552222063994,-0.075
1748284552229750279,-0.029
1748284552237436564,-0.034
1748284552245122849,-0.043000000000000003
1748284552252809134,-0.026000000000000002
1748284552260495419,0.002
1748284552268181704,0.007
1748284552275867989,-0.004
1748284552283554274,0.007
1748284552291240559,0.026000000000000002
1748284552298926844,0.024
1748284552306613129,0.021
1748284552314299414,0.038
1748284552321985699,0.043000000000000003
1748284552329671984,0.041
1748284552337358269,0.06
1748284552345044554,0.077
1748284552352730839,0.08
1748284552360417124,0.08700000000000001
1748284552368103409,0.107
1748284552375789694,0.107
1748284552383475979,0.107
1748284552391162264,0.124
1748284552398848549,0.126
1748284552406534834,0.111
1748284552414221119,0.10400000000000001
1748284552421907404,0.107
1748284552429593689,0.114
1748284552437279974,0.099
1748284552444966259,0.051000000000000004
1748284552452652544,-0.004
1748284552460338829,-0.043000000000000003
1748284552468025114,-0.07
1748284552475711399,-0.099
1748284552483397684,-0.133
1748284552491083969,-0.133
1748284552498770254,-0.116
1748284552506456539,-0.126
1748284552514142824,-0.14100000000000001
1748284552521829109,-0.136
1748284552529515450,-0.131
1748284552537202153,-0.121
1748284552544888856,-0.10400000000000001
1748284552552575559,-0.107
1748284552560262262,-0.116
1748284552567948965,-0.114
1748284552575635668,-0.109
1748284552583322371,-0.114
1748284552591009074,-0.11900000000000001
1748284552598695777,-0.11900000000000001
1748284552606382480,-0.11900000000000001
1748284552614069183,-0.121
1748284552621755886,-0.128
1748284552629442589,-0.128
1748284552637129292,-0.128
1748284552644815995,-0.11900000000000001
1748284552652502698,-0.109
1748284552660189401,-0.111
1748284552667876104,-0.114
1748284552675562807,-0.111
1748284552683249510,-0.114
1748284552690936213,-0.114
1748284552698622916,-0.114
1748284552706309619,-0.116
1748284552713996322,-0.116
1748284552721683025,-0.107
1748284552729369728,-0.092
1748284552737056431,-0.085
1748284552744743134,-0.092
1748284552752429837,-0.097
1748284552760116540,-0.099
1748284552767803243,-0.107
1748284552775489946,-0.10200000000000001
1748284552783176649,-0.092
1748284552790863352,-0.097
1748284552798550055,-0.094
1748284552806236758,-0.075
1748284552813923461,-0.075
1748284552821610164,-0.08
1748284552829296867,-0.07200000000000001
1748284552836983570,-0.075
1748284552844670273,-0.085
1748284552852356976,-0.077
1748284552860043679,-0.068
1748284552867730382,-0.07200000000000001
1748284552875417085,-0.08
1748284552883103788,-0.07200000000000001
1748284552890790491,-0.063
1748284552898477194,-0.07
1748284552906163897,-0.085
1748284552913850600,-0.085
1748284552921537303,-0.075
1748284552929224006,-0.077
1748284552936910709,-0.068
1748284552944597412,-0.036000000000000004
1748284552952284115,-0.019
1748284552959970818,-0.024
1748284552967657521,-0.031
1748284552975344224,-0.058
1748284552983030927,-0.085
1748284552990717630,-0.08
1748284552998404333,-0.065
1748284553006091036,-0.051000000000000004
1748284553013777739,-0.041
1748284553021464442,-0.055
1748284553029151145,-0.08
1748284553036837848,-0.107
1748284553044524551,-0.038
1748284553052211254,0.41100000000000003
1748284553059897957,1.065
1748284553067584660,1.08
1748284553075271363,0.145
1748284553082958066,-0.669
1748284553090644829,-0.554,80,841
1748284553098331532,-0.226,,853
1748284553106018235,-0.228
1748284553113704938,-0.17200000000000001
1748284553121391641,-0.051000000000000004
1748284553129078344,-0.07200000000000001
1748284553136765047,-0.092
1748284553144451750,-0.043000000000000003
1748284553152138453,-0.036000000000000004
1748284553159825156,-0.043000000000000003
1748284553167511859,-0.029
1748284553175198562,-0.021
1748284553182885265,-0.012
1748284553190571968,0.002
1748284553198258671,0.0
1748284553205945374,-0.002
1748284553213632077,0.017
1748284553221318780,0.036000000000000004
1748284553229005483,0.038
1748284553236692186,0.038
1748284553244378889,0.046
1748284553252065592,0.065
1748284553259752295,0.075
1748284553267438998,0.077
1748284553275125701,0.08700000000000001
1748284553282812404,0.094
1748284553290499107,0.099
1748284553298185810,0.114
1748284553305872513,0.124
1748284553313559216,0.114
1748284553321245919,0.111
1748284553328932622,0.121
1748284553336619325,0.116
1748284553344306028,0.111
1748284553351992731,0.107
1748284553359679434,0.077
1748284553367366137,0.024
1748284553375052840,-0.026000000000000002
1748284553382739543,-0.06
1748284553390426246,-0.082
1748284553398112949,-0.109
1748284553405799652,-0.136
1748284553413486355,-0.14300000000000002
1748284553421173058,-0.126
1748284553428859761,-0.124
1748284553436546464,-0.133
1748284553444233167,-0.131
1748284553451919870,-0.114
1748284553459606573,-0.107
1748284553467293276,-0.114
1748284553474979979,-0.114
1748284553482666682,-0.109
1748284553490353385,-0.10200000000000001
1748284553498040088,-0.109
1748284553505726791,-0.11900000000000001
1748284553513413494,-0.114
1748284553521100197,-0.10400000000000001
1748284553528786900,-0.109
1748284553536473603,-0.11900000000000001
1748284553544160306,-0.11900000000000001
1748284553551847009,-0.11900000000000001
1748284553559533712,-0.128
1748284553567220415,-0.126
1748284553574907118,-0.114
1748284553582593821,-0.109
1748284553590280524,-0.107
1748284553597967227,-0.097
1748284553605653930,-0.094
1748284553613340633,-0.10200000000000001
1748284553621027336,-0.10400000000000001
1748284553628714039,-0.10400000000000001
1748284553636400742,-0.107
1748284553644087445,-0.109
1748284553651774208,-0.10400000000000001
1748284553659460772,-0.092
1748284553667147336,-0.082
1748284553674833900,-0.092
1748284553682520464,-0.099
1748284553690207028,-0.082
1748284553697893592,-0.075
1748284553705580156,-0.077
1748284553713266720,-0.077
1748284553720953284,-0.08
1748284553728639848,-0.08700000000000001
1748284553736326412,-0.085
1748284553744012976,-0.08
1748284553751699540,-0.085
1748284553759386104,-0.085
1748284553767072668,-0.065
1748284553774759232,-0.06
1748284553782445796,-0.07
1748284553790132360,-0.07200000000000001
1748284553797818924,-0.063
1748284553805505488,-0.06
1748284553813192052,-0.068
1748284553820878616,-0.075
1748284553828565180,-0.08700000000000001
1748284553836251744,-0.082
1748284553843938308,-0.055
1748284553851624872,-0.055
1748284553859311436,-0.08
1748284553866998000,-0.07
1748284553874684564,-0.051000000000000004
1748284553882371128,-0.046
1748284553890057692,-0.036000000000000004
1748284553897744256,-0.026000000000000002
1748284553905430820,-0.043000000000000003
1748284553913117384,-0.068
1748284553920803948,-0.063
1748284553928490512,-0.053
1748284553936177076,-0.068
1748284553943863640,-0.068
1748284553951550204,-0.048
1748284553959236768,-0.058
1748284553966923332,-0.099
1748284553974609896,-0.109
1748284553982296460,0.048
1748284553989983024,0.579
1748284553997669588,1.158
1748284554005356152,0.934
1748284554013042716,-0.097
1748284554020729280,-0.727
1748284554028415844,-0.47900000000000004
1748284554036102408,-0.231
1748284554043788972,-0.26
1748284554051475536,-0.148
1748284554059162100,-0.026000000000000002
1748284554066848664,-0.075
1748284554074535228,-0.092
1748284554082221792,-0.038
1748284554089908356,-0.029
1748284554097594920,-0.038
1748284554105281484,-0.031
1748284554112968048,-0.024
1748284554120654612,-0.019
1748284554128341176,0.002
1748284554136027740,0.004
1748284554143714304,0.004
1748284554151400868,0.026000000000000002
1748284554159087432,0.036000000000000004
1748284554166773996,0.026000000000000002
1748284554174460560,0.024
1748284554182147124,0.046
1748284554189833688,0.07
1748284554197520252,0.07200000000000001
1748284554205206816,0.07
1748284554212893417,0.09,79,883
1748284554220579842,0.099
1748284554228266267,0.092
1748284554235952692,0.114
1748284554243639117,0.14300000000000002
1748284554251325542,0.126
1748284554259011967,0.109
1748284554266698392,0.116
1748284554274384817,0.116
1748284554282071242,0.109
1748284554289757667,0.082
1748284554297444092,0.043000000000000003
1748284554305130517,0.014
1748284554312816942,-0.009000000000000001
1748284554320503367,-0.06
1748284554328189792,-0.116
1748284554335876217,-0.136
1748284554343562642,-0.133
1748284554351249067,-0.145
1748284554358935492,-0.158
1748284554366621917,-0.14300000000000002
1748284554374308342,-0.136
1748284554381994767,-0.138
1748284554389681192,-0.124
1748284554397367617,-0.111
1748284554405054042,-0.121
1748284554412740467,-0.133
1748284554420426892,-0.121
1748284554428113317,-0.109
1748284554435799742,-0.111
1748284554443486167,-0.124
1748284554451172592,-0.131
1748284554458859017,-0.116
1748284554466545442,-0.10200000000000001
1748284554474231867,-0.111
1748284554481918292,-0.124
1748284554489604717,-0.124
1748284554497291142,-0.128
1748284554504977567,-0.136
1748284554512663992,-0.133
1748284554520350417,-0.124
1748284554528036842,-0.114
1748284554535723267,-0.114
1748284554543409692,-0.114
1748284554551096117,-0.10400000000000001
1748284554558782542,-0.10400000000000001
1748284554566468967,-0.116
1748284554574155392,-0.121
1748284554581841817,-0.10400000000000001
1748284554589528242,-0.099
1748284554597214667,-0.11900000000000001
1748284554604901092,-0.116
1748284554612587517,-0.08
1748284554620273942,-0.075
1748284554627960367,-0.099
1748284554635646792,-0.099
1748284554643333217,-0.09
1748284554651019642,-0.09
1748284554658706067,-0.09
1748284554666392492,-0.09
1748284554674078917,-0.097
1748284554681765342,-0.092
1748284554689451767,-0.09
1748284554697138192,-0.097
1748284554704824617,-0.085
1748284554712511042,-0.055
1748284554720197467,-0.065
1748284554727883892,-0.082
1748284554735570317,-0.07
1748284554743256742,-0.063
1748284554750943167,-0.075
1748284554758629592,-0.082
1748284554766316017,-0.092
1748284554774002448,-0.107
1748284554781689151,-0.099
1748284554789375854,-0.063
1748284554797062557,-0.041
1748284554804749260,-0.051000000000000004
1748284554812435963,-0.043000000000000003
1748284554820122666,-0.014
1748284554827809369,-0.026000000000000002
1748284554835496072,-0.07
1748284554843182775,-0.075
1748284554850869478,-0.07
1748284554858556181,-0.082
1748284554866242884,-0.075
1748284554873929587,-0.068
1748284554881616290,-0.08700000000000001
1748284554889302993,-0.121
1748284554896989696,-0.116
1748284554904676399,0.116
1748284554912363102,0.72
1748284554920049805,1.211
1748284554927736508,0.81
1748284554935423211,-0.243
1748284554943109914,-0.737
1748284554950796617,-0.425
1748284554958483320,-0.218
1748284554966170023,-0.243
1748284554973856726,-0.128
1748284554981543429,-0.048
1748284554989230132,-0.09
1748284554996916835,-0.082
1748284555004603538,-0.043000000000000003
1748284555012290241,-0.046
1748284555019976944,-0.046
1748284555027663647,-0.026000000000000002
1748284555035350350,-0.019
1748284555043037053,-0.017
1748284555050723756,-0.007
1748284555058410459,0.0
1748284555066097162,0.004
1748284555073783865,0.012
1748284555081470568,0.024
1748284555089157271,0.034
1748284555096843974,0.043000000000000003
1748284555104530677,0.055
1748284555112217380,0.063
1748284555119904083,0.065
1748284555127590786,0.07200000000000001
1748284555135277489,0.10200000000000001
1748284555142964192,0.124
1748284555150650895,0.121
1748284555158337598,0.121
1748284555166024301,0.131
1748284555173711004,0.128
1748284555181397707,0.126
1748284555189084410,0.128
1748284555196771113,0.124
1748284555204457816,0.116
1748284555212144519,0.097
1748284555219831222,0.058
1748284555227517925,0.007
1748284555235204628,-0.041
1748284555242891331,-0.082
1748284555250578034,-0.116
1748284555258264737,-0.136
1748284555265951440,-0.145
1748284555273638143,-0.148
1748284555281324846,-0.148
1748284555289011549,-0.145
1748284555296698252,-0.14300000000000002
1748284555304384955,-0.136
1748284555312071658,-0.131
1748284555319758361,-0.128
1748284555327445064,-0.124
1748284555335131827,-0.11900000000000001,78,917
1748284555342818530,-0.116
1748284555350505233,-0.111
1748284555358191936,-0.114
1748284555365878639,-0.116
1748284555373565342,-0.116
1748284555381252045,-0.116
1748284555388938748,-0.124
1748284555396625451,-0.126
1748284555404312154,-0.124
1748284555411998857,-0.126
1748284555419685560,-0.126
1748284555427372263,-0.124
1748284555435058966,-0.128
1748284555442745669,-0.124
1748284555450432372,-0.111
1748284555458119075,-0.109
1748284555465805778,-0.114
1748284555473492481,-0.116
1748284555481179184,-0.116
1748284555488865887,-0.114
1748284555496552590,-0.107
1748284555504239293,-0.10400000000000001
1748284555511925996,-0.109
1748284555519612699,-0.111
1748284555527299402,-0.107
1748284555534986105,-0.097
1748284555542672808,-0.094
1748284555550359511,-0.094
1748284555558046214,-0.094
1748284555565732917,-0.094
1748284555573419620,-0.092
1748284555581106323,-0.085
1748284555588793026,-0.08700000000000001
1748284555596479729,-0.09
1748284555604166432,-0.085
1748284555611853135,-0.082
1748284555619539838,-0.082
1748284555627226541,-0.085
1748284555634913244,-0.09
1748284555642599947,-0.092
1748284555650286650,-0.08700000000000001
1748284555657973353,-0.08700000000000001
1748284555665660056,-0.092
1748284555673346759,-0.082
1748284555681033462,-0.068
1748284555688720165,-0.053
1748284555696406868,-0.046
1748284555704093571,-0.034
1748284555711780274,-0.036000000000000004
1748284555719466977,-0.07
1748284555727153680,-0.08700000000000001
1748284555734840383,-0.077
1748284555742527086,-0.077
1748284555750213789,-0.08
1748284555757900492,-0.07200000000000001
1748284555765587195,-0.077
1748284555773273898,-0.094
1748284555780960601,-0.109
1748284555788647304,0.036000000000000004
1748284555796334007,0.581
1748284555804020710,1.18
1748284555811707413,0.936
1748284555819394116,-0.128
1748284555827080819,-0.766
1748284555834767522,-0.503
1748284555842454225,-0.248
1748284555850140928,-0.274
1748284555857827631,-0.16
1748284555865514334,-0.043000000000000003
1748284555873201037,-0.075
1748284555880887740,-0.07200000000000001
1748284555888574443,-0.031
1748284555896261210,-0.036000000000000004,77,936
1748284555903947495,-0.043000000000000003
1748284555911633780,-0.019
1748284555919320065,-0.009000000000000001
1748284555927006350,-0.004
1748284555934692635,0.007
1748284555942378920,0.012
1748284555950065205,0.014
1748284555957751490,0.029
1748284555965437775,0.038
1748284555973124060,0.041
1748284555980810345,0.053
1748284555988496630,0.07
1748284555996182915,0.082
1748284556003869200,0.092
1748284556011555485,0.10400000000000001
1748284556019241770,0.11900000000000001
1748284556026928055,0.131
1748284556034614340,0.14300000000000002
1748284556042300625,0.153
1748284556049986910,0.15
1748284556057673195,0.15
1748284556065359480,0.158
1748284556073045765,0.155
1748284556080732050,0.14100000000000001
1748284556088418335,0.126
1748284556096104620,0.099
1748284556103790905,0.055
1748284556111477190,0.004
1748284556119163475,-0.051000000000000004
1748284556126849760,-0.097
1748284556134536045,-0.128
1748284556142222330,-0.153
1748284556149908615,-0.167
1748284556157594900,-0.17200000000000001
1748284556165281185,-0.17200000000000001
1748284556172967470,-0.167
1748284556180653755,-0.16
1748284556188340040,-0.145
1748284556196026325,-0.131
1748284556203712610,-0.126
1748284556211398895,-0.121
1748284556219085180,-0.116
1748284556226771465,-0.116
1748284556234457750,-0.121
1748284556242144035,-0.124
1748284556249830320,-0.126
1748284556257516605,-0.126
1748284556265202890,-0.128
1748284556272889175,-0.133
1748284556280575460,-0.131
1748284556288261745,-0.131
1748284556295948030,-0.133
1748284556303634315,-0.131
1748284556311320600,-0.133
1748284556319006885,-0.133
1748284556326693170,-0.131
1748284556334379455,-0.133
1748284556342065740,-0.138
1748284556349752025,-0.126
1748284556357438310,-0.11900000000000001
1748284556365124595,-0.131
1748284556372810880,-0.128
1748284556380497165,-0.116
1748284556388183450,-0.116
1748284556395869735,-0.11900000000000001
1748284556403556020,-0.116
1748284556411242305,-0.111
1748284556418928590,-0.111
1748284556426614875,-0.116
1748284556434301160,-0.116
1748284556441987445,-0.109
1748284556449673730,-0.10400000000000001
1748284556457360071,-0.094
1748284556465046774,-0.08
1748284556472733477,-0.07200000000000001
1748284556480420180,-0.063
1748284556488106883,-0.058
1748284556495793586,-0.08
1748284556503480289,-0.097
1748284556511166992,-0.092
1748284556518853695,-0.092
1748284556526540398,-0.094
1748284556534227101,-0.09
1748284556541913804,-0.09
1748284556549600507,-0.094
1748284556557287210,-0.094
1748284556564973913,0.038
1748284556572660616,0.532
1748284556580347319,1.092
1748284556588034022,0.858
1748284556595720725,-0.214
1748284556603407428,-0.863
1748284556611094131,-0.5760000000000001
1748284556618780834,-0.313
1748284556626467537,-0.34500000000000003
1748284556634154240,-0.201
1748284556641840943,-0.034
1748284556649527646,-0.053
1748284556657214349,-0.07
1748284556664901052,-0.026000000000000002
1748284556672587755,-0.017
1748284556680274458,-0.021
1748284556687961161,-0.002
1748284556695647864,0.004
1748284556703334567,-0.002
1748284556711021270,0.012
1748284556718707973,0.031
1748284556726394676,0.034
1748284556734081379,0.034
1748284556741768082,0.041
1748284556749454785,0.058
1748284556757141488,0.08
1748284556764828191,0.094
1748284556772514894,0.099
1748284556780201597,0.114
1748284556787888300,0.133
1748284556795575003,0.15
1748284556803261706,0.165
1748284556810948409,0.18
1748284556818635112,0.194
1748284556826321815,0.199
1748284556834008518,0.201
1748284556841695221,0.199
1748284556849381924,0.197
1748284556857068627,0.182
1748284556864755330,0.155
1748284556872442033,0.111
1748284556880128736,0.051000000000000004
1748284556887815439,-0.014
1748284556895502142,-0.075
1748284556903188845,-0.131
1748284556910875548,-0.17500000000000002
1748284556918562251,-0.192
1748284556926248954,-0.197
1748284556933935657,-0.201
1748284556941622360,-0.199
1748284556949309063,-0.184
1748284556956995766,-0.17200000000000001
1748284556964682469,-0.163
1748284556972369172,-0.15
1748284556980055875,-0.138
1748284556987742578,-0.128
1748284556995429281,-0.124
1748284557003115984,-0.121
1748284557010802687,-0.11900000000000001
1748284557018489450,-0.121,76,921
1748284557026176014,-0.121
1748284557033862578,-0.11900000000000001
1748284557041549142,-0.121
1748284557049235706,-0.128
1748284557056922270,-0.131
1748284557064608834,-0.131
1748284557072295398,-0.131
1748284557079981962,-0.133
1748284557087668526,-0.133
1748284557095355090,-0.133
1748284557103041654,-0.133
1748284557110728218,-0.131
1748284557118414782,-0.126
1748284557126101346,-0.124
1748284557133787910,-0.121
1748284557141474474,-0.11900000000000001
1748284557149161038,-0.116
1748284557156847602,-0.116
1748284557164534166,-0.114
1748284557172220730,-0.111
1748284557179907294,-0.116
1748284557187593858,-0.124
1748284557195280422,-0.126
1748284557202966986,-0.11900000000000001
1748284557210653550,-0.099
1748284557218340114,-0.075
1748284557226026678,-0.065
1748284557233713242,-0.058
1748284557241399806,-0.051000000000000004
1748284557249086370,-0.07
1748284557256772934,-0.094
1748284557264459498,-0.094
1748284557272146062,-0.092
1748284557279832626,-0.094
1748284557287519190,-0.09
1748284557295205754,-0.085
1748284557302892318,-0.094
1748284557310578882,-0.126
1748284557318265446,-0.114
1748284557325952010,0.223
1748284557333638574,0.912
1748284557341325138,1.197
1748284557349011702,0.442
1748284557356698266,-0.581
1748284557364384830,-0.712
1748284557372071394,-0.323
1748284557379757958,-0.248
1748284557387444522,-0.243
1748284557395131086,-0.094
1748284557402817650,-0.06
1748284557410504214,-0.097
1748284557418190778,-0.063
1748284557425877342,-0.036000000000000004
1748284557433563906,-0.048
1748284557441250470,-0.043000000000000003
1748284557448937034,-0.031
1748284557456623598,-0.026000000000000002
1748284557464310162,-0.014
1748284557471996726,-0.007
1748284557479683290,-0.009000000000000001
1748284557487369854,-0.002
1748284557495056418,0.009000000000000001
1748284557502742982,0.019
1748284557510429546,0.029
1748284557518116110,0.036000000000000004
1748284557525802674,0.046
1748284557533489238,0.06
1748284557541175802,0.075
1748284557548862366,0.09
1748284557556548930,0.107
1748284557564235494,0.131
1748284557571922058,0.148
1748284557579608659,0.153
1748284557587295084,0.16
1748284557594981509,0.167
1748284557602667934,0.17
1748284557610354359,0.167
1748284557618040784,0.153
1748284557625727209,0.11900000000000001
1748284557633413634,0.065
1748284557641100059,0.012
1748284557648786484,-0.038
1748284557656472909,-0.092
1748284557664159334,-0.133
1748284557671845759,-0.158
1748284557679532184,-0.17
1748284557687218609,-0.177
1748284557694905034,-0.177
1748284557702591459,-0.17200000000000001
1748284557710277884,-0.163
1748284557717964309,-0.15
1748284557725650734,-0.145
1748284557733337159,-0.14300000000000002
1748284557741023584,-0.138
1748284557748710009,-0.131
1748284557756396434,-0.126
1748284557764082859,-0.126
1748284557771769284,-0.126
1748284557779455709,-0.126
1748284557787142134,-0.124
1748284557794828559,-0.126
1748284557802514984,-0.128
1748284557810201409,-0.126
1748284557817887834,-0.126
1748284557825574259,-0.126
1748284557833260684,-0.126
1748284557840947109,-0.124
1748284557848633534,-0.121
1748284557856319959,-0.121
1748284557864006384,-0.11900000000000001
1748284557871692809,-0.114
1748284557879379234,-0.114
1748284557887065659,-0.114
1748284557894752084,-0.111
1748284557902438509,-0.111
1748284557910124934,-0.109
1748284557917811359,-0.10400000000000001
1748284557925497784,-0.10400000000000001
1748284557933184209,-0.114
1748284557940870634,-0.121
1748284557948557059,-0.11900000000000001
1748284557956243484,-0.10400000000000001
1748284557963929909,-0.085
1748284557971616334,-0.07
1748284557979302759,-0.065
1748284557986989184,-0.055
1748284557994675609,-0.058
1748284558002362034,-0.08
1748284558010048459,-0.092
1748284558017734884,-0.08700000000000001
1748284558025421309,-0.085
1748284558033107734,-0.085
1748284558040794159,-0.082
1748284558048480584,-0.085
1748284558056167009,-0.10200000000000001
1748284558063853434,-0.14300000000000002
1748284558071539859,-0.053
1748284558079226284,0.44
1748284558086912709,1.082
1748284558094599134,1.075
1748284558102285559,0.153
1748284558109971984,-0.652
1748284558117658409,-0.52
1748284558125344834,-0.187
1748284558133031259,-0.20400000000000001
1748284558140717690,-0.17500000000000002,75,885
1748284558148404393,-0.068
1748284558156091096,-0.082
1748284558163777799,-0.099
1748284558171464502,-0.063
1748284558179151205,-0.053
1748284558186837908,-0.053
1748284558194524611,-0.038
1748284558202211314,-0.031
1748284558209898017,-0.031
1748284558217584720,-0.021
1748284558225271423,-0.012
1748284558232958126,-0.007
1748284558240644829,-0.004
1748284558248331532,0.0
1748284558256018235,0.009000000000000001
1748284558263704938,0.019
1748284558271391641,0.031
1748284558279078344,0.041
1748284558286765047,0.048
1748284558294451750,0.06
1748284558302138453,0.077
1748284558309825156,0.094
1748284558317511859,0.107
1748284558325198562,0.116
1748284558332885265,0.126
1748284558340571968,0.131
1748284558348258671,0.131
1748284558355945374,0.131
1748284558363632077,0.126
1748284558371318780,0.107
1748284558379005483,0.075
1748284558386692186,0.029
1748284558394378889,-0.021
1748284558402065592,-0.063
1748284558409752295,-0.097
1748284558417438998,-0.126
1748284558425125701,-0.148
1748284558432812404,-0.155
1748284558440499107,-0.155
1748284558448185810,-0.15
1748284558455872513,-0.148
1748284558463559216,-0.138
1748284558471245919,-0.131
1748284558478932622,-0.131
1748284558486619325,-0.128
1748284558494306028,-0.121
1748284558501992731,-0.11900000000000001
1748284558509679434,-0.116
1748284558517366137,-0.114
1748284558525052840,-0.114
1748284558532739543,-0.114
1748284558540426246,-0.111
1748284558548112949,-0.109
1748284558555799652,-0.109
1748284558563486355,-0.114
1748284558571173058,-0.114
1748284558578859761,-0.109
1748284558586546464,-0.107
1748284558594233167,-0.107
1748284558601919870,-0.109
1748284558609606573,-0.111
1748284558617293276,-0.107
1748284558624979979,-0.10200000000000001
1748284558632666682,-0.10400000000000001
1748284558640353385,-0.10400000000000001
1748284558648040088,-0.10200000000000001
1748284558655726791,-0.097
1748284558663413494,-0.094
1748284558671100197,-0.094
1748284558678786900,-0.092
1748284558686473603,-0.092
1748284558694160306,-0.092
1748284558701847069,-0.092
1748284558709533424,-0.09
1748284558717219779,-0.085
1748284558724906134,-0.085
1748284558732592489,-0.085
1748284558740278844,-0.085
1748284558747965199,-0.08
1748284558755651554,-0.077
1748284558763337909,-0.075
1748284558771024264,-0.077
1748284558778710619,-0.077
1748284558786396974,-0.075
1748284558794083329,-0.07200000000000001
1748284558801769684,-0.07200000000000001
1748284558809456039,-0.07
1748284558817142394,-0.07
1748284558824828749,-0.065
1748284558832515104,-0.065
1748284558840201459,-0.068
1748284558847887814,-0.068
1748284558855574169,-0.07
1748284558863260524,-0.08
1748284558870946879,-0.085
1748284558878633234,-0.08
1748284558886319589,-0.07
1748284558894005944,-0.055
1748284558901692299,-0.043000000000000003
1748284558909378654,-0.036000000000000004
1748284558917065009,-0.026000000000000002
1748284558924751364,-0.029
1748284558932437719,-0.055
1748284558940124074,-0.068
1748284558947810429,-0.063
1748284558955496784,-0.065
1748284558963183139,-0.063
1748284558970869494,-0.06
1748284558978555849,-0.063
1748284558986242204,-0.077
1748284558993928559,-0.11900000000000001
1748284559001614914,-0.034
1748284559009301269,0.457
1748284559016987624,1.121
1748284559024673979,1.133
1748284559032360334,0.216
1748284559040046689,-0.613
1748284559047733044,-0.513
1748284559055419399,-0.189
1748284559063105754,-0.20400000000000001
1748284559070792109,-0.17
1748284559078478464,-0.06
1748284559086164819,-0.082
1748284559093851174,-0.10200000000000001
1748284559101537529,-0.06
1748284559109223884,-0.051000000000000004
1748284559116910239,-0.06
1748284559124596594,-0.043000000000000003
1748284559132282949,-0.031
1748284559139969304,-0.031
1748284559147655659,-0.024
1748284559155342014,-0.014
1748284559163028369,-0.007
1748284559170714724,-0.002
1748284559178401079,0.004
1748284559186087434,0.009000000000000001
1748284559193773789,0.019
1748284559201460144,0.026000000000000002
1748284559209146499,0.034
1748284559216832854,0.046
1748284559224519209,0.058
1748284559232205564,0.065
1748284559239891919,0.07200000000000001
1748284559247578274,0.08700000000000001
1748284559255264629,0.099
1748284559262951021,0.10400000000000001,74,776
1748284559270637655,0.10400000000000001,,757
1748284559278324289,0.107
1748284559286010923,0.107
1748284559293697557,0.109
1748284559301384191,0.109
1748284559309070825,0.094
1748284559316757459,0.065
1748284559324444093,0.031
1748284559332130727,-0.004
1748284559339817361,-0.041
1748284559347503995,-0.08
1748284559355190629,-0.107
1748284559362877263,-0.121
1748284559370563897,-0.133
1748284559378250531,-0.138
1748284559385937165,-0.133
1748284559393623799,-0.128
1748284559401310433,-0.131
1748284559408997067,-0.128
1748284559416683701,-0.116
1748284559424370335,-0.114
1748284559432056969,-0.11900000000000001
1748284559439743603,-0.111
1748284559447430237,-0.109
1748284559455116871,-0.114
1748284559462803505,-0.111
1748284559470490139,-0.107
1748284559478176773,-0.111
1748284559485863407,-0.114
1748284559493550041,-0.111
1748284559501236675,-0.114
1748284559508923309,-0.116
1748284559516609943,-0.111
1748284559524296577,-0.109
1748284559531983211,-0.114
1748284559539669845,-0.116
1748284559547356479,-0.114
1748284559555043113,-0.114
1748284559562729747,-0.111
1748284559570416381,-0.109
1748284559578103015,-0.107
1748284559585789649,-0.10400000000000001
1748284559593476283,-0.10400000000000001
1748284559601162917,-0.10400000000000001
1748284559608849551,-0.10200000000000001
1748284559616536185,-0.099
1748284559624222819,-0.099
1748284559631909453,-0.099
1748284559639596087,-0.099
1748284559647282721,-0.097
1748284559654969355,-0.092
1748284559662655989,-0.09
1748284559670342623,-0.092
1748284559678029257,-0.094
1748284559685715891,-0.09
1748284559693402525,-0.08700000000000001
1748284559701089159,-0.09
1748284559708775793,-0.092
1748284559716462427,-0.085
1748284559724149061,-0.077
1748284559731835695,-0.077
1748284559739522329,-0.077
1748284559747208963,-0.077
1748284559754895597,-0.077
1748284559762582231,-0.077
1748284559770268865,-0.077
1748284559777955499,-0.075
1748284559785642133,-0.07
1748284559793328767,-0.07
1748284559801015401,-0.077
1748284559808702035,-0.08
1748284559816388669,-0.085
1748284559824075313,-0.08700000000000001,74,751
1748284559831762016,-0.08
1748284559839448719,-0.063
1748284559847135422,-0.048
1748284559854822125,-0.036000000000000004
1748284559862508828,-0.031
1748284559870195531,-0.041
1748284559877882234,-0.065
1748284559885568937,-0.075
1748284559893255640,-0.068
1748284559900942343,-0.068
1748284559908629046,-0.07
1748284559916315749,-0.065
1748284559924002452,-0.065
1748284559931689155,-0.082
1748284559939375858,-0.111
1748284559947062561,0.009000000000000001
1748284559954749264,0.537
1748284559962435967,1.1500000000000001
1748284559970122670,1.004
1748284559977809373,0.0
1748284559985496076,-0.717
1748284559993182779,-0.51
1748284560000869482,-0.209
1748284560008556185,-0.233
1748284560016242888,-0.165
1748284560023929591,-0.053
1748284560031616294,-0.077
1748284560039302997,-0.092
1748284560046989700,-0.048
1748284560054676403,-0.041
1748284560062363106,-0.046
1748284560070049809,-0.031
1748284560077736512,-0.024
1748284560085423215,-0.021
1748284560093109918,-0.012
1748284560100796621,-0.004
1748284560108483324,0.004
1748284560116170027,0.017
1748284560123856730,0.021
1748284560131543433,0.029
1748284560139230136,0.043000000000000003
1748284560146916839,0.055
1748284560154603542,0.058
1748284560162290245,0.065
1748284560169976948,0.077
1748284560177663651,0.092
1748284560185350354,0.10200000000000001
1748284560193037057,0.109
1748284560200723760,0.114
1748284560208410463,0.11900000000000001
1748284560216097166,0.126
1748284560223783869,0.126
1748284560231470572,0.121
1748284560239157275,0.114
1748284560246843978,0.107
1748284560254530681,0.094
1748284560262217384,0.063
1748284560269904087,0.017
1748284560277590790,-0.029
1748284560285277493,-0.07
1748284560292964196,-0.10400000000000001
1748284560300650899,-0.126
1748284560308337602,-0.138
1748284560316024305,-0.145
1748284560323711008,-0.15
1748284560331397711,-0.145
1748284560339084414,-0.138
1748284560346771117,-0.133
1748284560354457820,-0.131
1748284560362144523,-0.126
1748284560369831226,-0.124
1748284560377517929,-0.121
1748284560385204692,-0.114
1748284560392890977,-0.111
1748284560400577262,-0.111
1748284560408263547,-0.111
1748284560415949832,-0.114
1748284560423636117,-0.124
1748284560431322402,-0.126
1748284560439008687,-0.121
1748284560446694972,-0.11900000000000001
1748284560454381257,-0.124
1748284560462067542,-0.121
1748284560469753827,-0.11900000000000001
1748284560477440112,-0.124
1748284560485126397,-0.124
1748284560492812682,-0.116
1748284560500498967,-0.116
1748284560508185252,-0.116
1748284560515871537,-0.109
1748284560523557822,-0.107
1748284560531244107,-0.10400000000000001
1748284560538930392,-0.10400000000000001
1748284560546616677,-0.109
1748284560554302962,-0.109
1748284560561989247,-0.107
1748284560569675532,-0.10200000000000001
1748284560577361817,-0.094
1748284560585048102,-0.094
1748284560592734387,-0.092
1748284560600420672,-0.08700000000000001
1748284560608106957,-0.085
1748284560615793242,-0.08
1748284560623479527,-0.08
1748284560631165812,-0.08700000000000001
1748284560638852097,-0.09
1748284560646538382,-0.082
1748284560654224667,-0.08
1748284560661910952,-0.085
1748284560669597237,-0.085
1748284560677283522,-0.085
1748284560684969807,-0.082
1748284560692656092,-0.07
1748284560700342377,-0.055
1748284560708028662,-0.036000000000000004
1748284560715714947,-0.021
1748284560723401232,-0.041
1748284560731087517,-0.07
1748284560738773802,-0.07
1748284560746460087,-0.065
1748284560754146372,-0.075
1748284560761832657,-0.07200000000000001
1748284560769518942,-0.065
1748284560777205227,-0.065
1748284560784891512,-0.077
1748284560792577797,-0.068
1748284560800264082,0.133
1748284560807950367,0.6950000000000001
1748284560815636652,1.1460000000000001
1748284560823322937,0.674
1748284560831009222,-0.41100000000000003
1748284560838695507,-0.8270000000000001
1748284560846381792,-0.457
1748284560854068077,-0.274
1748284560861754362,-0.304
1748284560869440647,-0.133
1748284560877126932,-0.012
1748284560884813217,-0.055
1748284560892499502,-0.051000000000000004
1748284560900185787,-0.002
1748284560907872072,-0.007
1748284560915558357,-0.014
1748284560923244642,0.002
1748284560930930927,0.007
1748284560938617212,0.004
1748284560946303553,0.024,75,930
1748284560953990256,0.043000000000000003
1748284560961676959,0.043000000000000003
1748284560969363662,0.048
1748284560977050365,0.06
1748284560984737068,0.068
1748284560992423771,0.07200000000000001
1748284561000110474,0.077
1748284561007797177,0.08700000000000001
1748284561015483880,0.109
1748284561023170583,0.133
1748284561030857286,0.14100000000000001
1748284561038543989,0.15
1748284561046230692,0.17200000000000001
1748284561053917395,0.184
1748284561061604098,0.182
1748284561069290801,0.18
1748284561076977504,0.177
1748284561084664207,0.17500000000000002
1748284561092350910,0.163
1748284561100037613,0.131
1748284561107724316,0.09
1748284561115411019,0.046
1748284561123097722,-0.002
1748284561130784425,-0.048
1748284561138471128,-0.099
1748284561146157831,-0.14100000000000001
1748284561153844534,-0.16
1748284561161531237,-0.163
1748284561169217940,-0.167
1748284561176904643,-0.17200000000000001
1748284561184591346,-0.17
1748284561192278049,-0.15
1748284561199964752,-0.131
1748284561207651455,-0.121
1748284561215338158,-0.114
1748284561223024861,-0.10200000000000001
1748284561230711564,-0.099
1748284561238398267,-0.099
1748284561246084970,-0.097
1748284561253771673,-0.10200000000000001
1748284561261458376,-0.111
1748284561269145079,-0.111
1748284561276831782,-0.107
1748284561284518485,-0.109
1748284561292205188,-0.11900000000000001
1748284561299891891,-0.121
1748284561307578594,-0.121
1748284561315265297,-0.124
1748284561322952000,-0.121
1748284561330638703,-0.11900000000000001
1748284561338325406,-0.121
1748284561346012109,-0.121
1748284561353698812,-0.11900000000000001
1748284561361385515,-0.121
1748284561369072218,-0.121
1748284561376758921,-0.114
1748284561384445624,-0.111
1748284561392132327,-0.111
1748284561399819030,-0.107
1748284561407505733,-0.10400000000000001
1748284561415192436,-0.097
1748284561422879139,-0.094
1748284561430565842,-0.099
1748284561438252545,-0.099
1748284561445939248,-0.097
1748284561453625951,-0.099
1748284561461312654,-0.097
1748284561468999357,-0.082
1748284561476686060,-0.07200000000000001
1748284561484372763,-0.08
1748284561492059466,-0.09
1748284561499746169,-0.099
1748284561507432932,-0.109
1748284561515119635,-0.10200000000000001
1748284561522806338,-0.077
1748284561530493041,-0.058
1748284561538179744,-0.058
1748284561545866447,-0.046
1748284561553553150,-0.026000000000000002
1748284561561239853,-0.046
1748284561568926556,-0.07200000000000001
1748284561576613259,-0.07
1748284561584299962,-0.07200000000000001
1748284561591986665,-0.082
1748284561599673368,-0.082
1748284561607360071,-0.08700000000000001
1748284561615046774,-0.097
1748284561622733477,-0.114
1748284561630420180,-0.085
1748284561638106883,0.274
1748284561645793586,0.9460000000000001
1748284561653480289,1.143
1748284561661166992,0.34700000000000003
1748284561668853695,-0.613
1748284561676540398,-0.678
1748284561684227101,-0.296
1748284561691913804,-0.233
1748284561699600507,-0.214
1748284561707287210,-0.068
1748284561714973913,-0.046
1748284561722660616,-0.075
1748284561730347319,-0.043000000000000003
1748284561738034022,-0.021
1748284561745720725,-0.034
1748284561753407428,-0.036000000000000004
1748284561761094131,-0.021
1748284561768780834,-0.009000000000000001
1748284561776467537,-0.007
1748284561784154240,0.002
1748284561791840943,0.012
1748284561799527646,0.014
1748284561807214349,0.026000000000000002
1748284561814901052,0.036000000000000004
1748284561822587755,0.038
1748284561830274458,0.043000000000000003
1748284561837961161,0.048
1748284561845647864,0.06
1748284561853334567,0.077
1748284561861021270,0.08700000000000001
1748284561868707973,0.097
1748284561876394676,0.126
1748284561884081379,0.15
1748284561891768082,0.148
1748284561899454785,0.14100000000000001
1748284561907141488,0.148
1748284561914828191,0.158
1748284561922514894,0.155
1748284561930201597,0.14100000000000001
1748284561937888300,0.116
1748284561945575003,0.08
1748284561953261706,0.029
1748284561960948409,-0.021
1748284561968635112,-0.068
1748284561976321815,-0.107
1748284561984008518,-0.14300000000000002
1748284561991695221,-0.165
1748284561999381924,-0.15
1748284562007068627,-0.128
1748284562014755330,-0.138
1748284562022442033,-0.145
1748284562030128736,-0.128
1748284562037815439,-0.124
1748284562045502142,-0.126
1748284562053188845,-0.121
1748284562060875548,-0.114
1748284562068562315,-0.116,74,944
1748284562076249018,-0.116
1748284562083935721,-0.111
1748284562091622424,-0.109
1748284562099309127,-0.111
1748284562106995830,-0.116
1748284562114682533,-0.121
1748284562122369236,-0.124
1748284562130055939,-0.111
1748284562137742642,-0.10200000000000001
1748284562145429345,-0.109
1748284562153116048,-0.116
1748284562160802751,-0.111
1748284562168489454,-0.111
1748284562176176157,-0.114
1748284562183862860,-0.109
1748284562191549563,-0.107
1748284562199236266,-0.109
1748284562206922969,-0.109
1748284562214609672,-0.10200000000000001
1748284562222296375,-0.099
1748284562229983078,-0.10200000000000001
1748284562237669781,-0.10200000000000001
1748284562245356484,-0.099
1748284562253043187,-0.099
1748284562260729890,-0.097
1748284562268416593,-0.094
1748284562276103296,-0.094
1748284562283789999,-0.092
1748284562291476702,-0.094
1748284562299163405,-0.10400000000000001
1748284562306850108,-0.109
1748284562314536811,-0.099
1748284562322223514,-0.09
1748284562329910217,-0.08
1748284562337596920,-0.06
1748284562345283623,-0.051000000000000004
1748284562352970326,-0.048
1748284562360657029,-0.06
1748284562368343732,-0.082
1748284562376030435,-0.09
1748284562383717138,-0.08
1748284562391403841,-0.08
1748284562399090544,-0.082
1748284562406777247,-0.08
1748284562414463950,-0.082
1748284562422150653,-0.107
1748284562429837356,-0.136
1748284562437524059,0.031
1748284562445210762,0.605
1748284562452897465,1.16
1748284562460584168,0.88
1748284562468270871,-0.14300000000000002
1748284562475957574,-0.717
1748284562483644277,-0.428
1748284562491330980,-0.182
1748284562499017683,-0.223
1748284562506704386,-0.138
1748284562514391089,-0.055
1748284562522077792,-0.094
1748284562529764495,-0.094
1748284562537451198,-0.055
1748284562545137901,-0.051000000000000004
1748284562552824604,-0.043000000000000003
1748284562560511307,-0.026000000000000002
1748284562568198010,-0.024
1748284562575884713,-0.021
1748284562583571416,-0.014
1748284562591258119,-0.009000000000000001
1748284562598944822,-0.002
1748284562606631525,0.004
1748284562614318228,0.009000000000000001
1748284562622004931,0.017
1748284562629691694,0.019
1748284562637378119,0.024
1748284562645064544,0.043000000000000003
1748284562652750969,0.065
1748284562660437394,0.07200000000000001
1748284562668123819,0.08
1748284562675810244,0.094
1748284562683496669,0.10200000000000001
1748284562691183094,0.111
1748284562698869519,0.11900000000000001
1748284562706555944,0.116
1748284562714242369,0.114
1748284562721928794,0.114
1748284562729615219,0.107
1748284562737301644,0.08700000000000001
1748284562744988069,0.055
1748284562752674494,0.017
1748284562760360919,-0.026000000000000002
1748284562768047344,-0.07
1748284562775733769,-0.109
1748284562783420194,-0.131
1748284562791106619,-0.14300000000000002
1748284562798793044,-0.153
1748284562806479469,-0.158
1748284562814165894,-0.155
1748284562821852319,-0.148
1748284562829538744,-0.14100000000000001
1748284562837225169,-0.136
1748284562844911594,-0.133
1748284562852598019,-0.131
1748284562860284444,-0.126
1748284562867970869,-0.124
1748284562875657294,-0.11900000000000001
1748284562883343719,-0.121
1748284562891030144,-0.121
1748284562898716569,-0.116
1748284562906402994,-0.114
1748284562914089419,-0.116
1748284562921775844,-0.11900000000000001
1748284562929462269,-0.11900000000000001
1748284562937148694,-0.116
1748284562944835119,-0.114
1748284562952521544,-0.114
1748284562960207969,-0.111
1748284562967894394,-0.111
1748284562975580819,-0.111
1748284562983267244,-0.109
1748284562990953669,-0.107
1748284562998640094,-0.107
1748284563006326519,-0.10400000000000001
1748284563014012944,-0.10400000000000001
1748284563021699369,-0.10200000000000001
1748284563029385794,-0.099
1748284563037072219,-0.099
1748284563044758644,-0.094
1748284563052445069,-0.092
1748284563060131494,-0.092
1748284563067817919,-0.094
1748284563075504344,-0.094
1748284563083190769,-0.094
1748284563090877194,-0.099
1748284563098563619,-0.107
1748284563106250044,-0.10400000000000001
1748284563113936469,-0.092
1748284563121622894,-0.07
1748284563129309319,-0.053
1748284563136995744,-0.053
1748284563144682169,-0.046
1748284563152368594,-0.051000000000000004
1748284563160055019,-0.075
1748284563167741444,-0.085
1748284563175427869,-0.08
1748284563183114294,-0.08
1748284563190800729,-0.082,73,851
1748284563198487293,-0.077
1748284563206173857,-0.077
1748284563213860421,-0.10200000000000001
1748284563221546985,-0.136
1748284563229233549,0.029
1748284563236920113,0.613
1748284563244606677,1.187
1748284563252293241,0.897
1748284563259979805,-0.165
1748284563267666369,-0.756
1748284563275352933,-0.457
1748284563283039497,-0.20600000000000002
1748284563290726061,-0.24
1748284563298412625,-0.14100000000000001
1748284563306099189,-0.051000000000000004
1748284563313785753,-0.09
1748284563321472317,-0.085
1748284563329158881,-0.046
1748284563336845445,-0.048
1748284563344532009,-0.048
1748284563352218573,-0.026000000000000002
1748284563359905137,-0.021
1748284563367591701,-0.019
1748284563375278265,-0.007
1748284563382964829,0.002
1748284563390651393,0.004
1748284563398337957,0.014
1748284563406024521,0.026000000000000002
1748284563413711085,0.031
1748284563421397649,0.041
1748284563429084213,0.051000000000000004
1748284563436770777,0.058
1748284563444457341,0.068
1748284563452143905,0.08
1748284563459830469,0.094
1748284563467517033,0.107
1748284563475203597,0.116
1748284563482890161,0.126
1748284563490576725,0.131
1748284563498263289,0.128
1748284563505949853,0.128
1748284563513636417,0.126
1748284563521322981,0.11900000000000001
1748284563529009545,0.099
1748284563536696109,0.065
1748284563544382673,0.021
1748284563552069237,-0.026000000000000002
1748284563559755801,-0.068
1748284563567442365,-0.10400000000000001
1748284563575128929,-0.133
1748284563582815493,-0.148
1748284563590502057,-0.15
1748284563598188621,-0.15
1748284563605875185,-0.145
1748284563613561749,-0.14100000000000001
1748284563621248313,-0.136
1748284563628934877,-0.131
1748284563636621441,-0.126
1748284563644308005,-0.121
1748284563651994569,-0.11900000000000001
1748284563659681133,-0.116
1748284563667367697,-0.111
1748284563675054261,-0.114
1748284563682740825,-0.114
1748284563690427389,-0.114
1748284563698113953,-0.114
1748284563705800517,-0.116
1748284563713487081,-0.116
1748284563721173645,-0.116
1748284563728860209,-0.11900000000000001
1748284563736546773,-0.121
1748284563744233337,-0.121
1748284563751919934,-0.11900000000000001
1748284563759606637,-0.11900000000000001
1748284563767293340,-0.116
1748284563774980043,-0.111
1748284563782666746,-0.111
1748284563790353449,-0.111
1748284563798040152,-0.111
1748284563805726855,-0.109
1748284563813413558,-0.107
1748284563821100261,-0.10400000000000001
1748284563828786964,-0.099
1748284563836473667,-0.097
1748284563844160370,-0.10200000000000001
1748284563851847073,-0.109
1748284563859533776,-0.114
1748284563867220479,-0.116
1748284563874907182,-0.107
1748284563882593885,-0.09
1748284563890280588,-0.07
1748284563897967291,-0.06
1748284563905653994,-0.053
1748284563913340697,-0.051000000000000004
1748284563921027400,-0.07200000000000001
1748284563928714103,-0.097
1748284563936400806,-0.09
1748284563944087509,-0.085
1748284563951774212,-0.08700000000000001
1748284563959460915,-0.082
1748284563967147618,-0.077
1748284563974834321,-0.092
1748284563982521024,-0.128
1748284563990207727,-0.077
1748284563997894430,0.338
1748284564005581133,1.002
1748284564013267836,1.119
1748284564020954539,0.243
1748284564028641242,-0.681
1748284564036327945,-0.656
1748284564044014648,-0.279
1748284564051701351,-0.243
1748284564059388054,-0.201
1748284564067074757,-0.06
1748284564074761460,-0.06
1748284564082448163,-0.094
1748284564090134866,-0.053
1748284564097821569,-0.038
1748284564105508272,-0.048
1748284564113194975,-0.031
1748284564120881678,-0.014
1748284564128568381,-0.017
1748284564136255084,-0.012
1748284564143941787,0.002
1748284564151628490,0.009000000000000001
1748284564159315193,0.014
1748284564167001896,0.024
1748284564174688599,0.036000000000000004
1748284564182375302,0.043000000000000003
1748284564190062005,0.051000000000000004
1748284564197748708,0.06
1748284564205435411,0.075
1748284564213122114,0.085
1748284564220808817,0.092
1748284564228495520,0.10200000000000001
1748284564236182223,0.11900000000000001
1748284564243868926,0.126
1748284564251555629,0.124
1748284564259242332,0.126
1748284564266929035,0.126
1748284564274615738,0.126
1748284564282302441,0.126
1748284564289989144,0.111
1748284564297675847,0.08
1748284564305362550,0.036000000000000004
1748284564313049313,-0.012,73,835
1748284564320736016,-0.063,,804
1748284564328422719,-0.10200000000000001
1748284564336109422,-0.128
1748284564343796125,-0.14100000000000001
1748284564351482828,-0.148
1748284564359169531,-0.15
1748284564366856234,-0.148
1748284564374542937,-0.14300000000000002
1748284564382229640,-0.136
1748284564389916343,-0.131
1748284564397603046,-0.126
1748284564405289749,-0.124
1748284564412976452,-0.121
1748284564420663155,-0.121
1748284564428349858,-0.11900000000000001
1748284564436036561,-0.121
1748284564443723264,-0.121
1748284564451409967,-0.11900000000000001
1748284564459096670,-0.11900000000000001
1748284564466783373,-0.124
1748284564474470076,-0.121
1748284564482156779,-0.121
1748284564489843482,-0.124
1748284564497530185,-0.126
1748284564505216888,-0.124
1748284564512903591,-0.121
1748284564520590294,-0.121
1748284564528276997,-0.11900000000000001
1748284564535963700,-0.116
1748284564543650403,-0.116
1748284564551337106,-0.114
1748284564559023809,-0.111
1748284564566710512,-0.109
1748284564574397215,-0.109
1748284564582083918,-0.111
1748284564589770621,-0.111
1748284564597457324,-0.114
1748284564605144027,-0.121
1748284564612830730,-0.121
1748284564620517433,-0.107
1748284564628204136,-0.08
1748284564635890839,-0.068
1748284564643577542,-0.063
1748284564651264245,-0.055
1748284564658950948,-0.063
1748284564666637651,-0.092
1748284564674324354,-0.10200000000000001
1748284564682011057,-0.09
1748284564689697760,-0.08700000000000001
1748284564697384463,-0.09
1748284564705071166,-0.085
1748284564712757869,-0.08700000000000001
1748284564720444572,-0.109
1748284564728131275,-0.124
1748284564735817978,0.07
1748284564743504681,0.666
1748284564751191384,1.187
1748284564758878087,0.793
1748284564766564790,-0.294
1748284564774251493,-0.8
1748284564781938196,-0.46900000000000003
1748284564789624899,-0.245
1748284564797311602,-0.262
1748284564804998305,-0.136
1748284564812685008,-0.046
1748284564820371711,-0.09
1748284564828058414,-0.082
1748284564835745117,-0.041
1748284564843431820,-0.041
1748284564851118523,-0.046
1748284564858805226,-0.029
1748284564866491929,-0.019
1748284564874178692,-0.014,73,792
1748284564881865395,-0.004
1748284564889552098,0.004
1748284564897238801,0.009000000000000001
1748284564904925504,0.017
1748284564912612207,0.029
1748284564920298910,0.036000000000000004
1748284564927985613,0.041
1748284564935672316,0.053
1748284564943359019,0.063
1748284564951045722,0.07200000000000001
1748284564958732425,0.08700000000000001
1748284564966419128,0.099
1748284564974105831,0.109
1748284564981792534,0.11900000000000001
1748284564989479237,0.126
1748284564997165940,0.131
1748284565004852643,0.133
1748284565012539346,0.131
1748284565020226049,0.126
1748284565027912752,0.121
1748284565035599455,0.10200000000000001
1748284565043286158,0.065
1748284565050972861,0.012
1748284565058659564,-0.038
1748284565066346267,-0.085
1748284565074032970,-0.116
1748284565081719673,-0.136
1748284565089406376,-0.15
1748284565097093079,-0.155
1748284565104779782,-0.15
1748284565112466485,-0.148
1748284565120153188,-0.14300000000000002
1748284565127839891,-0.136
1748284565135526594,-0.133
1748284565143213297,-0.133
1748284565150900000,-0.128
1748284565158586703,-0.121
1748284565166273406,-0.121
1748284565173960109,-0.126
1748284565181646812,-0.128
1748284565189333515,-0.128
1748284565197020218,-0.128
1748284565204706921,-0.131
1748284565212393624,-0.133
1748284565220080327,-0.126
1748284565227767030,-0.124
1748284565235453733,-0.136
1748284565243140436,-0.138
1748284565250827139,-0.126
1748284565258513842,-0.126
1748284565266200545,-0.126
1748284565273887248,-0.124
1748284565281573951,-0.121
1748284565289260654,-0.11900000000000001
1748284565296947357,-0.116
1748284565304634060,-0.116
1748284565312320763,-0.116
1748284565320007466,-0.116
1748284565327694169,-0.121
1748284565335380872,-0.124
1748284565343067575,-0.124
1748284565350754278,-0.114
1748284565358440981,-0.09
1748284565366127684,-0.077
1748284565373814387,-0.077
1748284565381501090,-0.07
1748284565389187793,-0.07200000000000001
1748284565396874496,-0.094
1748284565404561199,-0.109
1748284565412247902,-0.10400000000000001
1748284565419934605,-0.10400000000000001
1748284565427621308,-0.10400000000000001
1748284565435308071,-0.099
1748284565442994426,-0.097
1748284565450680781,-0.10400000000000001
1748284565458367136,-0.09
1748284565466053491,0.097
1748284565473739846,0.642
1748284565481426201,1.1360000000000001
1748284565489112556,0.722
1748284565496798911,-0.406
1748284565504485266,-0.89
1748284565512171621,-0.518
1748284565519857976,-0.323
1748284565527544331,-0.362
1748284565535230686,-0.182
1748284565542917041,-0.043000000000000003
1748284565550603396,-0.08
1748284565558289751,-0.07200000000000001
1748284565565976106,-0.026000000000000002
1748284565573662461,-0.031
1748284565581348816,-0.034
1748284565589035171,-0.012
1748284565596721526,-0.002
1748284565604407881,-0.002
1748284565612094236,0.004
1748284565619780591,0.017
1748284565627466946,0.029
1748284565635153301,0.034
1748284565642839656,0.036000000000000004
1748284565650526011,0.053
1748284565658212366,0.07200000000000001
1748284565665898721,0.08
1748284565673585076,0.09
1748284565681271431,0.107
1748284565688957786,0.11900000000000001
1748284565696644141,0.128
1748284565704330496,0.14300000000000002
1748284565712016851,0.158
1748284565719703206,0.165
1748284565727389561,0.17
1748284565735075916,0.17
1748284565742762271,0.17
1748284565750448626,0.17200000000000001
1748284565758134981,0.163
1748284565765821336,0.128
1748284565773507691,0.077
1748284565781194046,0.019
1748284565788880401,-0.041
1748284565796566756,-0.099
1748284565804253111,-0.148
1748284565811939466,-0.17200000000000001
1748284565819625821,-0.177
1748284565827312176,-0.17500000000000002
1748284565834998531,-0.17200000000000001
1748284565842684886,-0.17
1748284565850371241,-0.167
1748284565858057596,-0.158
1748284565865743951,-0.148
1748284565873430306,-0.14100000000000001
1748284565881116661,-0.136
1748284565888803016,-0.133
1748284565896489371,-0.128
1748284565904175726,-0.128
1748284565911862081,-0.128
1748284565919548436,-0.131
1748284565927234791,-0.133
1748284565934921146,-0.136
1748284565942607501,-0.138
1748284565950293856,-0.138
1748284565957980211,-0.138
1748284565965666566,-0.138
1748284565973352921,-0.138
1748284565981039276,-0.136
1748284565988725631,-0.136
1748284565996412023,-0.138,73,764
1748284566004098657,-0.138
1748284566011785291,-0.133
1748284566019471925,-0.133
1748284566027158559,-0.136
1748284566034845193,-0.14100000000000001
1748284566042531827,-0.14100000000000001
1748284566050218461,-0.14300000000000002
1748284566057905095,-0.136
1748284566065591729,-0.114
1748284566073278363,-0.092
1748284566080964997,-0.09
1748284566088651631,-0.08
1748284566096338265,-0.08
1748284566104024899,-0.10400000000000001
1748284566111711533,-0.114
1748284566119398167,-0.107
1748284566127084801,-0.111
1748284566134771435,-0.111
1748284566142458069,-0.10200000000000001
1748284566150144703,-0.099
1748284566157831337,-0.109
1748284566165517971,-0.109
1748284566173204605,0.029
1748284566180891239,0.53
1748284566188577873,1.107
1748284566196264507,0.871
1748284566203951141,-0.223
1748284566211637775,-0.873
1748284566219324409,-0.5710000000000001
1748284566227011043,-0.313
1748284566234697677,-0.352
1748284566242384311,-0.209
1748284566250070945,-0.046
1748284566257757579,-0.07
1748284566265444213,-0.08
1748284566273130847,-0.036000000000000004
1748284566280817481,-0.031
1748284566288504115,-0.034
1748284566296190749,-0.017
1748284566303877383,-0.012
1748284566311564017,-0.007
1748284566319250651,0.004
1748284566326937285,0.017
1748284566334623919,0.024
1748284566342310553,0.031
1748284566349997187,0.041
1748284566357683821,0.051000000000000004
1748284566365370455,0.058
1748284566373057089,0.07
1748284566380743723,0.082
1748284566388430357,0.094
1748284566396116991,0.107
1748284566403803625,0.121
1748284566411490259,0.138
1748284566419176893,0.148
1748284566426863527,0.155
1748284566434550161,0.16
1748284566442236795,0.165
1748284566449923429,0.17
1748284566457610063,0.165
1748284566465296697,0.153
1748284566472983331,0.126
1748284566480669965,0.082
1748284566488356599,0.029
1748284566496043233,-0.031
1748284566503729867,-0.09
1748284566511416501,-0.136
1748284566519103135,-0.163
1748284566526789769,-0.17200000000000001
1748284566534476403,-0.177
1748284566542163037,-0.182
1748284566549849671,-0.17500000000000002
1748284566557536315,-0.163
1748284566565223018,-0.155
1748284566572909721,-0.15
1748284566580596424,-0.138
1748284566588283127,-0.126
1748284566595969830,-0.124
1748284566603656533,-0.121
1748284566611343236,-0.11900000000000001
1748284566619029939,-0.121
1748284566626716642,-0.126
1748284566634403345,-0.128
1748284566642090048,-0.128
1748284566649776751,-0.128
1748284566657463454,-0.133
1748284566665150157,-0.133
1748284566672836860,-0.128
1748284566680523563,-0.126
1748284566688210266,-0.126
1748284566695896969,-0.128
1748284566703583672,-0.126
1748284566711270375,-0.124
1748284566718957078,-0.124
1748284566726643781,-0.124
1748284566734330484,-0.121
1748284566742017187,-0.121
1748284566749703890,-0.128
1748284566757390593,-0.136
1748284566765077296,-0.136
1748284566772763999,-0.131
1748284566780450702,-0.114
1748284566788137405,-0.09
1748284566795824108,-0.082
1748284566803510811,-0.077
1748284566811197514,-0.07
1748284566818884217,-0.085
1748284566826570920,-0.107
1748284566834257623,-0.109
1748284566841944326,-0.10200000000000001
1748284566849631029,-0.10400000000000001
1748284566857317732,-0.10200000000000001
1748284566865004435,-0.094
1748284566872691138,-0.10400000000000001
1748284566880377841,-0.14100000000000001
1748284566888064544,-0.136
1748284566895751247,0.189
1748284566903437950,0.878
1748284566911124653,1.226
1748284566918811356,0.557
1748284566926498059,-0.498
1748284566934184762,-0.729
1748284566941871465,-0.335
1748284566949558168,-0.221
1748284566957244871,-0.243
1748284566964931574,-0.11900000000000001
1748284566972618277,-0.075
1748284566980304980,-0.114
1748284566987991683,-0.08700000000000001
1748284566995678386,-0.06
1748284567003365089,-0.065
1748284567011051792,-0.055
1748284567018738495,-0.043000000000000003
1748284567026425198,-0.036000000000000004
1748284567034111901,-0.029
1748284567041798604,-0.021
1748284567049485307,-0.017
1748284567057172010,-0.012
1748284567064858713,-0.002
1748284567072545416,0.007
1748284567080232119,0.012
1748284567087918822,0.021
1748284567095605525,0.036000000000000004
1748284567103292228,0.048
1748284567110978931,0.058
1748284567118665694,0.068,74,742
1748284567126352258,0.08,,730
1748284567134038822,0.094
1748284567141725386,0.10400000000000001
1748284567149411950,0.114
1748284567157098514,0.11900000000000001
1748284567164785078,0.116
1748284567172471642,0.116
1748284567180158206,0.111
1748284567187844770,0.099
1748284567195531334,0.07200000000000001
1748284567203217898,0.029
1748284567210904462,-0.019
1748284567218591026,-0.06
1748284567226277590,-0.094
1748284567233964154,-0.126
1748284567241650718,-0.14300000000000002
1748284567249337282,-0.145
1748284567257023846,-0.15
1748284567264710410,-0.15
1748284567272396974,-0.145
1748284567280083538,-0.14100000000000001
1748284567287770102,-0.138
1748284567295456666,-0.136
1748284567303143230,-0.133
1748284567310829794,-0.131
1748284567318516358,-0.131
1748284567326202922,-0.126
1748284567333889486,-0.124
1748284567341576050,-0.124
1748284567349262614,-0.124
1748284567356949178,-0.126
1748284567364635742,-0.126
1748284567372322306,-0.124
1748284567380008870,-0.126
1748284567387695434,-0.128
1748284567395381998,-0.126
1748284567403068562,-0.124
1748284567410755126,-0.121
1748284567418441690,-0.116
1748284567426128254,-0.116
1748284567433814818,-0.116
1748284567441501382,-0.116
1748284567449187946,-0.114
1748284567456874510,-0.111
1748284567464561074,-0.109
1748284567472247638,-0.107
1748284567479934202,-0.107
1748284567487620766,-0.107
1748284567495307330,-0.109
1748284567502993894,-0.116
1748284567510680458,-0.121
1748284567518367022,-0.11900000000000001
1748284567526053586,-0.10200000000000001
1748284567533740150,-0.077
1748284567541426714,-0.068
1748284567549113278,-0.065
1748284567556799842,-0.058
1748284567564486406,-0.068
1748284567572172970,-0.094
1748284567579859534,-0.097
1748284567587546098,-0.08700000000000001
1748284567595232662,-0.092
1748284567602919226,-0.094
1748284567610605790,-0.08700000000000001
1748284567618292354,-0.08700000000000001
1748284567625978918,-0.111
1748284567633665482,-0.153
1748284567641352046,-0.021
1748284567649038610,0.53
1748284567656725174,1.17
1748284567664411738,1.043
1748284567672098302,0.031
1748284567679784903,-0.708
1748284567687471328,-0.496
1748284567695157753,-0.199
1748284567702844178,-0.23800000000000002
1748284567710530603,-0.17200000000000001
1748284567718217028,-0.07
1748284567725903453,-0.10200000000000001
1748284567733589878,-0.111
1748284567741276303,-0.068
1748284567748962728,-0.065
1748284567756649153,-0.068
1748284567764335578,-0.048
1748284567772022003,-0.041
1748284567779708428,-0.041
1748284567787394853,-0.031
1748284567795081278,-0.019
1748284567802767703,-0.017
1748284567810454128,-0.012
1748284567818140553,-0.002
1748284567825826978,0.007
1748284567833513403,0.017
1748284567841199828,0.026000000000000002
1748284567848886253,0.036000000000000004
1748284567856572678,0.051000000000000004
1748284567864259103,0.06
1748284567871945528,0.068
1748284567879631953,0.082
1748284567887318378,0.097
1748284567895004803,0.10200000000000001
1748284567902691228,0.10200000000000001
1748284567910377653,0.107
1748284567918064078,0.107
1748284567925750503,0.10400000000000001
1748284567933436928,0.097
1748284567941123353,0.08
1748284567948809778,0.043000000000000003
1748284567956496203,0.0
1748284567964182628,-0.043000000000000003
1748284567971869053,-0.08
1748284567979555478,-0.109
1748284567987241903,-0.131
1748284567994928328,-0.145
1748284568002614753,-0.155
1748284568010301178,-0.155
1748284568017987603,-0.15
1748284568025674028,-0.145
1748284568033360453,-0.14100000000000001
1748284568041046878,-0.136
1748284568048733303,-0.131
1748284568056419728,-0.131
1748284568064106153,-0.133
1748284568071792578,-0.131
1748284568079479003,-0.128
1748284568087165428,-0.126
1748284568094851853,-0.126
1748284568102538278,-0.126
1748284568110224703,-0.128
1748284568117911128,-0.126
1748284568125597553,-0.124
1748284568133283978,-0.126
1748284568140970403,-0.126
1748284568148656828,-0.126
1748284568156343253,-0.126
1748284568164029678,-0.126
1748284568171716103,-0.124
1748284568179402528,-0.11900000000000001
1748284568187088953,-0.11900000000000001
1748284568194775378,-0.11900000000000001
1748284568202461803,-0.116
1748284568210148228,-0.111
1748284568217834653,-0.114
1748284568225521078,-0.111
1748284568233207503,-0.107
1748284568240893934,-0.10400000000000001,75,709
1748284568248580637,-0.107
1748284568256267340,-0.10400000000000001
1748284568263954043,-0.099
1748284568271640746,-0.10200000000000001
1748284568279327449,-0.10200000000000001
1748284568287014152,-0.097
1748284568294700855,-0.094
1748284568302387558,-0.094
1748284568310074261,-0.092
1748284568317760964,-0.09
1748284568325447667,-0.09
1748284568333134370,-0.08700000000000001
1748284568340821073,-0.08700000000000001
1748284568348507776,-0.09
1748284568356194479,-0.085
1748284568363881182,-0.082
1748284568371567885,-0.085
1748284568379254588,-0.082
1748284568386941291,-0.082
1748284568394627994,-0.09
1748284568402314697,-0.099
1748284568410001400,-0.099
1748284568417688103,-0.09
1748284568425374806,-0.07200000000000001
1748284568433061509,-0.051000000000000004
1748284568440748212,-0.043000000000000003
1748284568448434915,-0.041
1748284568456121618,-0.038
1748284568463808321,-0.055
1748284568471495024,-0.08
1748284568479181727,-0.077
1748284568486868430,-0.075
1748284568494555133,-0.08
1748284568502241836,-0.077
1748284568509928539,-0.07200000000000001
1748284568517615242,-0.08
1748284568525301945,-0.111
1748284568532988648,-0.124
1748284568540675351,0.145
1748284568548362054,0.8150000000000001
1748284568556048757,1.262
1748284568563735460,0.739
1748284568571422163,-0.333
1748284568579108866,-0.708
1748284568586795569,-0.34700000000000003
1748284568594482272,-0.199
1748284568602168975,-0.245
1748284568609855678,-0.128
1748284568617542381,-0.07200000000000001
1748284568625229084,-0.11900000000000001
1748284568632915787,-0.099
1748284568640602490,-0.063
1748284568648289193,-0.065
1748284568655975896,-0.063
1748284568663662599,-0.046
1748284568671349302,-0.043000000000000003
1748284568679036005,-0.038
1748284568686722708,-0.026000000000000002
1748284568694409411,-0.021
1748284568702096114,-0.017
1748284568709782817,-0.007
1748284568717469520,0.002
1748284568725156223,0.009000000000000001
1748284568732842926,0.019
1748284568740529629,0.029
1748284568748216332,0.036000000000000004
1748284568755903035,0.043000000000000003
1748284568763589738,0.055
1748284568771276441,0.065
1748284568778963144,0.07200000000000001
1748284568786649847,0.08
1748284568794336550,0.085
1748284568802023313,0.08700000000000001,76,720
1748284568809710016,0.08700000000000001
1748284568817396719,0.085
1748284568825083422,0.085
1748284568832770125,0.085
1748284568840456828,0.077
1748284568848143531,0.058
1748284568855830234,0.021
1748284568863516937,-0.019
1748284568871203640,-0.055
1748284568878890343,-0.082
1748284568886577046,-0.107
1748284568894263749,-0.128
1748284568901950452,-0.14300000000000002
1748284568909637155,-0.14300000000000002
1748284568917323858,-0.138
1748284568925010561,-0.14100000000000001
1748284568932697264,-0.14100000000000001
1748284568940383967,-0.138
1748284568948070670,-0.131
1748284568955757373,-0.126
1748284568963444076,-0.121
1748284568971130779,-0.124
1748284568978817482,-0.128
1748284568986504185,-0.128
1748284568994190888,-0.128
1748284569001877591,-0.128
1748284569009564294,-0.128
1748284569017250997,-0.126
1748284569024937700,-0.126
1748284569032624403,-0.133
1748284569040311106,-0.133
1748284569047997809,-0.126
1748284569055684512,-0.126
1748284569063371215,-0.133
1748284569071057918,-0.133
1748284569078744621,-0.126
1748284569086431324,-0.121
1748284569094118027,-0.121
1748284569101804730,-0.121
1748284569109491433,-0.11900000000000001
1748284569117178136,-0.11900000000000001
1748284569124864839,-0.116
1748284569132551542,-0.111
1748284569140238245,-0.114
1748284569147924948,-0.114
1748284569155611651,-0.107
1748284569163298354,-0.10200000000000001
1748284569170985057,-0.099
1748284569178671760,-0.099
1748284569186358463,-0.10400000000000001
1748284569194045166,-0.107
1748284569201731869,-0.10200000000000001
1748284569209418572,-0.097
1748284569217105275,-0.097
1748284569224791978,-0.094
1748284569232478681,-0.09
1748284569240165384,-0.09
1748284569247852087,-0.09
1748284569255538790,-0.08700000000000001
1748284569263225493,-0.085
1748284569270912196,-0.08700000000000001
1748284569278598899,-0.09
1748284569286285602,-0.085
1748284569293972305,-0.082
1748284569301659008,-0.085
1748284569309345711,-0.085
1748284569317032414,-0.085
1748284569324719117,-0.08700000000000001
1748284569332405820,-0.085
1748284569340092523,-0.068
1748284569347779226,-0.051000000000000004
1748284569355465929,-0.046
1748284569363152696,-0.043000000000000003
1748284569370838981,-0.048
1748284569378525266,-0.07
1748284569386211551,-0.077
1748284569393897836,-0.07200000000000001
1748284569401584121,-0.08
1748284569409270406,-0.085
1748284569416956691,-0.082
1748284569424642976,-0.08
1748284569432329261,-0.085
1748284569440015546,-0.08
1748284569447701831,0.128
1748284569455388116,0.712
1748284569463074401,1.167
1748284569470760686,0.683
1748284569478446971,-0.399
1748284569486133256,-0.8150000000000001
1748284569493819541,-0.467
1748284569501505826,-0.299
1748284569509192111,-0.321
1748284569516878396,-0.153
1748284569524564681,-0.038
1748284569532250966,-0.077
1748284569539937251,-0.07200000000000001
1748284569547623536,-0.031
1748284569555309821,-0.031
1748284569562996106,-0.031
1748284569570682391,-0.012
1748284569578368676,-0.007
1748284569586054961,-0.004
1748284569593741246,0.007
1748284569601427531,0.019
1748284569609113816,0.026000000000000002
1748284569616800101,0.031
1748284569624486386,0.034
1748284569632172671,0.046
1748284569639858956,0.06
1748284569647545241,0.07
1748284569655231526,0.077
1748284569662917811,0.09
1748284569670604096,0.107
1748284569678290381,0.11900000000000001
1748284569685976666,0.126
1748284569693662951,0.133
1748284569701349236,0.131
1748284569709035521,0.14100000000000001
1748284569716721806,0.148
1748284569724408091,0.133
1748284569732094376,0.124
1748284569739780661,0.121
1748284569747466946,0.099
1748284569755153231,0.065
1748284569762839516,0.031
1748284569770525801,-0.021
1748284569778212086,-0.08
1748284569785898371,-0.114
1748284569793584656,-0.138
1748284569801270941,-0.158
1748284569808957226,-0.17
1748284569816643511,-0.17500000000000002
1748284569824329796,-0.17
1748284569832016081,-0.158
1748284569839702366,-0.15
1748284569847388651,-0.148
1748284569855074936,-0.138
1748284569862761221,-0.121
1748284569870447506,-0.114
1748284569878133791,-0.116
1748284569885820076,-0.116
1748284569893506361,-0.114
1748284569901192646,-0.116
1748284569908878931,-0.11900000000000001
1748284569916565216,-0.116
1748284569924251557,-0.124,76,749
1748284569931938260,-0.136
1748284569939624963,-0.138
1748284569947311666,-0.133
1748284569954998369,-0.133
1748284569962685072,-0.138
1748284569970371775,-0.14100000000000001
1748284569978058478,-0.138
1748284569985745181,-0.136
1748284569993431884,-0.131
1748284570001118587,-0.131
1748284570008805290,-0.136
1748284570016491993,-0.131
1748284570024178696,-0.126
1748284570031865399,-0.124
1748284570039552102,-0.124
1748284570047238805,-0.124
1748284570054925508,-0.124
1748284570062612211,-0.11900000000000001
1748284570070298914,-0.116
1748284570077985617,-0.116
1748284570085672320,-0.114
1748284570093359023,-0.111
1748284570101045726,-0.109
1748284570108732429,-0.107
1748284570116419132,-0.10400000000000001
1748284570124105835,-0.10200000000000001
1748284570131792538,-0.10400000000000001
1748284570139479241,-0.107
1748284570147165944,-0.107
1748284570154852647,-0.109
1748284570162539350,-0.10400000000000001
1748284570170226053,-0.08700000000000001
1748284570177912756,-0.07
1748284570185599459,-0.058
1748284570193286162,-0.053
1748284570200972865,-0.058
1748284570208659568,-0.08
1748284570216346271,-0.09
1748284570224032974,-0.09
1748284570231719677,-0.09
1748284570239406380,-0.08700000000000001
1748284570247093083,-0.082
1748284570254779786,-0.085
1748284570262466489,-0.097
1748284570270153192,-0.111
1748284570277839895,0.004
1748284570285526598,0.489
1748284570293213301,1.092
1748284570300900004,0.9580000000000001
1748284570308586707,-0.058
1748284570316273410,-0.788
1748284570323960113,-0.588
1748284570331646816,-0.306
1748284570339333519,-0.33
1748284570347020222,-0.211
1748284570354706925,-0.043000000000000003
1748284570362393628,-0.063
1748284570370080331,-0.08700000000000001
1748284570377767034,-0.036000000000000004
1748284570385453737,-0.031
1748284570393140440,-0.046
1748284570400827143,-0.024
1748284570408513846,-0.004
1748284570416200549,-0.007
1748284570423887252,-0.002
1748284570431573955,0.007
1748284570439260658,0.014
1748284570446947361,0.019
1748284570454634064,0.026000000000000002
1748284570462320767,0.036000000000000004
1748284570470007470,0.048
1748284570477694173,0.058
1748284570485380936,0.068
1748284570493067500,0.082
1748284570500754064,0.094
1748284570508440628,0.10400000000000001
1748284570516127192,0.124
1748284570523813756,0.14300000000000002
1748284570531500320,0.153
1748284570539186884,0.153
1748284570546873448,0.153
1748284570554560012,0.158
1748284570562246576,0.155
1748284570569933140,0.14300000000000002
1748284570577619704,0.126
1748284570585306268,0.09
1748284570592992832,0.038
1748284570600679396,-0.017
1748284570608365960,-0.07
1748284570616052524,-0.116
1748284570623739088,-0.153
1748284570631425652,-0.177
1748284570639112216,-0.184
1748284570646798780,-0.187
1748284570654485344,-0.187
1748284570662171908,-0.18
1748284570669858472,-0.17
1748284570677545036,-0.158
1748284570685231600,-0.145
1748284570692918164,-0.14100000000000001
1748284570700604728,-0.133
1748284570708291292,-0.124
1748284570715977856,-0.11900000000000001
1748284570723664420,-0.11900000000000001
1748284570731350984,-0.11900000000000001
1748284570739037548,-0.11900000000000001
1748284570746724112,-0.11900000000000001
1748284570754410676,-0.11900000000000001
1748284570762097240,-0.126
1748284570769783804,-0.128
1748284570777470368,-0.126
1748284570785156932,-0.128
1748284570792843496,-0.128
1748284570800530060,-0.124
1748284570808216624,-0.124
1748284570815903188,-0.126
1748284570823589752,-0.126
1748284570831276316,-0.124
1748284570838962880,-0.121
1748284570846649444,-0.11900000000000001
1748284570854336008,-0.11900000000000001
1748284570862022572,-0.114
1748284570869709136,-0.109
1748284570877395700,-0.109
1748284570885082264,-0.109
1748284570892768828,-0.107
1748284570900455392,-0.107
1748284570908141956,-0.10400000000000001
1748284570915828520,-0.10200000000000001
1748284570923515084,-0.099
1748284570931201648,-0.097
1748284570938888212,-0.094
1748284570946574776,-0.092
1748284570954261340,-0.09
1748284570961947904,-0.08700000000000001
1748284570969634468,-0.09
1748284570977321032,-0.092
1748284570985007596,-0.09
1748284570992694160,-0.092
1748284571000380724,-0.10200000000000001
1748284571008067288,-0.10400000000000001
1748284571015753852,-0.094
1748284571023440416,-0.08
1748284571031126980,-0.065
1748284571038813544,-0.055
1748284571046500145,-0.046,77,896
1748284571054186570,-0.038
1748284571061872995,-0.055
1748284571069559420,-0.077
1748284571077245845,-0.077
1748284571084932270,-0.075
1748284571092618695,-0.08
1748284571100305120,-0.077
1748284571107991545,-0.07200000000000001
1748284571115677970,-0.08
1748284571123364395,-0.114
1748284571131050820,-0.14300000000000002
1748284571138737245,0.099
1748284571146423670,0.754
1748284571154110095,1.272
1748284571161796520,0.883
1748284571169482945,-0.182
1748284571177169370,-0.6880000000000001
1748284571184855795,-0.367
1748284571192542220,-0.17200000000000001
1748284571200228645,-0.233
1748284571207915070,-0.14300000000000002
1748284571215601495,-0.075
1748284571223287920,-0.116
1748284571230974345,-0.10400000000000001
1748284571238660770,-0.068
1748284571246347195,-0.07200000000000001
1748284571254033620,-0.07
1748284571261720045,-0.051000000000000004
1748284571269406470,-0.046
1748284571277092895,-0.043000000000000003
1748284571284779320,-0.031
1748284571292465745,-0.024
1748284571300152170,-0.021
1748284571307838595,-0.014
1748284571315525020,-0.002
1748284571323211445,0.004
1748284571330897870,0.012
1748284571338584295,0.024
1748284571346270720,0.036000000000000004
1748284571353957145,0.046
1748284571361643570,0.06
1748284571369329995,0.077
1748284571377016420,0.092
1748284571384702845,0.10400000000000001
1748284571392389270,0.116
1748284571400075695,0.11900000000000001
1748284571407762120,0.121
1748284571415448545,0.121
1748284571423134970,0.11900000000000001
1748284571430821395,0.111
1748284571438507820,0.09
1748284571446194245,0.051000000000000004
1748284571453880670,0.002
1748284571461567095,-0.041
1748284571469253520,-0.08
1748284571476939945,-0.114
1748284571484626370,-0.14100000000000001
1748284571492312795,-0.153
1748284571499999220,-0.16
1748284571507685645,-0.163
1748284571515372070,-0.158
1748284571523058495,-0.155
1748284571530744920,-0.153
1748284571538431345,-0.148
1748284571546117770,-0.14100000000000001
1748284571553804195,-0.136
1748284571561490620,-0.136
1748284571569177045,-0.128
1748284571576863470,-0.126
1748284571584549895,-0.126
1748284571592236320,-0.126
1748284571599922745,-0.124
1748284571607609176,-0.121
1748284571615295879,-0.121
1748284571622982582,-0.11900000000000001
1748284571630669285,-0.121
1748284571638355988,-0.121
1748284571646042691,-0.116
1748284571653729394,-0.121
1748284571661416097,-0.124
1748284571669102800,-0.11900000000000001
1748284571676789503,-0.114
1748284571684476206,-0.116
1748284571692162909,-0.116
1748284571699849612,-0.111
1748284571707536315,-0.109
1748284571715223018,-0.109
1748284571722909721,-0.107
1748284571730596424,-0.10400000000000001
1748284571738283127,-0.10200000000000001
1748284571745969830,-0.10200000000000001
1748284571753656533,-0.10200000000000001
1748284571761343236,-0.099
1748284571769029939,-0.094
1748284571776716642,-0.092
1748284571784403345,-0.094
1748284571792090048,-0.092
1748284571799776751,-0.09
1748284571807463454,-0.09
1748284571815150157,-0.09
1748284571822836860,-0.09
1748284571830523563,-0.085
1748284571838210266,-0.082
1748284571845896969,-0.082
1748284571853583672,-0.085
1748284571861270375,-0.085
1748284571868957078,-0.082
1748284571876643781,-0.077
1748284571884330484,-0.077
1748284571892017187,-0.08
1748284571899703890,-0.077
1748284571907390593,-0.075
1748284571915077296,-0.075
1748284571922763999,-0.075
1748284571930450702,-0.075
1748284571938137405,-0.08
1748284571945824108,-0.08700000000000001
1748284571953510811,-0.09
1748284571961197514,-0.08
1748284571968884217,-0.063
1748284571976570920,-0.051000000000000004
1748284571984257623,-0.046
1748284571991944326,-0.031
1748284571999631029,-0.026000000000000002
1748284572007317732,-0.053
1748284572015004435,-0.075
1748284572022691138,-0.07200000000000001
1748284572030377841,-0.07
1748284572038064544,-0.07
1748284572045751247,-0.068
1748284572053437950,-0.068
1748284572061124653,-0.08
1748284572068811356,-0.116
1748284572076498059,-0.116
1748284572084184762,0.20400000000000001
1748284572091871465,0.902
1748284572099558168,1.289
1748284572107244871,0.6910000000000001
1748284572114931574,-0.357
1748284572122618277,-0.666
1748284572130304980,-0.316
1748284572137991683,-0.201
1748284572145678386,-0.23600000000000002
1748284572153365089,-0.11900000000000001
1748284572161051792,-0.08
1748284572168738555,-0.121,76,907
1748284572176424910,-0.092,,833
1748284572184111265,-0.063
1748284572191797620,-0.075
1748284572199483975,-0.065
1748284572207170330,-0.048
1748284572214856685,-0.046
1748284572222543040,-0.041
1748284572230229395,-0.029
1748284572237915750,-0.017
1748284572245602105,-0.014
1748284572253288460,-0.009000000000000001
1748284572260974815,0.002
1748284572268661170,0.012
1748284572276347525,0.021
1748284572284033880,0.031
1748284572291720235,0.041
1748284572299406590,0.053
1748284572307092945,0.068
1748284572314779300,0.082
1748284572322465655,0.092
1748284572330152010,0.107
1748284572337838365,0.116
1748284572345524720,0.124
1748284572353211075,0.124
1748284572360897430,0.121
1748284572368583785,0.11900000000000001
1748284572376270140,0.111
1748284572383956495,0.09
1748284572391642850,0.058
1748284572399329205,0.019
1748284572407015560,-0.021
1748284572414701915,-0.063
1748284572422388270,-0.10400000000000001
1748284572430074625,-0.131
1748284572437760980,-0.145
1748284572445447335,-0.158
1748284572453133690,-0.165
1748284572460820045,-0.163
1748284572468506400,-0.158
1748284572476192755,-0.153
1748284572483879110,-0.14300000000000002
1748284572491565465,-0.136
1748284572499251820,-0.136
1748284572506938175,-0.131
1748284572514624530,-0.124
1748284572522310885,-0.124
1748284572529997240,-0.126
1748284572537683595,-0.126
1748284572545369950,-0.124
1748284572553056305,-0.126
1748284572560742660,-0.124
1748284572568429015,-0.116
1748284572576115370,-0.121
1748284572583801725,-0.126
1748284572591488080,-0.124
1748284572599174435,-0.124
1748284572606860790,-0.124
1748284572614547145,-0.116
1748284572622233500,-0.114
1748284572629919855,-0.116
1748284572637606210,-0.11900000000000001
1748284572645292565,-0.11900000000000001
1748284572652978920,-0.114
1748284572660665275,-0.109
1748284572668351630,-0.107
1748284572676037985,-0.107
1748284572683724340,-0.10400000000000001
1748284572691410695,-0.10400000000000001
1748284572699097050,-0.10400000000000001
1748284572706783405,-0.10200000000000001
1748284572714469760,-0.099
1748284572722156115,-0.097
1748284572729842507,-0.09
1748284572737529141,-0.092
1748284572745215775,-0.092
1748284572752902409,-0.09
1748284572760589043,-0.092
1748284572768275677,-0.092
1748284572775962311,-0.09
1748284572783648945,-0.085
1748284572791335579,-0.082
1748284572799022213,-0.08
1748284572806708847,-0.077
1748284572814395481,-0.077
1748284572822082115,-0.08
1748284572829768749,-0.077
1748284572837455383,-0.08
1748284572845142017,-0.077
1748284572852828651,-0.07200000000000001
1748284572860515285,-0.07200000000000001
1748284572868201919,-0.075
1748284572875888553,-0.068
1748284572883575187,-0.07
1748284572891261821,-0.077
1748284572898948455,-0.082
1748284572906635089,-0.08
1748284572914321723,-0.075
1748284572922008357,-0.07
1748284572929694991,-0.06
1748284572937381625,-0.046
1748284572945068259,-0.038
1748284572952754893,-0.031
1748284572960441527,-0.034
1748284572968128161,-0.055
1748284572975814795,-0.07200000000000001
1748284572983501429,-0.07200000000000001
1748284572991188063,-0.07200000000000001
1748284572998874697,-0.068
1748284573006561331,-0.063
1748284573014247965,-0.07
1748284573021934599,-0.08
1748284573029621233,-0.08
1748284573037307867,0.065
1748284573044994501,0.5660000000000001
1748284573052681135,1.129
1748284573060367769,0.895
1748284573068054403,-0.15
1748284573075741037,-0.785
1748284573083427671,-0.532
1748284573091114305,-0.289
1748284573098800939,-0.323
1748284573106487573,-0.194
1748284573114174207,-0.043000000000000003
1748284573121860841,-0.068
1748284573129547475,-0.077
1748284573137234109,-0.034
1748284573144920743,-0.031
1748284573152607377,-0.034
1748284573160294011,-0.014
1748284573167980645,-0.004
1748284573175667279,-0.002
1748284573183353913,0.007
1748284573191040547,0.012
1748284573198727181,0.021
1748284573206413815,0.031
1748284573214100449,0.038
1748284573221787083,0.048
1748284573229473717,0.06
1748284573237160351,0.07
1748284573244846985,0.08
1748284573252533619,0.092
1748284573260220253,0.107
1748284573267906887,0.11900000000000001
1748284573275593521,0.133
1748284573283280155,0.148
1748284573290966799,0.16,75,859
1748284573298653084,0.163
1748284573306339369,0.163
1748284573314025654,0.165
1748284573321711939,0.16
1748284573329398224,0.15
1748284573337084509,0.133
1748284573344770794,0.099
1748284573352457079,0.053
1748284573360143364,0.0
1748284573367829649,-0.053
1748284573375515934,-0.10200000000000001
1748284573383202219,-0.14100000000000001
1748284573390888504,-0.165
1748284573398574789,-0.17500000000000002
1748284573406261074,-0.177
1748284573413947359,-0.177
1748284573421633644,-0.17200000000000001
1748284573429319929,-0.167
1748284573437006214,-0.155
1748284573444692499,-0.14100000000000001
1748284573452378784,-0.131
1748284573460065069,-0.124
1748284573467751354,-0.116
1748284573475437639,-0.109
1748284573483123924,-0.107
1748284573490810209,-0.109
1748284573498496494,-0.107
1748284573506182779,-0.107
1748284573513869064,-0.111
1748284573521555349,-0.114
1748284573529241634,-0.114
1748284573536927919,-0.114
1748284573544614204,-0.11900000000000001
1748284573552300489,-0.121
1748284573559986774,-0.11900000000000001
1748284573567673059,-0.121
1748284573575359344,-0.121
1748284573583045629,-0.11900000000000001
1748284573590731914,-0.116
1748284573598418199,-0.116
1748284573606104484,-0.116
1748284573613790769,-0.116
1748284573621477054,-0.114
1748284573629163339,-0.111
1748284573636849624,-0.109
1748284573644535909,-0.109
1748284573652222194,-0.107
1748284573659908479,-0.10400000000000001
1748284573667594764,-0.10400000000000001
1748284573675281049,-0.099
1748284573682967334,-0.097
1748284573690653619,-0.094
1748284573698339904,-0.092
1748284573706026189,-0.092
1748284573713712474,-0.092
1748284573721398759,-0.09
1748284573729085044,-0.08700000000000001
1748284573736771329,-0.08700000000000001
1748284573744457614,-0.085
1748284573752143899,-0.08
1748284573759830184,-0.08
1748284573767516469,-0.08
1748284573775202754,-0.08
1748284573782889039,-0.077
1748284573790575324,-0.075
1748284573798261609,-0.077
1748284573805947894,-0.085
1748284573813634179,-0.09
1748284573821320464,-0.085
1748284573829006749,-0.075
1748284573836693034,-0.06
1748284573844379319,-0.046
1748284573852065660,-0.036000000000000004,75,943
1748284573859752363,-0.029
1748284573867439066,-0.041
1748284573875125769,-0.068
1748284573882812472,-0.075
1748284573890499175,-0.07
1748284573898185878,-0.07
1748284573905872581,-0.07
1748284573913559284,-0.068
1748284573921245987,-0.07
1748284573928932690,-0.092
1748284573936619393,-0.124
1748284573944306096,0.046
1748284573951992799,0.644
1748284573959679502,1.236
1748284573967366205,0.995
1748284573975052908,-0.038
1748284573982739611,-0.708
1748284573990426314,-0.484
1748284573998113017,-0.216
1748284574005799720,-0.24
1748284574013486423,-0.16
1748284574021173126,-0.063
1748284574028859829,-0.094
1748284574036546532,-0.099
1748284574044233235,-0.055
1748284574051919938,-0.053
1748284574059606641,-0.058
1748284574067293344,-0.038
1748284574074980047,-0.031
1748284574082666750,-0.031
1748284574090353453,-0.021
1748284574098040156,-0.014
1748284574105726859,-0.007
1748284574113413562,0.002
1748284574121100265,0.004
1748284574128786968,0.014
1748284574136473671,0.029
1748284574144160374,0.038
1748284574151847077,0.043000000000000003
1748284574159533780,0.055
1748284574167220483,0.07200000000000001
1748284574174907186,0.09
1748284574182593889,0.109
1748284574190280592,0.126
1748284574197967295,0.136
1748284574205653998,0.145
1748284574213340701,0.153
1748284574221027404,0.155
1748284574228714107,0.158
1748284574236400810,0.15
1748284574244087513,0.126
1748284574251774216,0.09
1748284574259460919,0.046
1748284574267147622,-0.007
1748284574274834325,-0.058
1748284574282521028,-0.099
1748284574290207731,-0.131
1748284574297894434,-0.153
1748284574305581137,-0.16
1748284574313267840,-0.163
1748284574320954543,-0.16
1748284574328641246,-0.158
1748284574336327949,-0.153
1748284574344014652,-0.145
1748284574351701355,-0.14100000000000001
1748284574359388058,-0.136
1748284574367074761,-0.128
1748284574374761464,-0.124
1748284574382448167,-0.124
1748284574390134870,-0.121
1748284574397821573,-0.11900000000000001
1748284574405508276,-0.116
1748284574413195039,-0.116
1748284574420881673,-0.116
1748284574428568307,-0.114
1748284574436254941,-0.114
1748284574443941575,-0.116
1748284574451628209,-0.116
1748284574459314843,-0.116
1748284574467001477,-0.116
1748284574474688111,-0.114
1748284574482374745,-0.111
1748284574490061379,-0.111
1748284574497748013,-0.111
1748284574505434647,-0.109
1748284574513121281,-0.10400000000000001
1748284574520807915,-0.10200000000000001
1748284574528494549,-0.107
1748284574536181183,-0.10200000000000001
1748284574543867817,-0.094
1748284574551554451,-0.092
1748284574559241085,-0.094
1748284574566927719,-0.094
1748284574574614353,-0.092
1748284574582300987,-0.09
1748284574589987621,-0.09
1748284574597674255,-0.08700000000000001
1748284574605360889,-0.085
1748284574613047523,-0.085
1748284574620734157,-0.085
1748284574628420791,-0.082
1748284574636107425,-0.08
1748284574643794059,-0.082
1748284574651480693,-0.08
1748284574659167327,-0.075
1748284574666853961,-0.07200000000000001
1748284574674540595,-0.075
1748284574682227229,-0.07200000000000001
1748284574689913863,-0.07
1748284574697600497,-0.07200000000000001
1748284574705287131,-0.07200000000000001
1748284574712973765,-0.07
1748284574720660399,-0.068
1748284574728347033,-0.068
1748284574736033667,-0.068
1748284574743720301,-0.065
1748284574751406935,-0.063
1748284574759093569,-0.063
1748284574766780203,-0.065
1748284574774466837,-0.063
1748284574782153471,-0.063
1748284574789840105,-0.065
1748284574797526739,-0.07
1748284574805213373,-0.075
1748284574812900007,-0.077
1748284574820586641,-0.07
1748284574828273275,-0.053
1748284574835959909,-0.038
1748284574843646543,-0.034
1748284574851333177,-0.026000000000000002
1748284574859019811,-0.024
1748284574866706445,-0.048
1748284574874393079,-0.063
1748284574882079713,-0.06
1748284574889766347,-0.065
1748284574897452981,-0.068
1748284574905139615,-0.063
1748284574912826249,-0.063
1748284574920512883,-0.08
1748284574928199517,-0.128
1748284574935886151,-0.075
1748284574943572785,0.382
1748284574951259419,1.099
1748284574958946053,1.2750000000000001
1748284574966632687,0.455
1748284574974319335,-0.508,74,956
1748284574982005690,-0.581
1748284574989692045,-0.23600000000000002
1748284574997378400,-0.214
1748284575005064755,-0.216
1748284575012751110,-0.099
1748284575020437465,-0.094
1748284575028123820,-0.124
1748284575035810175,-0.082
1748284575043496530,-0.068
1748284575051182885,-0.08
1748284575058869240,-0.06
1748284575066555595,-0.041
1748284575074241950,-0.041
1748284575081928305,-0.034
1748284575089614660,-0.024
1748284575097301015,-0.024
1748284575104987370,-0.017
1748284575112673725,-0.002
1748284575120360080,0.004
1748284575128046435,0.009000000000000001
1748284575135732790,0.019
1748284575143419145,0.031
1748284575151105500,0.043000000000000003
1748284575158791855,0.058
1748284575166478210,0.07200000000000001
1748284575174164565,0.08700000000000001
1748284575181850920,0.10400000000000001
1748284575189537275,0.116
1748284575197223630,0.126
1748284575204909985,0.133
1748284575212596340,0.138
1748284575220282695,0.14100000000000001
1748284575227969050,0.136
1748284575235655405,0.126
1748284575243341760,0.10400000000000001
1748284575251028115,0.07
1748284575258714470,0.024
1748284575266400825,-0.024
1748284575274087180,-0.065
1748284575281773535,-0.10200000000000001
1748284575289459890,-0.128
1748284575297146245,-0.145
1748284575304832600,-0.153
1748284575312518955,-0.155
1748284575320205310,-0.155
1748284575327891665,-0.15
1748284575335578020,-0.145
1748284575343264375,-0.14300000000000002
1748284575350950730,-0.136
1748284575358637085,-0.131
1748284575366323440,-0.126
1748284575374009795,-0.121
1748284575381696150,-0.121
1748284575389382505,-0.11900000000000001
1748284575397068860,-0.11900000000000001
1748284575404755215,-0.11900000000000001
1748284575412441570,-0.116
1748284575420127925,-0.114
1748284575427814280,-0.114
1748284575435500635,-0.116
1748284575443186990,-0.116
1748284575450873345,-0.116
1748284575458559700,-0.114
1748284575466246055,-0.114
1748284575473932410,-0.114
1748284575481618765,-0.111
1748284575489305120,-0.111
1748284575496991475,-0.111
1748284575504677830,-0.111
1748284575512364185,-0.109
1748284575520050540,-0.107
1748284575527736895,-0.107
1748284575535423279,-0.107
1748284575543109982,-0.10400000000000001
1748284575550796685,-0.099
1748284575558483388,-0.097
1748284575566170091,-0.097
1748284575573856794,-0.097
1748284575581543497,-0.094
1748284575589230200,-0.092
1748284575596916903,-0.092
1748284575604603606,-0.092
1748284575612290309,-0.08700000000000001
1748284575619977012,-0.09
1748284575627663715,-0.092
1748284575635350418,-0.09
1748284575643037121,-0.085
1748284575650723824,-0.08700000000000001
1748284575658410527,-0.09
1748284575666097230,-0.082
1748284575673783933,-0.077
1748284575681470636,-0.08
1748284575689157339,-0.08
1748284575696844042,-0.077
1748284575704530745,-0.077
1748284575712217448,-0.08
1748284575719904151,-0.075
1748284575727590854,-0.07
1748284575735277557,-0.07
1748284575742964260,-0.075
1748284575750650963,-0.075
1748284575758337666,-0.07
1748284575766024369,-0.07
1748284575773711072,-0.068
1748284575781397775,-0.068
1748284575789084478,-0.068
1748284575796771181,-0.068
1748284575804457884,-0.065
1748284575812144587,-0.063
1748284575819831290,-0.063
1748284575827517993,-0.068
1748284575835204696,-0.075
1748284575842891399,-0.08
1748284575850578102,-0.077
1748284575858264805,-0.07200000000000001
1748284575865951508,-0.06
1748284575873638211,-0.046
1748284575881324914,-0.036000000000000004
1748284575889011617,-0.029
1748284575896698320,-0.029
1748284575904385023,-0.048
1748284575912071726,-0.068
1748284575919758429,-0.065
1748284575927445132,-0.065
1748284575935131835,-0.068
1748284575942818538,-0.063
1748284575950505241,-0.058
1748284575958191944,-0.07200000000000001
1748284575965878647,-0.109
1748284575973565350,-0.046
1748284575981252053,0.389
1748284575988938756,1.073
1748284575996625459,1.194
1748284576004312162,0.338
1748284576011998865,-0.5760000000000001
1748284576019685568,-0.605
1748284576027372271,-0.274
1748284576035058974,-0.25
1748284576042745677,-0.221
1748284576050432380,-0.077
1748284576058119083,-0.068
1748284576065805786,-0.107
1748284576073492489,-0.07200000000000001
1748284576081179192,-0.053
1748284576088865895,-0.053
1748284576096552662,-0.036000000000000004,73,907
1748284576104239087,-0.026000000000000002
1748284576111925512,-0.026000000000000002
1748284576119611937,-0.014
1748284576127298362,-0.004
1748284576134984787,-0.002
1748284576142671212,0.007
1748284576150357637,0.017
1748284576158044062,0.021
1748284576165730487,0.036000000000000004
1748284576173416912,0.048
1748284576181103337,0.058
1748284576188789762,0.07200000000000001
1748284576196476187,0.085
1748284576204162612,0.097
1748284576211849037,0.114
1748284576219535462,0.133
1748284576227221887,0.148
1748284576234908312,0.153
1748284576242594737,0.158
1748284576250281162,0.165
1748284576257967587,0.158
1748284576265654012,0.145
1748284576273340437,0.136
1748284576281026862,0.11900000000000001
1748284576288713287,0.08
1748284576296399712,0.026000000000000002
1748284576304086137,-0.024
1748284576311772562,-0.068
1748284576319458987,-0.111
1748284576327145412,-0.15
1748284576334831837,-0.17500000000000002
1748284576342518262,-0.184
1748284576350204687,-0.182
1748284576357891112,-0.177
1748284576365577537,-0.17500000000000002
1748284576373263962,-0.163
1748284576380950387,-0.153
1748284576388636812,-0.153
1748284576396323237,-0.145
1748284576404009662,-0.131
1748284576411696087,-0.124
1748284576419382512,-0.126
1748284576427068937,-0.124
1748284576434755362,-0.11900000000000001
1748284576442441787,-0.116
1748284576450128212,-0.11900000000000001
1748284576457814637,-0.121
1748284576465501062,-0.126
1748284576473187487,-0.128
1748284576480873912,-0.128
1748284576488560337,-0.126
1748284576496246762,-0.131
1748284576503933187,-0.131
1748284576511619612,-0.126
1748284576519306037,-0.128
1748284576526992462,-0.128
1748284576534678887,-0.128
1748284576542365312,-0.128
1748284576550051737,-0.124
1748284576557738162,-0.124
1748284576565424587,-0.126
1748284576573111012,-0.121
1748284576580797437,-0.11900000000000001
1748284576588483862,-0.121
1748284576596170287,-0.111
1748284576603856712,-0.109
1748284576611543137,-0.116
1748284576619229562,-0.111
1748284576626915987,-0.10400000000000001
1748284576634602412,-0.10400000000000001
1748284576642288837,-0.107
1748284576649975262,-0.107
1748284576657661697,-0.10400000000000001
1748284576665348261,-0.097
1748284576673034825,-0.094
1748284576680721389,-0.099
1748284576688407953,-0.097
1748284576696094517,-0.092
1748284576703781081,-0.094
1748284576711467645,-0.09
1748284576719154209,-0.082
1748284576726840773,-0.09
1748284576734527337,-0.092
1748284576742213901,-0.09
1748284576749900465,-0.092
1748284576757587029,-0.09
1748284576765273593,-0.085
1748284576772960157,-0.077
1748284576780646721,-0.068
1748284576788333285,-0.055
1748284576796019849,-0.036000000000000004
1748284576803706413,-0.038
1748284576811392977,-0.068
1748284576819079541,-0.08
1748284576826766105,-0.077
1748284576834452669,-0.085
1748284576842139233,-0.08700000000000001
1748284576849825797,-0.08
1748284576857512361,-0.075
1748284576865198925,-0.08
1748284576872885489,-0.085
1748284576880572053,0.041
1748284576888258617,0.51
1748284576895945181,1.097
1748284576903631745,0.973
1748284576911318309,-0.046
1748284576919004873,-0.798
1748284576926691437,-0.605
1748284576934378001,-0.309
1748284576942064565,-0.33
1748284576949751129,-0.221
1748284576957437693,-0.048
1748284576965124257,-0.055
1748284576972810821,-0.077
1748284576980497385,-0.034
1748284576988183949,-0.017
1748284576995870513,-0.026000000000000002
1748284577003557077,-0.014
1748284577011243641,0.0
1748284577018930205,0.004
1748284577026616769,0.009000000000000001
1748284577034303333,0.019
1748284577041989897,0.026000000000000002
1748284577049676461,0.031
1748284577057363025,0.041
1748284577065049589,0.053
1748284577072736153,0.06
1748284577080422717,0.07200000000000001
1748284577088109281,0.08700000000000001
1748284577095795845,0.10400000000000001
1748284577103482409,0.121
1748284577111168973,0.138
1748284577118855537,0.16
1748284577126542101,0.18
1748284577134228665,0.192
1748284577141915229,0.199
1748284577149601793,0.20400000000000001
1748284577157288357,0.20400000000000001
1748284577164974921,0.199
1748284577172661485,0.184
1748284577180348049,0.16
1748284577188034613,0.121
1748284577195721177,0.065
1748284577203407741,0.004
1748284577211094305,-0.053
1748284577218780902,-0.10400000000000001,72,994
1748284577226467466,-0.148
1748284577234154030,-0.177
1748284577241840594,-0.192
1748284577249527158,-0.197
1748284577257213722,-0.194
1748284577264900286,-0.192
1748284577272586850,-0.184
1748284577280273414,-0.17200000000000001
1748284577287959978,-0.163
1748284577295646542,-0.15
1748284577303333106,-0.138
1748284577311019670,-0.131
1748284577318706234,-0.124
1748284577326392798,-0.116
1748284577334079362,-0.111
1748284577341765926,-0.114
1748284577349452490,-0.116
1748284577357139054,-0.116
1748284577364825618,-0.116
1748284577372512182,-0.116
