time,ecg,hr,rr,marker
1746649402615811930,0.064,79,795
1746649402623499887,0.076
1746649402631187844,0.041
1746649402638875801,0.061
1746649402646563758,0.096
1746649402654251715,0.083
1746649402661939672,0.08600000000000001
1746649402669627629,0.128
1746649402677315586,0.138
1746649402685003543,0.108
1746649402692691500,0.12
1746649402700379457,0.152
1746649402708067414,0.14300000000000002
1746649402715755371,0.152
1746649402723443328,0.182
1746649402731131285,0.167
1746649402738819242,0.147
1746649402746507199,0.138
1746649402754195156,0.083
1746649402761883113,0.041
1746649402769571070,0.014
1746649402777259027,-0.036000000000000004
1746649402784946984,-0.056
1746649402792634941,-0.056
1746649402800322898,-0.076
1746649402808010855,-0.098
1746649402815698812,-0.098
1746649402823386769,-0.091
1746649402831074726,-0.096
1746649402838762683,-0.076
1746649402846450640,-0.051000000000000004
1746649402854138597,-0.046
1746649402861826554,-0.064
1746649402869514511,-0.093
1746649402877202468,-0.073
1746649402884890425,-0.032
1746649402892578382,-0.059000000000000004
1746649402900266339,-0.073
1746649402907954296,-0.014
1746649402915642253,-0.009000000000000001
1746649402923330210,-0.056
1746649402931018167,-0.046
1746649402938706124,-0.032
1746649402946394081,-0.064
1746649402954082038,-0.056
1746649402961769995,-0.022
1746649402969457952,-0.041
1746649402977145909,-0.07100000000000001
1746649402984833866,-0.051000000000000004
1746649402992521823,-0.029
1746649403000209780,-0.034
1746649403007897737,-0.051000000000000004
1746649403015585694,-0.059000000000000004
1746649403023273651,-0.039
1746649403030961608,-0.024
1746649403038649565,-0.027
1746649403046337522,-0.036000000000000004
1746649403054025479,-0.046
1746649403061713436,-0.044
1746649403069401393,-0.024
1746649403077089350,-0.032
1746649403084777307,-0.061
1746649403092465264,-0.044
1746649403100153221,-0.007
1746649403107841178,-0.004
1746649403115529135,-0.029
1746649403123217092,-0.046
1746649403130905049,-0.044
1746649403138593006,-0.022
1746649403146280963,-0.009000000000000001
1746649403153968920,-0.014
1746649403161656877,0.014
1746649403169344834,0.046
1746649403177032863,0.014
1746649403184720681,-0.029
1746649403192408499,-0.019
1746649403200096317,-0.007
1746649403207784135,-0.019
1746649403215471953,-0.024
1746649403223159771,-0.017
1746649403230847589,-0.027
1746649403238535407,-0.066
1746649403246223225,-0.073
1746649403253911043,0.051000000000000004
1746649403261598861,0.429
1746649403269286679,0.853
1746649403276974497,0.72
1746649403284662315,0.027
1746649403292350133,-0.41600000000000004
1746649403300037951,-0.32
1746649403307725769,-0.192
1746649403315413587,-0.184
1746649403323101405,-0.078
1746649403330789223,0.009000000000000001
1746649403338477041,-0.027
1746649403346164859,-0.041
1746649403353852677,0.002
1746649403361540495,0.022
1746649403369228313,0.004
1746649403376916131,-0.017
1746649403384603949,-0.009000000000000001
1746649403392291767,0.022
1746649403399979585,0.027
1746649403407667403,0.039
1746649403415355221,0.064
1746649403423043039,0.032
1746649403430730857,0.027
1746649403438418675,0.069
1746649403446106493,0.064
1746649403453794311,0.054
1746649403461482129,0.093
1746649403469169947,0.101
1746649403476857765,0.081
1746649403484545583,0.133
1746649403492233401,0.184
1746649403499921219,0.155
1746649403507609037,0.115
1746649403515296855,0.128
1746649403522984673,0.155
1746649403530672491,0.167
1746649403538360309,0.16
1746649403546048127,0.138
1746649403553735945,0.125
1746649403561423763,0.093
1746649403569111581,0.022
1746649403576799399,-0.019
1746649403584487217,-0.024
1746649403592175035,-0.069
1746649403599862853,-0.11
1746649403607550671,-0.11
1746649403615238489,-0.113
1746649403622926307,-0.096
1746649403630614125,-0.076
1746649403638301943,-0.093
1746649403645989761,-0.113
1746649403653677579,-0.10300000000000001
1746649403661365397,-0.049
1746649403669053215,-0.032
1746649403676741033,-0.096
1746649403684428851,-0.115
1746649403692116669,-0.054
1746649403699804487,-0.024
1746649403707492305,-0.049
1746649403715180123,-0.054
1746649403722867941,-0.036000000000000004
1746649403730555759,-0.041
1746649403738243626,-0.051000000000000004,79,828
1746649403745931305,-0.044
1746649403753618984,-0.046
1746649403761306663,-0.064
1746649403768994342,-0.064
1746649403776682021,-0.061
1746649403784369700,-0.056
1746649403792057379,-0.032
1746649403799745058,-0.044
1746649403807432737,-0.073
1746649403815120416,-0.039
1746649403822808095,0.004
1746649403830495774,-0.022
1746649403838183453,-0.069
1746649403845871132,-0.056
1746649403853558811,-0.012
1746649403861246490,-0.019
1746649403868934169,-0.054
1746649403876621848,-0.034
1746649403884309527,-0.007
1746649403891997206,-0.024
1746649403899684885,-0.029
1746649403907372564,-0.029
1746649403915060243,-0.022
1746649403922747922,0.027
1746649403930435601,0.029
1746649403938123280,-0.017
1746649403945810959,0.007
1746649403953498638,0.019
1746649403961186317,-0.039
1746649403968873996,-0.012
1746649403976561675,0.044
1746649403984249354,-0.017
1746649403991937033,-0.054
1746649403999624712,-0.019
1746649404007312391,-0.007
1746649404015000070,-0.012
1746649404022687749,-0.027
1746649404030375428,0.078
1746649404038063107,0.503
1746649404045750786,0.909
1746649404053438465,0.641
1746649404061126144,-0.10300000000000001
1746649404068813823,-0.441
1746649404076501502,-0.29
1746649404084189181,-0.197
1746649404091876860,-0.17200000000000001
1746649404099564539,-0.064
1746649404107252218,-0.004
1746649404114939897,-0.014
1746649404122627576,0.017
1746649404130315255,0.034
1746649404138002934,0.002
1746649404145690613,0.024
1746649404153378292,0.07100000000000001
1746649404161065971,0.056
1746649404168753650,0.034
1746649404176441329,0.054
1746649404184129008,0.078
1746649404191816687,0.076
1746649404199504366,0.066
1746649404207192045,0.078
1746649404214879724,0.076
1746649404222567403,0.081
1746649404230255082,0.12
1746649404237942761,0.115
1746649404245630440,0.113
1746649404253318119,0.165
1746649404261005798,0.187
1746649404268693477,0.184
1746649404276381156,0.212
1746649404284068835,0.212
1746649404291756514,0.192
1746649404299444211,0.184
1746649404307132168,0.167
1746649404314820125,0.187
1746649404322508082,0.226
1746649404330196039,0.15
1746649404337883996,0.039
1746649404345571953,0.054
1746649404353259910,0.059000000000000004
1746649404360947867,-0.012
1746649404368635824,-0.059000000000000004
1746649404376323781,-0.078
1746649404384011738,-0.069
1746649404391699695,-0.041
1746649404399387652,-0.073
1746649404407075609,-0.098
1746649404414763566,-0.051000000000000004
1746649404422451523,-0.022
1746649404430139480,-0.056
1746649404437827437,-0.073
1746649404445515394,-0.036000000000000004
1746649404453203351,-0.012
1746649404460891308,-0.073
1746649404468579265,-0.091
1746649404476267222,-0.004
1746649404483955179,0.039
1746649404491643136,-0.004
1746649404499331093,-0.034
1746649404507019050,-0.022
1746649404514707007,0.0
1746649404522394964,-0.009000000000000001
1746649404530082921,-0.041
1746649404537770878,-0.044
1746649404545458835,-0.029
1746649404553146792,-0.017
1746649404560834749,0.029
1746649404568522706,0.046
1746649404576210663,-0.036000000000000004
1746649404583898620,-0.073
1746649404591586577,0.0
1746649404599274534,0.004
1746649404606962491,-0.039
1746649404614650448,-0.002
1746649404622338405,0.017
1746649404630026362,-0.019
1746649404637714319,-0.022
1746649404645402276,-0.004
1746649404653090233,0.004
1746649404660778190,0.004
1746649404668466147,-0.004
1746649404676154104,0.027
1746649404683842061,0.066
1746649404691530018,0.054
1746649404699217975,0.039
1746649404706905932,0.017
1746649404714593889,-0.007
1746649404722281846,0.036000000000000004
1746649404729969803,0.069
1746649404737657760,0.024
1746649404745345717,-0.024
1746649404753033674,-0.024
1746649404760721631,0.044
1746649404768409588,0.07100000000000001
1746649404776097545,-0.056
1746649404783785502,-0.076
1746649404791473459,0.20700000000000002
1746649404799161416,0.594
1746649404806849373,0.8180000000000001
1746649404814537330,0.628
1746649404822225287,0.027
1746649404829913244,-0.387
1746649404837601201,-0.268
1746649404845289158,-0.11800000000000001
1746649404852977115,-0.16
1746649404860665144,-0.096,79,838
1746649404868353102,0.044
1746649404876041060,0.069
1746649404883729018,0.017
1746649404891416976,0.012
1746649404899104934,0.078
1746649404906792892,0.078
1746649404914480850,0.009000000000000001
1746649404922168808,0.049
1746649404929856766,0.14
1746649404937544724,0.128
1746649404945232682,0.10300000000000001
1746649404952920640,0.10300000000000001
1746649404960608598,0.064
1746649404968296556,0.061
1746649404975984514,0.108
1746649404983672472,0.133
1746649404991360430,0.128
1746649404999048388,0.115
1746649405006736346,0.133
1746649405014424304,0.17200000000000001
1746649405022112262,0.194
1746649405029800220,0.202
1746649405037488178,0.202
1746649405045176136,0.184
1746649405052864094,0.187
1746649405060552052,0.229
1746649405068240010,0.23900000000000002
1746649405075927968,0.197
1746649405083615926,0.162
1746649405091303884,0.13
1746649405098991842,0.108
1746649405106679800,0.076
1746649405114367758,0.022
1746649405122055716,-0.059000000000000004
1746649405129743674,-0.13
1746649405137431632,-0.098
1746649405145119590,-0.039
1746649405152807548,-0.081
1746649405160495506,-0.138
1746649405168183464,-0.11800000000000001
1746649405175871422,-0.069
1746649405183559380,-0.056
1746649405191247338,-0.08600000000000001
1746649405198935296,-0.098
1746649405206623254,-0.064
1746649405214311212,-0.036000000000000004
1746649405221999170,-0.041
1746649405229687128,-0.034
1746649405237375086,-0.044
1746649405245063044,-0.046
1746649405252751002,-0.041
1746649405260438960,-0.101
1746649405268126918,-0.10300000000000001
1746649405275814876,-0.014
1746649405283502834,-0.059000000000000004
1746649405291190792,-0.133
1746649405298878750,-0.061
1746649405306566708,-0.032
1746649405314254666,-0.083
1746649405321942624,-0.056
1746649405329630582,-0.027
1746649405337318540,-0.083
1746649405345006498,-0.081
1746649405352694456,-0.014
1746649405360382414,-0.051000000000000004
1746649405368070372,-0.11
1746649405375758330,-0.091
1746649405383446288,-0.054
1746649405391134246,-0.036000000000000004
1746649405398822204,-0.036000000000000004
1746649405406510162,-0.046
1746649405414198120,-0.051000000000000004
1746649405421886081,-0.036000000000000004,78,807
1746649405429574038,-0.051000000000000004,,775
1746649405437261995,-0.044
1746649405444949952,0.036000000000000004
1746649405452637909,0.022
1746649405460325866,-0.08600000000000001
1746649405468013823,-0.088
1746649405475701780,-0.036000000000000004
1746649405483389737,-0.07100000000000001
1746649405491077694,-0.101
1746649405498765651,-0.051000000000000004
1746649405506453608,-0.024
1746649405514141565,-0.056
1746649405521829522,-0.064
1746649405529517479,-0.069
1746649405537205436,0.113
1746649405544893393,0.66
1746649405552581350,0.9390000000000001
1746649405560269307,0.453
1746649405567957264,-0.192
1746649405575645221,-0.384
1746649405583333178,-0.28800000000000003
1746649405591021135,-0.216
1746649405598709092,-0.165
1746649405606397049,-0.113
1746649405614085006,-0.10300000000000001
1746649405621772963,-0.091
1746649405629460920,-0.027
1746649405637148877,-0.024
1746649405644836834,-0.081
1746649405652524791,-0.073
1746649405660212748,-0.059000000000000004
1746649405667900705,-0.049
1746649405675588662,0.002
1746649405683276619,-0.017
1746649405690964576,-0.081
1746649405698652533,-0.032
1746649405706340490,0.024
1746649405714028447,-0.014
1746649405721716404,-0.029
1746649405729404361,-0.002
1746649405737092318,-0.014
1746649405744780275,0.009000000000000001
1746649405752468232,0.064
1746649405760156189,0.066
1746649405767844146,0.064
1746649405775532103,0.091
1746649405783220060,0.108
1746649405790908017,0.12
1746649405798595974,0.14300000000000002
1746649405806283931,0.123
1746649405813971888,0.07100000000000001
1746649405821659845,0.083
1746649405829347802,0.093
1746649405837035759,0.027
1746649405844723716,-0.019
1746649405852411673,-0.051000000000000004
1746649405860099630,-0.123
1746649405867787587,-0.14300000000000002
1746649405875475544,-0.135
1746649405883163501,-0.18
1746649405890851458,-0.202
1746649405898539415,-0.17
1746649405906227372,-0.162
1746649405913915329,-0.18
1746649405921603286,-0.165
1746649405929291243,-0.138
1746649405936979200,-0.152
1746649405944667157,-0.17200000000000001
1746649405952355114,-0.138
1746649405960043071,-0.10300000000000001
1746649405967731028,-0.128
1746649405975418985,-0.15
1746649405983107014,-0.115
1746649405990794971,-0.088
1746649405998482928,-0.106
1746649406006170885,-0.125
1746649406013858842,-0.125
1746649406021546799,-0.11
1746649406029234756,-0.106
1746649406036922713,-0.115
1746649406044610670,-0.115
1746649406052298627,-0.098
1746649406059986584,-0.108
1746649406067674541,-0.147
1746649406075362498,-0.138
1746649406083050455,-0.10300000000000001
1746649406090738412,-0.11800000000000001
1746649406098426369,-0.128
1746649406106114326,-0.101
1746649406113802283,-0.096
1746649406121490240,-0.12
1746649406129178197,-0.13
1746649406136866154,-0.106
1746649406144554111,-0.064
1746649406152242068,-0.061
1746649406159930025,-0.093
1746649406167617982,-0.08600000000000001
1746649406175305939,-0.056
1746649406182993896,-0.059000000000000004
1746649406190681853,-0.076
1746649406198369810,-0.078
1746649406206057767,-0.064
1746649406213745724,-0.051000000000000004
1746649406221433681,-0.044
1746649406229121638,-0.073
1746649406236809595,-0.12
1746649406244497552,-0.11
1746649406252185509,-0.108
1746649406259873466,-0.123
1746649406267561423,0.061
1746649406275249380,0.54
1746649406282937337,0.845
1746649406290625294,0.441
1746649406298313251,-0.253
1746649406306001208,-0.429
1746649406313689165,-0.249
1746649406321377122,-0.244
1746649406329065079,-0.268
1746649406336753036,-0.152
1746649406344440993,-0.069
1746649406352128950,-0.07100000000000001
1746649406359816907,-0.073
1746649406367504864,-0.044
1746649406375192821,-0.032
1746649406382880778,-0.039
1746649406390568735,-0.036000000000000004
1746649406398256692,-0.027
1746649406405944649,-0.012
1746649406413632606,-0.004
1746649406421320563,-0.022
1746649406429008520,-0.024
1746649406436696477,0.012
1746649406444384434,0.032
1746649406452072391,0.027
1746649406459760348,0.039
1746649406467448305,0.059000000000000004
1746649406475136262,0.059000000000000004
1746649406482824219,0.078
1746649406490512176,0.11
1746649406498200133,0.133
1746649406505888090,0.16
1746649406513576047,0.187
1746649406521264004,0.167
1746649406528951961,0.11
1746649406536639918,0.10300000000000001
1746649406544327947,0.147,77,762
1746649406552015904,0.162
1746649406559703861,0.106
1746649406567391818,0.041
1746649406575079775,0.032
1746649406582767732,0.012
1746649406590455689,-0.059000000000000004
1746649406598143646,-0.115
1746649406605831603,-0.133
1746649406613519560,-0.145
1746649406621207517,-0.17500000000000002
1746649406628895474,-0.18
1746649406636583431,-0.13
1746649406644271388,-0.101
1746649406651959345,-0.12
1746649406659647302,-0.133
1746649406667335259,-0.133
1746649406675023216,-0.115
1746649406682711173,-0.091
1746649406690399130,-0.10300000000000001
1746649406698087087,-0.12
1746649406705775044,-0.098
1746649406713463001,-0.088
1746649406721150958,-0.096
1746649406728838915,-0.076
1746649406736526872,-0.061
1746649406744214829,-0.069
1746649406751902786,-0.066
1746649406759590743,-0.061
1746649406767278700,-0.066
1746649406774966657,-0.078
1746649406782654614,-0.076
1746649406790342571,-0.069
1746649406798030528,-0.076
1746649406805718485,-0.081
1746649406813406442,-0.073
1746649406821094399,-0.066
1746649406828782356,-0.059000000000000004
1746649406836470313,-0.051000000000000004
1746649406844158270,-0.041
1746649406851846227,-0.051000000000000004
1746649406859534184,-0.059000000000000004
1746649406867222141,-0.051000000000000004
1746649406874910098,-0.044
1746649406882598055,-0.036000000000000004
1746649406890286012,-0.022
1746649406897973969,-0.014
1746649406905661926,-0.007
1746649406913349883,0.002
1746649406921037840,-0.002
1746649406928725797,-0.014
1746649406936413754,-0.017
1746649406944101711,-0.019
1746649406951789668,-0.024
1746649406959477625,-0.014
1746649406967165582,-0.004
1746649406974853539,-0.027
1746649406982541496,-0.049
1746649406990229453,-0.049
1746649406997917410,-0.024
1746649407005605367,0.192
1746649407013293324,0.646
1746649407020981281,0.835
1746649407028669238,0.382
1746649407036357195,-0.199
1746649407044045152,-0.323
1746649407051733109,-0.192
1746649407059421066,-0.162
1746649407067109023,-0.135
1746649407074796980,-0.029
1746649407082484937,0.012
1746649407090172894,-0.009000000000000001
1746649407097860851,-0.002
1746649407105548880,0.022
1746649407113236837,0.024
1746649407120924794,0.027
1746649407128612751,0.041
1746649407136300708,0.039
1746649407143988665,0.036000000000000004
1746649407151676622,0.056
1746649407159364579,0.07100000000000001
1746649407167052536,0.07100000000000001
1746649407174740493,0.081
1746649407182428450,0.093
1746649407190116407,0.101
1746649407197804364,0.108
1746649407205492321,0.128
1746649407213180278,0.145
1746649407220868235,0.155
1746649407228556192,0.167
1746649407236244149,0.189
1746649407243932106,0.199
1746649407251620063,0.20400000000000001
1746649407259308020,0.229
1746649407266995977,0.249
1746649407274683934,0.23600000000000002
1746649407282371891,0.224
1746649407290059848,0.226
1746649407297747805,0.199
1746649407305435762,0.147
1746649407313123719,0.10300000000000001
1746649407320811676,0.066
1746649407328499633,0.022
1746649407336187590,-0.017
1746649407343875547,-0.036000000000000004
1746649407351563504,-0.046
1746649407359251461,-0.046
1746649407366939418,-0.041
1746649407374627375,-0.044
1746649407382315332,-0.044
1746649407390003289,-0.039
1746649407397691246,-0.027
1746649407405379203,-0.014
1746649407413067160,-0.014
1746649407420755117,-0.019
1746649407428443074,-0.009000000000000001
1746649407436131031,0.007
1746649407443818988,0.012
1746649407451506945,0.014
1746649407459194902,0.017
1746649407466882859,0.012
1746649407474570816,0.004
1746649407482258773,-0.004
1746649407489946730,0.0
1746649407497634687,0.009000000000000001
1746649407505322644,0.007
1746649407513010601,0.002
1746649407520698558,0.002
1746649407528386515,0.004
1746649407536074472,0.002
1746649407543762429,0.004
1746649407551450386,0.012
1746649407559138343,0.009000000000000001
1746649407566826300,0.007
1746649407574514257,0.007
1746649407582202214,0.009000000000000001
1746649407589890171,0.002
1746649407597578128,-0.007
1746649407605266085,-0.002
1746649407612954042,0.009000000000000001
1746649407620641999,0.014
1746649407628329956,0.019
1746649407636017913,0.024
1746649407643705870,0.039
1746649407651393827,0.054
1746649407659081784,0.041
1746649407666769813,0.017,78,743
1746649407674457771,0.014,,730
1746649407682145729,0.012
1746649407689833687,0.002
1746649407697521645,0.002
1746649407705209603,0.009000000000000001
1746649407712897561,0.009000000000000001
1746649407720585519,-0.007
1746649407728273477,-0.034
1746649407735961435,0.027
1746649407743649393,0.35000000000000003
1746649407751337351,0.793
1746649407759025309,0.789
1746649407766713267,0.194
1746649407774401225,-0.28600000000000003
1746649407782089183,-0.261
1746649407789777141,-0.14
1746649407797465099,-0.155
1746649407805153057,-0.098
1746649407812841015,0.002
1746649407820528973,0.002
1746649407828216931,-0.009000000000000001
1746649407835904889,0.024
1746649407843592847,0.032
1746649407851280805,0.019
1746649407858968763,0.034
1746649407866656721,0.044
1746649407874344679,0.036000000000000004
1746649407882032637,0.039
1746649407889720595,0.049
1746649407897408553,0.056
1746649407905096511,0.069
1746649407912784469,0.076
1746649407920472427,0.078
1746649407928160385,0.083
1746649407935848343,0.088
1746649407943536301,0.098
1746649407951224259,0.113
1746649407958912217,0.128
1746649407966600175,0.147
1746649407974288133,0.167
1746649407981976091,0.17
1746649407989664049,0.182
1746649407997352007,0.197
1746649408005039965,0.202
1746649408012727923,0.20700000000000002
1746649408020415881,0.199
1746649408028103839,0.177
1746649408035791797,0.14300000000000002
1746649408043479755,0.088
1746649408051167713,0.036000000000000004
1746649408058855671,0.007
1746649408066543629,-0.022
1746649408074231587,-0.056
1746649408081919545,-0.078
1746649408089607503,-0.081
1746649408097295461,-0.083
1746649408104983419,-0.08600000000000001
1746649408112671377,-0.081
1746649408120359335,-0.076
1746649408128047293,-0.081
1746649408135735251,-0.073
1746649408143423209,-0.066
1746649408151111167,-0.059000000000000004
1746649408158799125,-0.056
1746649408166487083,-0.056
1746649408174175041,-0.059000000000000004
1746649408181862999,-0.061
1746649408189550957,-0.056
1746649408197238915,-0.051000000000000004
1746649408204926873,-0.056
1746649408212614831,-0.056
1746649408220302789,-0.049
1746649408227990750,-0.056
1746649408235678707,-0.066
1746649408243366664,-0.064
1746649408251054621,-0.056
1746649408258742578,-0.056
1746649408266430535,-0.061
1746649408274118492,-0.061
1746649408281806449,-0.064
1746649408289494406,-0.056
1746649408297182363,-0.051000000000000004
1746649408304870320,-0.054
1746649408312558277,-0.059000000000000004
1746649408320246234,-0.061
1746649408327934191,-0.066
1746649408335622148,-0.066
1746649408343310105,-0.061
1746649408350998062,-0.046
1746649408358686019,-0.034
1746649408366373976,-0.032
1746649408374061933,-0.024
1746649408381749890,-0.014
1746649408389437847,-0.022
1746649408397125804,-0.041
1746649408404813761,-0.054
1746649408412501718,-0.049
1746649408420189675,-0.051000000000000004
1746649408427877632,-0.056
1746649408435565589,-0.049
1746649408443253546,-0.046
1746649408450941503,-0.054
1746649408458629460,-0.078
1746649408466317417,-0.032
1746649408474005374,0.28600000000000003
1746649408481693331,0.734
1746649408489381288,0.737
1746649408497069245,0.165
1746649408504757202,-0.318
1746649408512445159,-0.31
1746649408520133116,-0.189
1746649408527821073,-0.194
1746649408535509030,-0.14300000000000002
1746649408543196987,-0.059000000000000004
1746649408550884944,-0.061
1746649408558572901,-0.066
1746649408566260858,-0.041
1746649408573948815,-0.036000000000000004
1746649408581636772,-0.041
1746649408589324729,-0.032
1746649408597012686,-0.019
1746649408604700643,-0.014
1746649408612388600,-0.007
1746649408620076557,0.0
1746649408627764514,0.0
1746649408635452471,-0.002
1746649408643140428,0.002
1746649408650828385,0.009000000000000001
1746649408658516342,0.022
1746649408666204299,0.034
1746649408673892256,0.039
1746649408681580213,0.054
1746649408689268170,0.078
1746649408696956127,0.088
1746649408704644084,0.093
1746649408712332041,0.11
1746649408720019998,0.128
1746649408727707955,0.138
1746649408735395912,0.138
1746649408743083869,0.14300000000000002
1746649408750771826,0.147
1746649408758459783,0.135
1746649408766147740,0.088
1746649408773835697,0.036000000000000004
1746649408781523654,-0.004
1746649408789211683,-0.046,78,737
1746649408796899640,-0.078
1746649408804587597,-0.098
1746649408812275554,-0.115
1746649408819963511,-0.13
1746649408827651468,-0.138
1746649408835339425,-0.135
1746649408843027382,-0.133
1746649408850715339,-0.13
1746649408858403296,-0.125
1746649408866091253,-0.115
1746649408873779210,-0.108
1746649408881467167,-0.108
1746649408889155124,-0.10300000000000001
1746649408896843081,-0.098
1746649408904531038,-0.101
1746649408912218995,-0.101
1746649408919906952,-0.096
1746649408927594909,-0.093
1746649408935282866,-0.088
1746649408942970823,-0.088
1746649408950658780,-0.091
1746649408958346737,-0.096
1746649408966034694,-0.093
1746649408973722651,-0.083
1746649408981410608,-0.083
1746649408989098565,-0.088
1746649408996786522,-0.08600000000000001
1746649409004474479,-0.08600000000000001
1746649409012162436,-0.091
1746649409019850393,-0.083
1746649409027538350,-0.078
1746649409035226307,-0.088
1746649409042914264,-0.10300000000000001
1746649409050602221,-0.096
1746649409058290178,-0.083
1746649409065978135,-0.08600000000000001
1746649409073666092,-0.083
1746649409081354049,-0.061
1746649409089042006,-0.049
1746649409096729963,-0.049
1746649409104417920,-0.044
1746649409112105877,-0.054
1746649409119793834,-0.07100000000000001
1746649409127481791,-0.078
1746649409135169748,-0.078
1746649409142857705,-0.078
1746649409150545662,-0.076
1746649409158233619,-0.069
1746649409165921576,-0.069
1746649409173609533,-0.08600000000000001
1746649409181297490,-0.115
1746649409188985447,-0.049
1746649409196673404,0.293
1746649409204361361,0.722
1746649409212049318,0.678
1746649409219737275,0.10300000000000001
1746649409227425232,-0.337
1746649409235113189,-0.313
1746649409242801146,-0.20400000000000001
1746649409250489103,-0.20700000000000002
1746649409258177060,-0.155
1746649409265865017,-0.083
1746649409273552974,-0.083
1746649409281240931,-0.08600000000000001
1746649409288928888,-0.066
1746649409296616845,-0.054
1746649409304304802,-0.046
1746649409311992759,-0.034
1746649409319680716,-0.032
1746649409327368673,-0.044
1746649409335056630,-0.036000000000000004
1746649409342744587,-0.014
1746649409350432616,-0.007
1746649409358120573,-0.014
1746649409365808530,-0.007
1746649409373496487,0.007
1746649409381184444,0.014
1746649409388872401,0.022
1746649409396560358,0.032
1746649409404248315,0.044
1746649409411936272,0.056
1746649409419624229,0.073
1746649409427312186,0.093
1746649409435000143,0.101
1746649409442688100,0.108
1746649409450376057,0.123
1746649409458064014,0.133
1746649409465751971,0.13
1746649409473439928,0.128
1746649409481127885,0.115
1746649409488815842,0.088
1746649409496503799,0.044
1746649409504191756,-0.014
1746649409511879713,-0.054
1746649409519567670,-0.081
1746649409527255627,-0.115
1746649409534943584,-0.133
1746649409542631541,-0.135
1746649409550319498,-0.138
1746649409558007455,-0.13
1746649409565695412,-0.125
1746649409573383369,-0.125
1746649409581071326,-0.11800000000000001
1746649409588759283,-0.113
1746649409596447240,-0.108
1746649409604135197,-0.096
1746649409611823154,-0.091
1746649409619511111,-0.10300000000000001
1746649409627199068,-0.10300000000000001
1746649409634887025,-0.088
1746649409642574982,-0.088
1746649409650262939,-0.096
1746649409657950896,-0.096
1746649409665638853,-0.093
1746649409673326810,-0.093
1746649409681014767,-0.093
1746649409688702724,-0.093
1746649409696390681,-0.098
1746649409704078638,-0.093
1746649409711766595,-0.08600000000000001
1746649409719454552,-0.093
1746649409727142509,-0.096
1746649409734830466,-0.096
1746649409742518423,-0.10300000000000001
1746649409750206380,-0.108
1746649409757894337,-0.091
1746649409765582294,-0.069
1746649409773270251,-0.061
1746649409780958208,-0.056
1746649409788646165,-0.041
1746649409796334122,-0.051000000000000004
1746649409804022079,-0.078
1746649409811710036,-0.083
1746649409819397993,-0.081
1746649409827085950,-0.081
1746649409834773907,-0.076
1746649409842461864,-0.069
1746649409850149821,-0.073
1746649409857837778,-0.081
1746649409865525735,-0.098
1746649409873213692,-0.076
1746649409880901649,0.184
1746649409888589606,0.633
1746649409896277563,0.712
1746649409903965520,0.182
1746649409911653549,-0.332,78,735
1746649409919341367,-0.357
1746649409927029185,-0.219
1746649409934717003,-0.212
1746649409942404821,-0.18
1746649409950092639,-0.091
1746649409957780457,-0.07100000000000001
1746649409965468275,-0.083
1746649409973156093,-0.061
1746649409980843911,-0.039
1746649409988531729,-0.041
1746649409996219547,-0.036000000000000004
1746649410003907365,-0.027
1746649410011595183,-0.027
1746649410019283001,-0.032
1746649410026970819,-0.012
1746649410034658637,0.0
1746649410042346455,-0.004
1746649410050034273,0.004
1746649410057722091,0.022
1746649410065409909,0.029
1746649410073097727,0.036000000000000004
1746649410080785545,0.054
1746649410088473363,0.059000000000000004
1746649410096161181,0.076
1746649410103848999,0.10300000000000001
1746649410111536817,0.123
1746649410119224635,0.135
1746649410126912453,0.15
1746649410134600271,0.162
1746649410142288089,0.162
1746649410149975907,0.16
1746649410157663725,0.157
1746649410165351543,0.14
1746649410173039361,0.101
1746649410180727179,0.054
1746649410188414997,0.009000000000000001
1746649410196102815,-0.034
1746649410203790633,-0.069
1746649410211478451,-0.093
1746649410219166269,-0.106
1746649410226854087,-0.113
1746649410234541905,-0.115
1746649410242229723,-0.113
1746649410249917541,-0.108
1746649410257605359,-0.106
1746649410265293177,-0.096
1746649410272980995,-0.08600000000000001
1746649410280668813,-0.073
1746649410288356631,-0.069
1746649410296044449,-0.069
1746649410303732267,-0.061
1746649410311420085,-0.059000000000000004
1746649410319107903,-0.059000000000000004
1746649410326795721,-0.049
1746649410334483539,-0.044
1746649410342171357,-0.049
1746649410349859175,-0.046
1746649410357546993,-0.039
1746649410365234811,-0.049
1746649410372922629,-0.056
1746649410380610447,-0.054
1746649410388298265,-0.051000000000000004
1746649410395986083,-0.056
1746649410403673901,-0.051000000000000004
1746649410411361719,-0.046
1746649410419049537,-0.041
1746649410426737355,-0.029
1746649410434425173,-0.007
1746649410442112991,0.004
1746649410449800809,0.0
1746649410457488627,-0.014
1746649410465176445,-0.022
1746649410472864312,-0.019,79,730
1746649410480552339,-0.022,,722
1746649410488240366,-0.014
1746649410495928393,-0.012
1746649410503616420,-0.017
1746649410511304447,-0.019
1746649410518992474,-0.036000000000000004
1746649410526680501,-0.017
1746649410534368528,0.229
1746649410542056555,0.6900000000000001
1746649410549744582,0.8160000000000001
1746649410557432609,0.266
1746649410565120636,-0.315
1746649410572808663,-0.327
1746649410580496690,-0.147
1746649410588184717,-0.145
1746649410595872744,-0.11
1746649410603560771,0.002
1746649410611248798,0.024
1746649410618936825,0.007
1746649410626624852,0.034
1746649410634312879,0.049
1746649410642000906,0.034
1746649410649688933,0.046
1746649410657376960,0.066
1746649410665064987,0.061
1746649410672753014,0.066
1746649410680441041,0.081
1746649410688129068,0.081
1746649410695817095,0.088
1746649410703505122,0.101
1746649410711193149,0.10300000000000001
1746649410718881176,0.11
1746649410726569203,0.12
1746649410734257230,0.128
1746649410741945257,0.14300000000000002
1746649410749633284,0.16
1746649410757321311,0.17200000000000001
1746649410765009338,0.187
1746649410772697365,0.202
1746649410780385392,0.209
1746649410788073419,0.221
1746649410795761446,0.231
1746649410803449473,0.231
1746649410811137500,0.226
1746649410818825527,0.212
1746649410826513554,0.17200000000000001
1746649410834201581,0.11800000000000001
1746649410841889608,0.073
1746649410849577635,0.032
1746649410857265662,-0.002
1746649410864953689,-0.019
1746649410872641716,-0.036000000000000004
1746649410880329743,-0.056
1746649410888017770,-0.059000000000000004
1746649410895705797,-0.051000000000000004
1746649410903393824,-0.049
1746649410911081851,-0.041
1746649410918769878,-0.036000000000000004
1746649410926457905,-0.036000000000000004
1746649410934145932,-0.027
1746649410941833959,-0.027
1746649410949521986,-0.036000000000000004
1746649410957210013,-0.029
1746649410964898040,-0.012
1746649410972586067,-0.014
1746649410980274094,-0.029
1746649410987962121,-0.029
1746649410995650148,-0.022
1746649411003338175,-0.022
1746649411011026202,-0.019
1746649411018714229,-0.024
1746649411026402256,-0.027
1746649411034090332,-0.019
1746649411041778359,-0.027
1746649411049466386,-0.041
1746649411057154413,-0.039
1746649411064842440,-0.034
1746649411072530467,-0.046
1746649411080218494,-0.046
1746649411087906521,-0.024
1746649411095594548,-0.012
1746649411103282575,-0.004
1746649411110970602,0.012
1746649411118658629,0.012
1746649411126346656,-0.004
1746649411134034683,-0.019
1746649411141722710,-0.022
1746649411149410737,-0.017
1746649411157098764,-0.019
1746649411164786791,-0.022
1746649411172474818,-0.014
1746649411180162845,-0.014
1746649411187850872,-0.044
1746649411195538899,-0.061
1746649411203226926,0.088
1746649411210914953,0.52
1746649411218602980,0.865
1746649411226291007,0.601
1746649411233979034,-0.034
1746649411241667061,-0.313
1746649411249355088,-0.184
1746649411257043115,-0.125
1746649411264731142,-0.145
1746649411272419169,-0.066
1746649411280107196,-0.019
1746649411287795223,-0.041
1746649411295483250,-0.039
1746649411303171277,-0.017
1746649411310859304,-0.012
1746649411318547331,-0.007
1746649411326235358,0.004
1746649411333923385,0.012
1746649411341611412,0.007
1746649411349299439,0.004
1746649411356987466,0.014
1746649411364675493,0.022
1746649411372363520,0.022
1746649411380051547,0.029
1746649411387739574,0.044
1746649411395427601,0.054
1746649411403115628,0.061
1746649411410803655,0.066
1746649411418491682,0.073
1746649411426179709,0.091
1746649411433867736,0.098
1746649411441555763,0.10300000000000001
1746649411449243790,0.11800000000000001
1746649411456931817,0.133
1746649411464619844,0.138
1746649411472307871,0.138
1746649411479995898,0.14
1746649411487683925,0.133
1746649411495371952,0.106
1746649411503059979,0.07100000000000001
1746649411510748006,0.036000000000000004
1746649411518436033,-0.007
1746649411526124060,-0.049
1746649411533812087,-0.076
1746649411541500114,-0.08600000000000001
1746649411549188141,-0.098
1746649411556876168,-0.10300000000000001
1746649411564564195,-0.106
1746649411572252222,-0.10300000000000001
1746649411579940249,-0.096
1746649411587628276,-0.088
1746649411595316352,-0.088,79,686
1746649411603004309,-0.088
1746649411610692266,-0.083
1746649411618380223,-0.076
1746649411626068180,-0.07100000000000001
1746649411633756137,-0.081
1746649411641444094,-0.098
1746649411649132051,-0.098
1746649411656820008,-0.083
1746649411664507965,-0.081
1746649411672195922,-0.091
1746649411679883879,-0.093
1746649411687571836,-0.093
1746649411695259793,-0.093
1746649411702947750,-0.096
1746649411710635707,-0.088
1746649411718323664,-0.088
1746649411726011621,-0.096
1746649411733699578,-0.101
1746649411741387535,-0.101
1746649411749075492,-0.101
1746649411756763449,-0.091
1746649411764451406,-0.073
1746649411772139363,-0.066
1746649411779827320,-0.051000000000000004
1746649411787515277,-0.039
1746649411795203234,-0.059000000000000004
1746649411802891191,-0.081
1746649411810579148,-0.076
1746649411818267105,-0.073
1746649411825955062,-0.073
1746649411833643019,-0.069
1746649411841330976,-0.073
1746649411849018933,-0.076
1746649411856706890,-0.088
1746649411864394847,-0.113
1746649411872082804,-0.014
1746649411879770761,0.364
1746649411887458718,0.754
1746649411895146675,0.611
1746649411902834632,0.002
1746649411910522589,-0.36
1746649411918210546,-0.268
1746649411925898503,-0.17500000000000002
1746649411933586460,-0.189
1746649411941274417,-0.123
1746649411948962374,-0.061
1746649411956650331,-0.076
1746649411964338288,-0.076
1746649411972026245,-0.054
1746649411979714202,-0.049
1746649411987402159,-0.049
1746649411995090116,-0.041
1746649412002778073,-0.032
1746649412010466030,-0.027
1746649412018153987,-0.024
1746649412025841944,-0.017
1746649412033529901,-0.012
1746649412041217858,-0.009000000000000001
1746649412048905815,-0.002
1746649412056593772,0.012
1746649412064281729,0.022
1746649412071969686,0.024
1746649412079657643,0.034
1746649412087345600,0.044
1746649412095033557,0.054
1746649412102721514,0.07100000000000001
1746649412110409471,0.088
1746649412118097428,0.10300000000000001
1746649412125785385,0.115
1746649412133473342,0.115
1746649412141161299,0.115
1746649412148849256,0.11800000000000001
1746649412156537285,0.113
1746649412164224964,0.096
1746649412171912643,0.066
1746649412179600322,0.022
1746649412187288001,-0.022
1746649412194975680,-0.059000000000000004
1746649412202663359,-0.088
1746649412210351038,-0.106
1746649412218038717,-0.115
1746649412225726396,-0.12
1746649412233414075,-0.11800000000000001
1746649412241101754,-0.115
1746649412248789433,-0.115
1746649412256477112,-0.113
1746649412264164791,-0.106
1746649412271852470,-0.098
1746649412279540149,-0.098
1746649412287227828,-0.096
1746649412294915507,-0.088
1746649412302603186,-0.091
1746649412310290865,-0.098
1746649412317978544,-0.088
1746649412325666223,-0.083
1746649412333353902,-0.093
1746649412341041581,-0.093
1746649412348729260,-0.081
1746649412356416939,-0.088
1746649412364104618,-0.096
1746649412371792297,-0.083
1746649412379479976,-0.073
1746649412387167655,-0.083
1746649412394855334,-0.093
1746649412402543013,-0.091
1746649412410230692,-0.08600000000000001
1746649412417918371,-0.093
1746649412425606050,-0.091
1746649412433293729,-0.078
1746649412440981408,-0.07100000000000001
1746649412448669087,-0.066
1746649412456356766,-0.056
1746649412464044445,-0.049
1746649412471732124,-0.041
1746649412479419803,-0.044
1746649412487107482,-0.059000000000000004
1746649412494795161,-0.066
1746649412502482840,-0.061
1746649412510170519,-0.059000000000000004
1746649412517858198,-0.066
1746649412525545877,-0.064
1746649412533233556,-0.054
1746649412540921235,-0.061
1746649412548608914,-0.091
1746649412556296593,-0.088
1746649412563984272,0.115
1746649412571671951,0.554
1746649412579359630,0.754
1746649412587047309,0.31
1746649412594734988,-0.28600000000000003
1746649412602422667,-0.389
1746649412610110346,-0.219
1746649412617798025,-0.187
1746649412625485704,-0.17500000000000002
1746649412633173383,-0.091
1746649412640861062,-0.056
1746649412648548741,-0.054
1746649412656236420,-0.039
1746649412663924099,-0.034
1746649412671611778,-0.032
1746649412679299457,-0.022
1746649412686987136,-0.019
1746649412694674815,-0.017
1746649412702362494,-0.009000000000000001
1746649412710050173,-0.004
1746649412717737874,-0.002,81,653
1746649412725425692,0.007,,672
1746649412733113510,0.019
1746649412740801328,0.024
1746649412748489146,0.027
1746649412756176964,0.044
1746649412763864782,0.061
1746649412771552600,0.061
1746649412779240418,0.064
1746649412786928236,0.076
1746649412794616054,0.101
1746649412802303872,0.128
1746649412809991690,0.135
1746649412817679508,0.128
1746649412825367326,0.133
1746649412833055144,0.135
1746649412840742962,0.13
1746649412848430780,0.113
1746649412856118598,0.08600000000000001
1746649412863806416,0.046
1746649412871494234,0.002
1746649412879182052,-0.044
1746649412886869870,-0.08600000000000001
1746649412894557688,-0.115
1746649412902245506,-0.128
1746649412909933324,-0.133
1746649412917621142,-0.145
1746649412925308960,-0.145
1746649412932996778,-0.13
1746649412940684596,-0.128
1746649412948372414,-0.138
1746649412956060232,-0.138
1746649412963748050,-0.128
1746649412971435868,-0.108
1746649412979123686,-0.098
1746649412986811504,-0.106
1746649412994499322,-0.108
1746649413002187140,-0.106
1746649413009874958,-0.106
1746649413017562776,-0.113
1746649413025250594,-0.115
1746649413032938412,-0.108
1746649413040626230,-0.10300000000000001
1746649413048314048,-0.108
1746649413056001866,-0.108
1746649413063689684,-0.106
1746649413071377502,-0.11
1746649413079065320,-0.125
1746649413086753138,-0.128
1746649413094440956,-0.106
1746649413102128774,-0.098
1746649413109816592,-0.101
1746649413117504410,-0.08600000000000001
1746649413125192228,-0.061
1746649413132880046,-0.059000000000000004
1746649413140567864,-0.078
1746649413148255682,-0.098
1746649413155943500,-0.096
1746649413163631318,-0.091
1746649413171319136,-0.096
1746649413179006954,-0.096
1746649413186694772,-0.093
1746649413194382590,-0.093
1746649413202070408,-0.098
1746649413209758226,-0.11
1746649413217446044,-0.049
1746649413225133862,0.28600000000000003
1746649413232821680,0.707
1746649413240509498,0.577
1746649413248197316,-0.115
1746649413255885134,-0.52
1746649413263572952,-0.374
1746649413271260770,-0.241
1746649413278948633,-0.256
1746649413286636590,-0.167
1746649413294324547,-0.066
1746649413302012504,-0.061
1746649413309700461,-0.059000000000000004
1746649413317388418,-0.022
1746649413325076375,-0.019
1746649413332764332,-0.036000000000000004
1746649413340452289,-0.027
1746649413348140246,-0.012
1746649413355828203,-0.007
1746649413363516160,0.002
1746649413371204117,0.009000000000000001
1746649413378892074,0.004
1746649413386580031,0.009000000000000001
1746649413394267988,0.022
1746649413401955945,0.032
1746649413409643902,0.041
1746649413417331859,0.056
1746649413425019816,0.07100000000000001
1746649413432707773,0.083
1746649413440395730,0.091
1746649413448083687,0.108
1746649413455771644,0.125
1746649413463459601,0.135
1746649413471147558,0.14300000000000002
1746649413478835515,0.147
1746649413486523472,0.145
1746649413494211429,0.133
1746649413501899386,0.12
1746649413509587343,0.093
1746649413517275300,0.041
1746649413524963257,-0.009000000000000001
1746649413532651214,-0.049
1746649413540339171,-0.091
1746649413548027128,-0.125
1746649413555715085,-0.145
1746649413563403042,-0.155
1746649413571090999,-0.162
1746649413578778956,-0.165
1746649413586466913,-0.16
1746649413594154870,-0.15
1746649413601842827,-0.147
1746649413609530784,-0.145
1746649413617218741,-0.135
1746649413624906698,-0.13
1746649413632594655,-0.128
1746649413640282612,-0.123
1746649413647970569,-0.12
1746649413655658526,-0.12
1746649413663346483,-0.115
1746649413671034440,-0.108
1746649413678722397,-0.11
1746649413686410354,-0.113
1746649413694098311,-0.106
1746649413701786268,-0.106
1746649413709474225,-0.11
1746649413717162182,-0.11
1746649413724850139,-0.108
1746649413732538096,-0.11
1746649413740226053,-0.123
1746649413747914010,-0.125
1746649413755601967,-0.12
1746649413763289924,-0.113
1746649413770977881,-0.101
1746649413778665838,-0.096
1746649413786353795,-0.093
1746649413794041752,-0.078
1746649413801729709,-0.066
1746649413809417666,-0.081
1746649413817105623,-0.096
1746649413824793580,-0.091
1746649413832481537,-0.08600000000000001
1746649413840169566,-0.093,82,670
1746649413847857454,-0.098
1746649413855545342,-0.091
1746649413863233230,-0.091
1746649413870921118,-0.113
1746649413878609006,-0.135
1746649413886296894,-0.019
1746649413893984782,0.382
1746649413901672670,0.769
1746649413909360558,0.557
1746649413917048446,-0.113
1746649413924736334,-0.441
1746649413932424222,-0.28600000000000003
1746649413940112110,-0.192
1746649413947799998,-0.224
1746649413955487886,-0.147
1746649413963175774,-0.078
1746649413970863662,-0.096
1746649413978551550,-0.088
1746649413986239438,-0.061
1746649413993927326,-0.059000000000000004
1746649414001615214,-0.059000000000000004
1746649414009303102,-0.046
1746649414016990990,-0.044
1746649414024678878,-0.049
1746649414032366766,-0.044
1746649414040054654,-0.036000000000000004
1746649414047742542,-0.032
1746649414055430430,-0.024
1746649414063118318,-0.022
1746649414070806206,-0.014
1746649414078494094,0.002
1746649414086181982,0.007
1746649414093869870,0.002
1746649414101557758,0.014
1746649414109245646,0.036000000000000004
1746649414116933534,0.049
1746649414124621422,0.054
1746649414132309310,0.066
1746649414139997198,0.081
1746649414147685086,0.08600000000000001
1746649414155372974,0.08600000000000001
1746649414163060862,0.093
1746649414170748750,0.091
1746649414178436638,0.061
1746649414186124526,0.022
1746649414193812414,-0.012
1746649414201500302,-0.051000000000000004
1746649414209188190,-0.091
1746649414216876078,-0.113
1746649414224563966,-0.13
1746649414232251854,-0.145
1746649414239939742,-0.147
1746649414247627630,-0.14300000000000002
1746649414255315518,-0.145
1746649414263003406,-0.14300000000000002
1746649414270691294,-0.135
1746649414278379182,-0.13
1746649414286067070,-0.125
1746649414293754958,-0.12
1746649414301442846,-0.115
1746649414309130734,-0.11800000000000001
1746649414316818622,-0.123
1746649414324506510,-0.123
1746649414332194398,-0.11
1746649414339882286,-0.10300000000000001
1746649414347570174,-0.108
1746649414355258062,-0.106
1746649414362945950,-0.101
1746649414370633838,-0.11
1746649414378321726,-0.115
1746649414386009614,-0.11
1746649414393697502,-0.10300000000000001
1746649414401385416,-0.106
1746649414409073443,-0.106
1746649414416761470,-0.10300000000000001
1746649414424449497,-0.10300000000000001
1746649414432137524,-0.108
1746649414439825551,-0.115
1746649414447513578,-0.115
1746649414455201605,-0.101
1746649414462889632,-0.083
1746649414470577659,-0.083
1746649414478265686,-0.07100000000000001
1746649414485953713,-0.054
1746649414493641740,-0.07100000000000001
1746649414501329767,-0.096
1746649414509017794,-0.091
1746649414516705821,-0.08600000000000001
1746649414524393848,-0.088
1746649414532081875,-0.076
1746649414539769902,-0.07100000000000001
1746649414547457929,-0.091
1746649414555145956,-0.106
1746649414562833983,-0.125
1746649414570522010,-0.032
1746649414578210037,0.35000000000000003
1746649414585898064,0.766
1746649414593586091,0.641
1746649414601274118,0.014
1746649414608962145,-0.364
1746649414616650172,-0.261
1746649414624338199,-0.17
1746649414632026226,-0.202
1746649414639714253,-0.138
1746649414647402280,-0.073
1746649414655090307,-0.098
1746649414662778334,-0.093
1746649414670466361,-0.056
1746649414678154388,-0.059000000000000004
1746649414685842415,-0.061
1746649414693530442,-0.046
1746649414701218469,-0.041
1746649414708906496,-0.041
1746649414716594523,-0.036000000000000004
1746649414724282550,-0.032
1746649414731970577,-0.029
1746649414739658604,-0.027
1746649414747346631,-0.017
1746649414755034658,-0.007
1746649414762722685,0.0
1746649414770410712,0.009000000000000001
1746649414778098739,0.017
1746649414785786766,0.024
1746649414793474793,0.036000000000000004
1746649414801162820,0.049
1746649414808850847,0.064
1746649414816538874,0.078
1746649414824226901,0.083
1746649414831914928,0.088
1746649414839602955,0.096
1746649414847290982,0.106
1746649414854979009,0.10300000000000001
1746649414862667036,0.078
1746649414870355063,0.036000000000000004
1746649414878043090,0.007
1746649414885731117,-0.029
1746649414893419144,-0.076
1746649414901107171,-0.098
1746649414908795198,-0.106
1746649414916483225,-0.11800000000000001
1746649414924171252,-0.123
1746649414931859279,-0.12
1746649414939547306,-0.12
1746649414947235333,-0.12
1746649414954923360,-0.113
1746649414962611436,-0.10300000000000001,83,688
1746649414970299393,-0.106,,657
1746649414977987350,-0.108
1746649414985675307,-0.098
1746649414993363264,-0.098
1746649415001051221,-0.108
1746649415008739178,-0.101
1746649415016427135,-0.091
1746649415024115092,-0.093
1746649415031803049,-0.096
1746649415039491006,-0.096
1746649415047178963,-0.093
1746649415054866920,-0.093
1746649415062554877,-0.091
1746649415070242834,-0.083
1746649415077930791,-0.08600000000000001
1746649415085618748,-0.091
1746649415093306705,-0.08600000000000001
1746649415100994662,-0.081
1746649415108682619,-0.081
1746649415116370576,-0.076
1746649415124058533,-0.066
1746649415131746490,-0.073
1746649415139434447,-0.081
1746649415147122404,-0.076
1746649415154810361,-0.073
1746649415162498318,-0.078
1746649415170186275,-0.073
1746649415177874232,-0.059000000000000004
1746649415185562189,-0.046
1746649415193250146,-0.027
1746649415200938103,-0.012
1746649415208626060,-0.027
1746649415216314017,-0.049
1746649415224001974,-0.049
1746649415231689931,-0.041
1746649415239377888,-0.049
1746649415247065845,-0.051000000000000004
1746649415254753802,-0.044
1746649415262441759,-0.041
1746649415270129716,-0.046
1746649415277817673,-0.073
1746649415285505630,-0.036000000000000004
1746649415293193587,0.244
1746649415300881544,0.683
1746649415308569501,0.724
1746649415316257458,0.165
1746649415323945415,-0.335
1746649415331633372,-0.31
1746649415339321329,-0.152
1746649415347009286,-0.167
1746649415354697243,-0.135
1746649415362385200,-0.041
1746649415370073157,-0.039
1746649415377761114,-0.059000000000000004
1746649415385449071,-0.022
1746649415393137028,-0.002
1746649415400824985,-0.009000000000000001
1746649415408512942,-0.009000000000000001
1746649415416200899,-0.002
1746649415423888856,0.004
1746649415431576813,0.009000000000000001
1746649415439264770,0.014
1746649415446952727,0.017
1746649415454640684,0.024
1746649415462328641,0.034
1746649415470016598,0.039
1746649415477704555,0.049
1746649415485392512,0.064
1746649415493080469,0.069
1746649415500768426,0.076
1746649415508456383,0.096
1746649415516144340,0.11800000000000001
1746649415523832369,0.123,84,668
1746649415531520048,0.125
1746649415539207727,0.14
1746649415546895406,0.152
1746649415554583085,0.152
1746649415562270764,0.157
1746649415569958443,0.152
1746649415577646122,0.128
1746649415585333801,0.098
1746649415593021480,0.061
1746649415600709159,0.017
1746649415608396838,-0.024
1746649415616084517,-0.061
1746649415623772196,-0.088
1746649415631459875,-0.10300000000000001
1746649415639147554,-0.113
1746649415646835233,-0.115
1746649415654522912,-0.106
1746649415662210591,-0.101
1746649415669898270,-0.101
1746649415677585949,-0.096
1746649415685273628,-0.08600000000000001
1746649415692961307,-0.083
1746649415700648986,-0.088
1746649415708336665,-0.08600000000000001
1746649415716024344,-0.078
1746649415723712023,-0.066
1746649415731399702,-0.064
1746649415739087381,-0.073
1746649415746775060,-0.076
1746649415754462739,-0.076
1746649415762150418,-0.083
1746649415769838097,-0.08600000000000001
1746649415777525776,-0.07100000000000001
1746649415785213455,-0.069
1746649415792901134,-0.078
1746649415800588813,-0.078
1746649415808276492,-0.078
1746649415815964171,-0.083
1746649415823651850,-0.08600000000000001
1746649415831339529,-0.08600000000000001
1746649415839027208,-0.081
1746649415846714887,-0.064
1746649415854402566,-0.054
1746649415862090245,-0.051000000000000004
1746649415869777924,-0.041
1746649415877465603,-0.032
1746649415885153282,-0.041
1746649415892840961,-0.059000000000000004
1746649415900528640,-0.069
1746649415908216319,-0.064
1746649415915903998,-0.051000000000000004
1746649415923591677,-0.049
1746649415931279356,-0.056
1746649415938967035,-0.054
1746649415946654714,-0.061
1746649415954342393,-0.083
1746649415962030072,0.029
1746649415969717751,0.429
1746649415977405430,0.761
1746649415985093109,0.448
1746649415992780788,-0.23600000000000002
1746649416000468467,-0.463
1746649416008156146,-0.258
1746649416015843825,-0.189
1746649416023531504,-0.20400000000000001
1746649416031219183,-0.088
1746649416038906862,-0.014
1746649416046594541,-0.039
1746649416054282220,-0.032
1746649416061969899,-0.002
1746649416069657578,-0.002
1746649416077345257,0.0
1746649416085032958,0.012
1746649416092720985,0.014
1746649416100409012,0.019
1746649416108097039,0.029
1746649416115785066,0.034
1746649416123473093,0.034
1746649416131161120,0.041
1746649416138849147,0.056
1746649416146537174,0.064
1746649416154225201,0.066
1746649416161913228,0.076
1746649416169601255,0.08600000000000001
1746649416177289282,0.10300000000000001
1746649416184977309,0.125
1746649416192665336,0.138
1746649416200353363,0.14300000000000002
1746649416208041390,0.157
1746649416215729417,0.17200000000000001
1746649416223417444,0.177
1746649416231105471,0.17200000000000001
1746649416238793498,0.162
1746649416246481525,0.145
1746649416254169552,0.108
1746649416261857579,0.059000000000000004
1746649416269545606,0.017
1746649416277233633,-0.029
1746649416284921660,-0.073
1746649416292609687,-0.098
1746649416300297714,-0.11800000000000001
1746649416307985741,-0.133
1746649416315673768,-0.14
1746649416323361795,-0.14
1746649416331049822,-0.138
1746649416338737849,-0.125
1746649416346425876,-0.125
1746649416354113903,-0.125
1746649416361801930,-0.108
1746649416369489957,-0.101
1746649416377177984,-0.106
1746649416384866011,-0.106
1746649416392554038,-0.093
1746649416400242065,-0.081
1746649416407930092,-0.08600000000000001
1746649416415618119,-0.093
1746649416423306146,-0.088
1746649416430994173,-0.081
1746649416438682200,-0.08600000000000001
1746649416446370227,-0.096
1746649416454058254,-0.093
1746649416461746281,-0.091
1746649416469434308,-0.091
1746649416477122335,-0.08600000000000001
1746649416484810362,-0.091
1746649416492498389,-0.093
1746649416500186416,-0.083
1746649416507874443,-0.093
1746649416515562470,-0.108
1746649416523250497,-0.096
1746649416530938524,-0.078
1746649416538626551,-0.076
1746649416546314578,-0.073
1746649416554002605,-0.054
1746649416561690632,-0.051000000000000004
1746649416569378659,-0.069
1746649416577066686,-0.073
1746649416584754713,-0.066
1746649416592442740,-0.07100000000000001
1746649416600130767,-0.08600000000000001
1746649416607818794,-0.093
1746649416615506821,-0.083
1746649416623194848,-0.078
1746649416630882875,-0.101
1746649416638570902,-0.078
1746649416646258978,0.192,85,686
1746649416653946726,0.665,,717
1746649416661634474,0.7020000000000001
1746649416669322222,0.036000000000000004
1746649416677009970,-0.505
1746649416684697718,-0.40900000000000003
1746649416692385466,-0.229
1746649416700073214,-0.256
1746649416707760962,-0.199
1746649416715448710,-0.073
1746649416723136458,-0.056
1746649416730824206,-0.066
1746649416738511954,-0.036000000000000004
1746649416746199702,-0.036000000000000004
1746649416753887450,-0.054
1746649416761575198,-0.041
1746649416769262946,-0.012
1746649416776950694,0.0
1746649416784638442,-0.014
1746649416792326190,-0.014
1746649416800013938,0.002
1746649416807701686,0.004
1746649416815389434,0.014
1746649416823077182,0.029
1746649416830764930,0.032
1746649416838452678,0.036000000000000004
1746649416846140426,0.051000000000000004
1746649416853828174,0.076
1746649416861515922,0.093
1746649416869203670,0.101
1746649416876891418,0.12
1746649416884579166,0.14300000000000002
1746649416892266914,0.162
1746649416899954662,0.17500000000000002
1746649416907642410,0.155
1746649416915330158,0.145
1746649416923017906,0.128
1746649416930705654,0.088
1746649416938393402,0.061
1746649416946081150,0.027
1746649416953768898,-0.029
1746649416961456646,-0.091
1746649416969144394,-0.145
1746649416976832142,-0.167
1746649416984519890,-0.167
1746649416992207638,-0.162
1746649416999895386,-0.177
1746649417007583134,-0.20400000000000001
1746649417015270882,-0.197
1746649417022958630,-0.147
1746649417030646378,-0.125
1746649417038334126,-0.138
1746649417046021874,-0.128
1746649417053709622,-0.108
1746649417061397370,-0.11800000000000001
1746649417069085118,-0.133
1746649417076772866,-0.11800000000000001
1746649417084460614,-0.108
1746649417092148362,-0.106
1746649417099836110,-0.08600000000000001
1746649417107523858,-0.073
1746649417115211606,-0.11800000000000001
1746649417122899354,-0.147
1746649417130587102,-0.091
1746649417138274850,-0.091
1746649417145962598,-0.15
1746649417153650346,-0.108
1746649417161338094,-0.073
1746649417169025842,-0.115
1746649417176713590,-0.138
1746649417184401338,-0.147
1746649417192089086,-0.113
1746649417199776834,-0.059000000000000004
1746649417207464650,-0.081
1746649417215152538,-0.10300000000000001
1746649417222840426,-0.081
1746649417230528314,-0.125
1746649417238216202,-0.162
1746649417245904090,-0.07100000000000001
1746649417253591978,-0.036000000000000004
1746649417261279866,-0.125
1746649417268967754,-0.147
1746649417276655642,-0.12
1746649417284343530,-0.066
1746649417292031418,0.20400000000000001
1746649417299719306,0.633
1746649417307407194,0.658
1746649417315095082,0.044
1746649417322782970,-0.542
1746649417330470858,-0.532
1746649417338158746,-0.28300000000000003
1746649417345846634,-0.231
1746649417353534522,-0.189
1746649417361222410,-0.073
1746649417368910298,-0.051000000000000004
1746649417376598186,-0.069
1746649417384286074,-0.044
1746649417391973962,-0.014
1746649417399661850,0.007
1746649417407349738,0.004
1746649417415037626,-0.024
1746649417422725514,-0.032
1746649417430413402,0.007
1746649417438101290,0.034
1746649417445789178,0.022
1746649417453477066,0.007
1746649417461164954,0.024
1746649417468852842,0.054
1746649417476540730,0.059000000000000004
1746649417484228618,0.049
1746649417491916506,0.061
1746649417499604394,0.091
1746649417507292282,0.108
1746649417514980170,0.123
1746649417522668058,0.15
1746649417530355946,0.162
1746649417538043834,0.16
1746649417545731722,0.167
1746649417553419610,0.17
1746649417561107498,0.157
1746649417568795386,0.145
1746649417576483274,0.115
1746649417584171162,0.049
1746649417591859050,-0.014
1746649417599546938,-0.051000000000000004
1746649417607234826,-0.098
1746649417614922714,-0.13
1746649417622610602,-0.128
1746649417630298490,-0.135
1746649417637986378,-0.15
1746649417645674266,-0.152
1746649417653362154,-0.155
1746649417661050042,-0.15
1746649417668737930,-0.125
1746649417676425818,-0.113
1746649417684113706,-0.115
1746649417691801594,-0.108
1746649417699489482,-0.093
1746649417707177370,-0.088
1746649417714865258,-0.093
1746649417722553146,-0.088
1746649417730241034,-0.076
1746649417737928922,-0.078
1746649417745616810,-0.088
1746649417753304698,-0.076
1746649417760992586,-0.073
1746649417768680500,-0.096,85,673
1746649417776368527,-0.096
1746649417784056554,-0.081
1746649417791744581,-0.093
1746649417799432608,-0.108
1746649417807120635,-0.093
1746649417814808662,-0.083
1746649417822496689,-0.083
1746649417830184716,-0.083
1746649417837872743,-0.101
1746649417845560770,-0.093
1746649417853248797,-0.056
1746649417860936824,-0.051000000000000004
1746649417868624851,-0.083
1746649417876312878,-0.093
1746649417884000905,-0.078
1746649417891688932,-0.076
1746649417899376959,-0.081
1746649417907064986,-0.073
1746649417914753013,-0.069
1746649417922441040,-0.08600000000000001
1746649417930129067,-0.106
1746649417937817094,0.046
1746649417945505121,0.493
1746649417953193148,0.786
1746649417960881175,0.364
1746649417968569202,-0.36
1746649417976257229,-0.532
1746649417983945256,-0.276
1746649417991633283,-0.189
1746649417999321310,-0.212
1746649418007009337,-0.108
1746649418014697364,-0.036000000000000004
1746649418022385391,-0.054
1746649418030073418,-0.036000000000000004
1746649418037761445,-0.009000000000000001
1746649418045449472,-0.024
1746649418053137499,-0.032
1746649418060825526,-0.017
1746649418068513553,-0.012
1746649418076201580,-0.012
1746649418083889607,0.002
1746649418091577634,0.012
1746649418099265661,0.012
1746649418106953688,0.014
1746649418114641715,0.017
1746649418122329742,0.029
1746649418130017769,0.046
1746649418137705796,0.056
1746649418145393823,0.064
1746649418153081850,0.08600000000000001
1746649418160769877,0.11
1746649418168457904,0.128
1746649418176145931,0.14
1746649418183833958,0.14
1746649418191521985,0.145
1746649418199210012,0.155
1746649418206898039,0.16
1746649418214586066,0.152
1746649418222274093,0.123
1746649418229962120,0.081
1746649418237650147,0.032
1746649418245338174,-0.024
1746649418253026201,-0.07100000000000001
1746649418260714228,-0.108
1746649418268402255,-0.13
1746649418276090282,-0.135
1746649418283778309,-0.14
1746649418291466336,-0.152
1746649418299154363,-0.157
1746649418306842390,-0.155
1746649418314530417,-0.14300000000000002
1746649418322218444,-0.128
1746649418329906520,-0.12
1746649418337594129,-0.12
1746649418345281738,-0.12
1746649418352969347,-0.113
1746649418360656956,-0.108
1746649418368344565,-0.108
1746649418376032174,-0.096
1746649418383719783,-0.096
1746649418391407392,-0.101
1746649418399095001,-0.096
1746649418406782610,-0.093
1746649418414470219,-0.096
1746649418422157828,-0.088
1746649418429845437,-0.098
1746649418437533046,-0.113
1746649418445220655,-0.115
1746649418452908264,-0.11
1746649418460595873,-0.101
1746649418468283482,-0.088
1746649418475971091,-0.098
1746649418483658700,-0.11
1746649418491346309,-0.088
1746649418499033918,-0.07100000000000001
1746649418506721527,-0.076
1746649418514409136,-0.081
1746649418522096745,-0.083
1746649418529784354,-0.096
1746649418537471963,-0.096
1746649418545159572,-0.088
1746649418552847181,-0.08600000000000001
1746649418560534790,-0.088
1746649418568222399,-0.11
1746649418575910008,-0.115
1746649418583597617,0.11
1746649418591285226,0.604
1746649418598972835,0.803
1746649418606660444,0.273
1746649418614348053,-0.406
1746649418622035662,-0.48
1746649418629723271,-0.229
1746649418637410880,-0.184
1746649418645098489,-0.197
1746649418652786098,-0.093
1746649418660473707,-0.046
1746649418668161316,-0.073
1746649418675848925,-0.064
1746649418683536534,-0.041
1746649418691224143,-0.049
1746649418698911752,-0.049
1746649418706599361,-0.036000000000000004
1746649418714286970,-0.032
1746649418721974579,-0.024
1746649418729662188,-0.019
1746649418737349797,-0.022
1746649418745037406,-0.012
1746649418752725015,0.004
1746649418760412624,0.009000000000000001
1746649418768100233,0.009000000000000001
1746649418775787842,0.022
1746649418783475451,0.039
1746649418791163060,0.041
1746649418798850669,0.056
1746649418806538278,0.081
1746649418814225887,0.093
1746649418821913496,0.108
1746649418829601105,0.13
1746649418837288714,0.14
1746649418844976323,0.14300000000000002
1746649418852663932,0.147
1746649418860351541,0.14
1746649418868039150,0.106
1746649418875726759,0.061
1746649418883414368,0.009000000000000001
1746649418891102022,-0.039,86,680
1746649418898790049,-0.08600000000000001,,646
1746649418906478076,-0.12
1746649418914166103,-0.14
1746649418921854130,-0.147
1746649418929542157,-0.152
1746649418937230184,-0.15
1746649418944918211,-0.15
1746649418952606238,-0.15
1746649418960294265,-0.138
1746649418967982292,-0.13
1746649418975670319,-0.123
1746649418983358346,-0.11800000000000001
1746649418991046373,-0.115
1746649418998734400,-0.113
1746649419006422427,-0.10300000000000001
1746649419014110454,-0.101
1746649419021798481,-0.10300000000000001
1746649419029486508,-0.098
1746649419037174535,-0.091
1746649419044862562,-0.08600000000000001
1746649419052550589,-0.088
1746649419060238616,-0.106
1746649419067926643,-0.106
1746649419075614670,-0.098
1746649419083302697,-0.101
1746649419090990724,-0.098
1746649419098678751,-0.08600000000000001
1746649419106366778,-0.088
1746649419114054805,-0.088
1746649419121742832,-0.061
1746649419129430859,-0.039
1746649419137118886,-0.059000000000000004
1746649419144806913,-0.081
1746649419152494940,-0.076
1746649419160182967,-0.078
1746649419167870994,-0.076
1746649419175559021,-0.064
1746649419183247048,-0.061
1746649419190935075,-0.064
1746649419198623102,-0.093
1746649419206311129,-0.106
1746649419213999156,0.106
1746649419221687183,0.604
1746649419229375210,0.872
1746649419237063237,0.406
1746649419244751264,-0.305
1746649419252439291,-0.431
1746649419260127318,-0.182
1746649419267815345,-0.147
1746649419275503372,-0.177
1746649419283191399,-0.07100000000000001
1746649419290879426,-0.032
1746649419298567453,-0.064
1746649419306255480,-0.029
1746649419313943507,-0.007
1746649419321631534,-0.029
1746649419329319561,-0.017
1746649419337007588,0.004
1746649419344695615,-0.002
1746649419352383642,-0.002
1746649419360071669,0.009000000000000001
1746649419367759696,0.017
1746649419375447723,0.024
1746649419383135750,0.034
1746649419390823777,0.032
1746649419398511804,0.032
1746649419406199831,0.046
1746649419413887858,0.07100000000000001
1746649419421575885,0.093
1746649419429263912,0.098
1746649419436951939,0.108
1746649419444639966,0.128
1746649419452328042,0.155,87,649
1746649419460015860,0.165
1746649419467703678,0.162
1746649419475391496,0.18
1746649419483079314,0.202
1746649419490767132,0.182
1746649419498454950,0.135
1746649419506142768,0.093
1746649419513830586,0.051000000000000004
1746649419521518404,0.002
1746649419529206222,-0.039
1746649419536894040,-0.069
1746649419544581858,-0.08600000000000001
1746649419552269676,-0.096
1746649419559957494,-0.096
1746649419567645312,-0.106
1746649419575333130,-0.108
1746649419583020948,-0.093
1746649419590708766,-0.081
1746649419598396584,-0.078
1746649419606084402,-0.073
1746649419613772220,-0.066
1746649419621460038,-0.066
1746649419629147856,-0.07100000000000001
1746649419636835674,-0.066
1746649419644523492,-0.049
1746649419652211310,-0.041
1746649419659899128,-0.049
1746649419667586946,-0.051000000000000004
1746649419675274764,-0.039
1746649419682962582,-0.051000000000000004
1746649419690650400,-0.081
1746649419698338218,-0.083
1746649419706026036,-0.066
1746649419713713854,-0.049
1746649419721401672,-0.039
1746649419729089490,-0.044
1746649419736777308,-0.032
1746649419744465126,-0.012
1746649419752152944,-0.022
1746649419759840762,-0.036000000000000004
1746649419767528580,-0.036000000000000004
1746649419775216398,-0.029
1746649419782904216,-0.032
1746649419790592034,-0.051000000000000004
1746649419798279852,-0.056
1746649419805967670,-0.034
1746649419813655488,-0.034
1746649419821343306,-0.081
1746649419829031124,-0.041
1746649419836718942,0.313
1746649419844406760,0.8180000000000001
1746649419852094578,0.8210000000000001
1746649419859782396,0.155
1746649419867470214,-0.387
1746649419875158032,-0.305
1746649419882845850,-0.11
1746649419890533668,-0.14
1746649419898221486,-0.11
1746649419905909304,-0.017
1746649419913597122,-0.024
1746649419921284940,-0.044
1746649419928972758,-0.014
1746649419936660576,0.004
1746649419944348394,0.007
1746649419952036212,0.002
1746649419959724030,-0.004
1746649419967411848,0.004
1746649419975099666,0.027
1746649419982787484,0.024
1746649419990475302,0.022
1746649419998163120,0.034
1746649420005850938,0.027
1746649420013538801,0.022
1746649420021226758,0.044
1746649420028914715,0.064
1746649420036602672,0.066
1746649420044290629,0.066
1746649420051978586,0.088
1746649420059666543,0.115
1746649420067354500,0.13
1746649420075042457,0.133
1746649420082730414,0.13
1746649420090418371,0.152
1746649420098106328,0.17500000000000002
1746649420105794285,0.162
1746649420113482242,0.138
1746649420121170199,0.11
1746649420128858156,0.07100000000000001
1746649420136546113,0.019
1746649420144234070,-0.024
1746649420151922027,-0.054
1746649420159609984,-0.076
1746649420167297941,-0.098
1746649420174985898,-0.11800000000000001
1746649420182673855,-0.115
1746649420190361812,-0.106
1746649420198049769,-0.106
1746649420205737726,-0.106
1746649420213425683,-0.106
1746649420221113640,-0.101
1746649420228801597,-0.091
1746649420236489554,-0.093
1746649420244177511,-0.096
1746649420251865468,-0.08600000000000001
1746649420259553425,-0.083
1746649420267241382,-0.08600000000000001
1746649420274929339,-0.081
1746649420282617296,-0.078
1746649420290305253,-0.083
1746649420297993210,-0.088
1746649420305681167,-0.078
1746649420313369124,-0.069
1746649420321057081,-0.078
1746649420328745038,-0.088
1746649420336432995,-0.08600000000000001
1746649420344120952,-0.08600000000000001
1746649420351808909,-0.093
1746649420359496866,-0.08600000000000001
1746649420367184823,-0.069
1746649420374872780,-0.066
1746649420382560737,-0.056
1746649420390248694,-0.046
1746649420397936651,-0.056
1746649420405624608,-0.066
1746649420413312565,-0.07100000000000001
1746649420421000522,-0.078
1746649420428688479,-0.076
1746649420436376436,-0.07100000000000001
1746649420444064393,-0.07100000000000001
1746649420451752350,-0.07100000000000001
1746649420459440307,-0.078
1746649420467128264,-0.113
1746649420474816221,-0.036000000000000004
1746649420482504178,0.36
1746649420490192135,0.808
1746649420497880092,0.68
1746649420505568049,-0.007
1746649420513256006,-0.424
1746649420520943963,-0.28600000000000003
1746649420528631920,-0.155
1746649420536319877,-0.194
1746649420544007834,-0.138
1746649420551695791,-0.069
1746649420559383748,-0.091
1746649420567071705,-0.088
1746649420574759734,-0.056,88,645
1746649420582447691,-0.059000000000000004,,631
1746649420590135648,-0.064
1746649420597823605,-0.049
1746649420605511562,-0.039
1746649420613199519,-0.049
1746649420620887476,-0.044
1746649420628575433,-0.029
1746649420636263390,-0.032
1746649420643951347,-0.039
1746649420651639304,-0.027
1746649420659327261,-0.009000000000000001
1746649420667015218,-0.004
1746649420674703175,-0.002
1746649420682391132,0.007
1746649420690079089,0.019
1746649420697767046,0.039
1746649420705455003,0.059000000000000004
1746649420713142960,0.07100000000000001
1746649420720830917,0.083
1746649420728518874,0.091
1746649420736206831,0.093
1746649420743894788,0.10300000000000001
1746649420751582745,0.11
1746649420759270702,0.098
1746649420766958659,0.066
1746649420774646616,0.022
1746649420782334573,-0.024
1746649420790022530,-0.07100000000000001
1746649420797710487,-0.113
1746649420805398444,-0.14
1746649420813086401,-0.15
1746649420820774358,-0.152
1746649420828462315,-0.157
1746649420836150272,-0.155
1746649420843838229,-0.15
1746649420851526186,-0.15
1746649420859214143,-0.152
1746649420866902100,-0.15
1746649420874590057,-0.147
1746649420882278014,-0.145
1746649420889965971,-0.14300000000000002
1746649420897653928,-0.135
1746649420905341885,-0.133
1746649420913029842,-0.135
1746649420920717799,-0.133
1746649420928405756,-0.123
1746649420936093713,-0.123
1746649420943781670,-0.13
1746649420951469627,-0.133
1746649420959157584,-0.125
1746649420966845541,-0.123
1746649420974533498,-0.125
1746649420982221455,-0.123
1746649420989909412,-0.125
1746649420997597369,-0.128
1746649421005285326,-0.123
1746649421012973283,-0.12
1746649421020661240,-0.11800000000000001
1746649421028349197,-0.11800000000000001
1746649421036037154,-0.12
1746649421043725111,-0.11800000000000001
1746649421051413068,-0.113
1746649421059101025,-0.11
1746649421066788982,-0.11
1746649421074476939,-0.106
1746649421082164896,-0.108
1746649421089852853,-0.115
1746649421097540810,-0.113
1746649421105228767,-0.10300000000000001
1746649421112916724,-0.101
1746649421120604681,-0.101
1746649421128292638,-0.10300000000000001
1746649421135980667,-0.098
1746649421143668625,-0.093
1746649421151356583,-0.098
1746649421159044541,-0.101
1746649421166732499,-0.096
1746649421174420457,-0.096
1746649421182108415,-0.096
1746649421189796373,-0.091
1746649421197484331,-0.091
1746649421205172289,-0.093
1746649421212860247,-0.093
1746649421220548205,-0.093
1746649421228236163,-0.091
1746649421235924121,-0.093
1746649421243612079,-0.093
1746649421251300037,-0.093
1746649421258987995,-0.098
1746649421266675953,-0.101
1746649421274363911,-0.096
1746649421282051869,-0.078
1746649421289739827,-0.061
1746649421297427785,-0.054
1746649421305115743,-0.056
1746649421312803701,-0.054
1746649421320491659,-0.064
1746649421328179617,-0.081
1746649421335867575,-0.08600000000000001
1746649421343555533,-0.083
1746649421351243491,-0.076
1746649421358931449,-0.073
1746649421366619407,-0.078
1746649421374307365,-0.083
1746649421381995323,-0.096
1746649421389683281,-0.135
1746649421397371239,-0.091
1746649421405059197,0.231
1746649421412747155,0.722
1746649421420435113,0.806
1746649421428123071,0.246
1746649421435811029,-0.315
1746649421443498987,-0.332
1746649421451186945,-0.177
1746649421458874903,-0.194
1746649421466562861,-0.177
1746649421474250819,-0.101
1746649421481938777,-0.10300000000000001
1746649421489626735,-0.115
1746649421497314693,-0.091
1746649421505002651,-0.081
1746649421512690609,-0.083
1746649421520378567,-0.07100000000000001
1746649421528066525,-0.069
1746649421535754483,-0.081
1746649421543442441,-0.076
1746649421551130399,-0.054
1746649421558818357,-0.046
1746649421566506315,-0.054
1746649421574194273,-0.046
1746649421581882231,-0.041
1746649421589570189,-0.044
1746649421597258147,-0.034
1746649421604946105,-0.022
1746649421612634063,-0.014
1746649421620322021,-0.007
1746649421628009979,0.004
1746649421635697937,0.014
1746649421643385895,0.024
1746649421651073853,0.041
1746649421658761811,0.054
1746649421666449769,0.054
1746649421674137727,0.064
1746649421681825685,0.078
1746649421689513643,0.078
1746649421697201604,0.066,89,620
1746649421704889561,0.046
1746649421712577518,0.014
1746649421720265475,-0.022
1746649421727953432,-0.059000000000000004
1746649421735641389,-0.093
1746649421743329346,-0.113
1746649421751017303,-0.123
1746649421758705260,-0.128
1746649421766393217,-0.13
1746649421774081174,-0.135
1746649421781769131,-0.138
1746649421789457088,-0.128
1746649421797145045,-0.128
1746649421804833002,-0.135
1746649421812520959,-0.13
1746649421820208916,-0.11800000000000001
1746649421827896873,-0.123
1746649421835584830,-0.128
1746649421843272787,-0.115
1746649421850960744,-0.106
1746649421858648701,-0.108
1746649421866336658,-0.11800000000000001
1746649421874024615,-0.11800000000000001
1746649421881712572,-0.11
1746649421889400529,-0.106
1746649421897088486,-0.113
1746649421904776443,-0.12
1746649421912464400,-0.113
1746649421920152357,-0.108
1746649421927840314,-0.11800000000000001
1746649421935528271,-0.115
1746649421943216228,-0.106
1746649421950904185,-0.108
1746649421958592142,-0.113
1746649421966280099,-0.108
1746649421973968056,-0.098
1746649421981656013,-0.098
1746649421989343970,-0.101
1746649421997031927,-0.098
1746649422004719884,-0.096
1746649422012407841,-0.096
1746649422020095798,-0.096
1746649422027783755,-0.093
1746649422035471712,-0.088
1746649422043159669,-0.08600000000000001
1746649422050847626,-0.083
1746649422058535583,-0.083
1746649422066223540,-0.081
1746649422073911497,-0.081
1746649422081599454,-0.083
1746649422089287411,-0.083
1746649422096975368,-0.076
1746649422104663325,-0.07100000000000001
1746649422112351282,-0.073
1746649422120039239,-0.078
1746649422127727196,-0.078
1746649422135415153,-0.076
1746649422143103110,-0.076
1746649422150791067,-0.083
1746649422158479024,-0.088
1746649422166166981,-0.081
1746649422173854938,-0.07100000000000001
1746649422181542895,-0.064
1746649422189230852,-0.054
1746649422196918809,-0.049
1746649422204606766,-0.049
1746649422212294723,-0.046
1746649422219982680,-0.059000000000000004
1746649422227670637,-0.078
1746649422235358594,-0.073
1746649422243046551,-0.069
1746649422250734508,-0.07100000000000001
1746649422258422537,-0.064
1746649422266110216,-0.061
1746649422273797895,-0.07100000000000001
1746649422281485574,-0.091
1746649422289173253,-0.125
1746649422296860932,-0.029
1746649422304548611,0.374
1746649422312236290,0.786
1746649422319923969,0.621
1746649422327611648,-0.034
1746649422335299327,-0.394
1746649422342987006,-0.263
1746649422350674685,-0.17200000000000001
1746649422358362364,-0.20700000000000002
1746649422366050043,-0.135
1746649422373737722,-0.07100000000000001
1746649422381425401,-0.096
1746649422389113080,-0.098
1746649422396800759,-0.064
1746649422404488438,-0.059000000000000004
1746649422412176117,-0.066
1746649422419863796,-0.054
1746649422427551475,-0.051000000000000004
1746649422435239154,-0.051000000000000004
1746649422442926833,-0.039
1746649422450614512,-0.032
1746649422458302191,-0.032
1746649422465989870,-0.024
1746649422473677549,-0.027
1746649422481365228,-0.024
1746649422489052907,-0.002
1746649422496740586,0.012
1746649422504428265,0.012
1746649422512115944,0.024
1746649422519803623,0.039
1746649422527491302,0.049
1746649422535178981,0.061
1746649422542866660,0.073
1746649422550554339,0.081
1746649422558242018,0.093
1746649422565929697,0.096
1746649422573617376,0.088
1746649422581305055,0.091
1746649422588992734,0.08600000000000001
1746649422596680413,0.051000000000000004
1746649422604368092,0.012
1746649422612055771,-0.022
1746649422619743450,-0.059000000000000004
1746649422627431129,-0.091
1746649422635118808,-0.11
1746649422642806487,-0.125
1746649422650494166,-0.138
1746649422658181845,-0.147
1746649422665869524,-0.145
1746649422673557203,-0.135
1746649422681244882,-0.133
1746649422688932561,-0.125
1746649422696620240,-0.113
1746649422704307919,-0.115
1746649422711995598,-0.123
1746649422719683277,-0.113
1746649422727370956,-0.108
1746649422735058635,-0.106
1746649422742746314,-0.10300000000000001
1746649422750433993,-0.101
1746649422758121672,-0.101
1746649422765809351,-0.10300000000000001
1746649422773497030,-0.10300000000000001
1746649422781184709,-0.10300000000000001
1746649422788872388,-0.106
1746649422796560067,-0.106
1746649422804247746,-0.10300000000000001
1746649422811935425,-0.101
1746649422819623126,-0.10300000000000001,90,645
1746649422827311153,-0.10300000000000001
1746649422834999180,-0.093
1746649422842687207,-0.091
1746649422850375234,-0.088
1746649422858063261,-0.08600000000000001
1746649422865751288,-0.093
1746649422873439315,-0.101
1746649422881127342,-0.093
1746649422888815369,-0.083
1746649422896503396,-0.088
1746649422904191423,-0.093
1746649422911879450,-0.083
1746649422919567477,-0.073
1746649422927255504,-0.078
1746649422934943531,-0.081
1746649422942631558,-0.076
1746649422950319585,-0.07100000000000001
1746649422958007612,-0.069
1746649422965695639,-0.07100000000000001
1746649422973383666,-0.083
1746649422981071693,-0.08600000000000001
1746649422988759720,-0.07100000000000001
1746649422996447747,-0.056
1746649423004135774,-0.044
1746649423011823801,-0.032
1746649423019511828,-0.032
1746649423027199855,-0.039
1746649423034887882,-0.051000000000000004
1746649423042575909,-0.059000000000000004
1746649423050263936,-0.061
1746649423057951963,-0.064
1746649423065639990,-0.066
1746649423073328017,-0.064
1746649423081016044,-0.059000000000000004
1746649423088704071,-0.059000000000000004
1746649423096392098,-0.078
1746649423104080125,-0.076
1746649423111768152,0.115
1746649423119456179,0.557
1746649423127144206,0.774
1746649423134832233,0.29
1746649423142520260,-0.387
1746649423150208287,-0.495
1746649423157896314,-0.268
1746649423165584341,-0.226
1746649423173272368,-0.212
1746649423180960395,-0.078
1746649423188648422,-0.027
1746649423196336449,-0.051000000000000004
1746649423204024476,-0.036000000000000004
1746649423211712503,-0.017
1746649423219400530,-0.014
1746649423227088557,-0.007
1746649423234776584,-0.002
1746649423242464611,0.004
1746649423250152638,0.012
1746649423257840665,0.004
1746649423265528692,0.004
1746649423273216719,0.027
1746649423280904746,0.036000000000000004
1746649423288592773,0.036000000000000004
1746649423296280800,0.041
1746649423303968827,0.056
1746649423311656854,0.064
1746649423319344881,0.066
1746649423327032908,0.073
1746649423334720935,0.083
1746649423342408962,0.098
1746649423350096989,0.115
1746649423357785016,0.125
1746649423365473043,0.13
1746649423373161070,0.135
1746649423380849146,0.135
1746649423388536894,0.138
1746649423396224642,0.133
1746649423403912390,0.096
1746649423411600138,0.054
1746649423419287886,0.014
1746649423426975634,-0.024
1746649423434663382,-0.061
1746649423442351130,-0.091
1746649423450038878,-0.11800000000000001
1746649423457726626,-0.13
1746649423465414374,-0.125
1746649423473102122,-0.128
1746649423480789870,-0.138
1746649423488477618,-0.125
1746649423496165366,-0.11
1746649423503853114,-0.11
1746649423511540862,-0.108
1746649423519228610,-0.101
1746649423526916358,-0.088
1746649423534604106,-0.08600000000000001
1746649423542291854,-0.091
1746649423549979602,-0.08600000000000001
1746649423557667350,-0.073
1746649423565355098,-0.076
1746649423573042846,-0.081
1746649423580730594,-0.078
1746649423588418342,-0.078
1746649423596106090,-0.078
1746649423603793838,-0.083
1746649423611481586,-0.088
1746649423619169334,-0.078
1746649423626857082,-0.07100000000000001
1746649423634544830,-0.081
1746649423642232578,-0.081
1746649423649920326,-0.073
1746649423657608074,-0.069
1746649423665295822,-0.066
1746649423672983570,-0.064
1746649423680671318,-0.064
1746649423688359066,-0.059000000000000004
1746649423696046814,-0.056
1746649423703734562,-0.056
1746649423711422310,-0.056
1746649423719110058,-0.056
1746649423726797806,-0.054
1746649423734485554,-0.049
1746649423742173302,-0.046
1746649423749861050,-0.049
1746649423757548798,-0.044
1746649423765236546,-0.034
1746649423772924294,-0.034
1746649423780612042,-0.041
1746649423788299790,-0.039
1746649423795987538,-0.034
1746649423803675286,-0.034
1746649423811363034,-0.036000000000000004
1746649423819050782,-0.039
1746649423826738530,-0.034
1746649423834426278,-0.014
1746649423842114026,0.0
1746649423849801774,0.002
1746649423857489522,0.0
1746649423865177270,0.0
1746649423872865018,0.002
1746649423880552766,-0.004
1746649423888240514,-0.017
1746649423895928262,-0.024
1746649423903616010,-0.019
1746649423911303758,-0.017
1746649423918991506,-0.017
1746649423926679254,-0.017
1746649423934367002,-0.029
1746649423942054818,-0.064,91,925
1746649423949742775,-0.004
1746649423957430732,0.34500000000000003
1746649423965118689,0.806
1746649423972806646,0.789
1746649423980494603,0.17200000000000001
1746649423988182560,-0.303
1746649423995870517,-0.231
1746649424003558474,-0.10300000000000001
1746649424011246431,-0.14300000000000002
1746649424018934388,-0.091
1746649424026622345,-0.002
1746649424034310302,-0.022
1746649424041998259,-0.039
1746649424049686216,-0.007
1746649424057374173,0.004
1746649424065062130,0.002
1746649424072750087,0.009000000000000001
1746649424080438044,0.017
1746649424088126001,0.024
1746649424095813958,0.022
1746649424103501915,0.022
1746649424111189872,0.034
1746649424118877829,0.039
1746649424126565786,0.039
1746649424134253743,0.046
1746649424141941700,0.056
1746649424149629657,0.061
1746649424157317614,0.064
1746649424165005571,0.07100000000000001
1746649424172693528,0.083
1746649424180381485,0.098
1746649424188069442,0.115
1746649424195757399,0.128
1746649424203445356,0.133
1746649424211133313,0.14
1746649424218821270,0.15
1746649424226509227,0.152
1746649424234197184,0.15
1746649424241885141,0.145
1746649424249573098,0.123
1746649424257261055,0.08600000000000001
1746649424264949012,0.046
1746649424272636969,0.009000000000000001
1746649424280324926,-0.022
1746649424288012883,-0.046
1746649424295700840,-0.064
1746649424303388797,-0.069
1746649424311076754,-0.066
1746649424318764711,-0.07100000000000001
1746649424326452668,-0.078
1746649424334140625,-0.073
1746649424341828582,-0.061
1746649424349516539,-0.056
1746649424357204496,-0.051000000000000004
1746649424364892453,-0.054
1746649424372580410,-0.056
1746649424380268367,-0.049
1746649424387956324,-0.041
1746649424395644281,-0.044
1746649424403332238,-0.044
1746649424411020195,-0.041
1746649424418708152,-0.046
1746649424426396109,-0.051000000000000004
1746649424434084066,-0.049
1746649424441772023,-0.044
1746649424449459980,-0.046
1746649424457147937,-0.049
1746649424464835894,-0.046
1746649424472523851,-0.044
1746649424480211808,-0.041
1746649424487899765,-0.044
1746649424495587722,-0.056
1746649424503275751,-0.051000000000000004,92,896
1746649424510963709,-0.036000000000000004
1746649424518651667,-0.039
1746649424526339625,-0.049
1746649424534027583,-0.044
1746649424541715541,-0.036000000000000004
1746649424549403499,-0.041
1746649424557091457,-0.036000000000000004
1746649424564779415,-0.034
1746649424572467373,-0.039
1746649424580155331,-0.034
1746649424587843289,-0.027
1746649424595531247,-0.036000000000000004
1746649424603219205,-0.041
1746649424610907163,-0.032
1746649424618595121,-0.024
1746649424626283079,-0.034
1746649424633971037,-0.036000000000000004
1746649424641658995,-0.027
1746649424649346953,-0.022
1746649424657034911,-0.032
1746649424664722869,-0.041
1746649424672410827,-0.039
1746649424680098785,-0.036000000000000004
1746649424687786743,-0.039
1746649424695474701,-0.039
1746649424703162659,-0.014
1746649424710850617,0.004
1746649424718538575,-0.007
1746649424726226533,-0.019
1746649424733914491,-0.004
1746649424741602449,-0.012
1746649424749290407,-0.034
1746649424756978365,-0.039
1746649424764666323,-0.032
1746649424772354281,-0.036000000000000004
1746649424780042239,-0.034
1746649424787730197,-0.027
1746649424795418155,-0.039
1746649424803106113,-0.07100000000000001
1746649424810794071,-0.091
1746649424818482029,0.049
1746649424826169987,0.47300000000000003
1746649424833857945,0.8300000000000001
1746649424841545903,0.5740000000000001
1746649424849233861,-0.088
1746649424856921819,-0.369
1746649424864609777,-0.209
1746649424872297735,-0.14300000000000002
1746649424879985693,-0.165
1746649424887673651,-0.08600000000000001
1746649424895361609,-0.039
1746649424903049567,-0.066
1746649424910737525,-0.054
1746649424918425483,-0.029
1746649424926113441,-0.032
1746649424933801399,-0.029
1746649424941489357,-0.019
1746649424949177315,-0.019
1746649424956865273,-0.022
1746649424964553231,-0.014
1746649424972241189,-0.004
1746649424979929147,-0.002
1746649424987617105,-0.004
1746649424995305063,0.002
1746649425002993021,0.014
1746649425010680979,0.024
1746649425018368937,0.029
1746649425026056895,0.034
1746649425033744853,0.044
1746649425041432811,0.054
1746649425049120769,0.066
1746649425056808727,0.08600000000000001
1746649425064496688,0.098
1746649425072184645,0.10300000000000001
1746649425079872602,0.113
1746649425087560559,0.11800000000000001
1746649425095248516,0.115
1746649425102936473,0.113
1746649425110624430,0.10300000000000001
1746649425118312387,0.073
1746649425126000344,0.027
1746649425133688301,-0.014
1746649425141376258,-0.041
1746649425149064215,-0.07100000000000001
1746649425156752172,-0.101
1746649425164440129,-0.115
1746649425172128086,-0.11800000000000001
1746649425179816043,-0.12
1746649425187504000,-0.11800000000000001
1746649425195191957,-0.113
1746649425202879914,-0.108
1746649425210567871,-0.10300000000000001
1746649425218255828,-0.10300000000000001
1746649425225943785,-0.101
1746649425233631742,-0.096
1746649425241319699,-0.096
1746649425249007656,-0.091
1746649425256695613,-0.083
1746649425264383570,-0.083
1746649425272071527,-0.08600000000000001
1746649425279759484,-0.081
1746649425287447441,-0.078
1746649425295135398,-0.083
1746649425302823355,-0.08600000000000001
1746649425310511312,-0.088
1746649425318199269,-0.088
1746649425325887226,-0.08600000000000001
1746649425333575183,-0.08600000000000001
1746649425341263140,-0.08600000000000001
1746649425348951097,-0.083
1746649425356639054,-0.088
1746649425364327011,-0.093
1746649425372014968,-0.091
1746649425379702925,-0.08600000000000001
1746649425387390882,-0.081
1746649425395078839,-0.078
1746649425402766796,-0.078
1746649425410454753,-0.07100000000000001
1746649425418142710,-0.069
1746649425425830667,-0.076
1746649425433518624,-0.083
1746649425441206581,-0.081
1746649425448894538,-0.07100000000000001
1746649425456582495,-0.066
1746649425464270452,-0.069
1746649425471958409,-0.073
1746649425479646366,-0.076
1746649425487334323,-0.078
1746649425495022280,-0.078
1746649425502710237,-0.078
1746649425510398194,-0.07100000000000001
1746649425518086151,-0.059000000000000004
1746649425525774108,-0.046
1746649425533462065,-0.036000000000000004
1746649425541150022,-0.036000000000000004
1746649425548837979,-0.049
1746649425556525936,-0.061
1746649425564213893,-0.064
1746649425571901850,-0.061
1746649425579589807,-0.066
1746649425587277764,-0.069
1746649425594965721,-0.066
1746649425602653678,-0.073
1746649425610341635,-0.08600000000000001
1746649425618029592,-0.106
1746649425625717621,-0.039,92,812
1746649425633405300,0.303,,843
1746649425641092979,0.734
1746649425648780658,0.648
1746649425656468337,0.007
1746649425664156016,-0.41400000000000003
1746649425671843695,-0.3
1746649425679531374,-0.17200000000000001
1746649425687219053,-0.202
1746649425694906732,-0.14
1746649425702594411,-0.061
1746649425710282090,-0.076
1746649425717969769,-0.076
1746649425725657448,-0.044
1746649425733345127,-0.044
1746649425741032806,-0.051000000000000004
1746649425748720485,-0.036000000000000004
1746649425756408164,-0.029
1746649425764095843,-0.032
1746649425771783522,-0.022
1746649425779471201,-0.019
1746649425787158880,-0.022
1746649425794846559,-0.009000000000000001
1746649425802534238,0.002
1746649425810221917,0.0
1746649425817909596,0.009000000000000001
1746649425825597275,0.022
1746649425833284954,0.024
1746649425840972633,0.034
1746649425848660312,0.056
1746649425856347991,0.07100000000000001
1746649425864035670,0.076
1746649425871723349,0.091
1746649425879411028,0.106
1746649425887098707,0.108
1746649425894786386,0.11800000000000001
1746649425902474065,0.125
1746649425910161744,0.11800000000000001
1746649425917849423,0.10300000000000001
1746649425925537102,0.076
1746649425933224781,0.029
1746649425940912460,-0.017
1746649425948600139,-0.051000000000000004
1746649425956287818,-0.076
1746649425963975497,-0.096
1746649425971663176,-0.11
1746649425979350855,-0.11800000000000001
1746649425987038534,-0.11800000000000001
1746649425994726213,-0.115
1746649426002413892,-0.108
1746649426010101571,-0.101
1746649426017789250,-0.098
1746649426025476929,-0.101
1746649426033164608,-0.096
1746649426040852287,-0.08600000000000001
1746649426048539966,-0.08600000000000001
1746649426056227645,-0.093
1746649426063915324,-0.08600000000000001
1746649426071603003,-0.066
1746649426079290682,-0.056
1746649426086978361,-0.064
1746649426094666040,-0.069
1746649426102353719,-0.069
1746649426110041398,-0.066
1746649426117729077,-0.064
1746649426125416756,-0.066
1746649426133104435,-0.07100000000000001
1746649426140792114,-0.069
1746649426148479793,-0.064
1746649426156167472,-0.064
1746649426163855151,-0.07100000000000001
1746649426171542830,-0.07100000000000001
1746649426179230509,-0.059000000000000004
1746649426186918210,-0.051000000000000004
1746649426194606028,-0.061
1746649426202293846,-0.066
1746649426209981664,-0.056
1746649426217669482,-0.051000000000000004
1746649426225357300,-0.056
1746649426233045118,-0.066
1746649426240732936,-0.07100000000000001
1746649426248420754,-0.066
1746649426256108572,-0.054
1746649426263796390,-0.051000000000000004
1746649426271484208,-0.044
1746649426279172026,-0.034
1746649426286859844,-0.019
1746649426294547662,-0.009000000000000001
1746649426302235480,-0.024
1746649426309923298,-0.046
1746649426317611116,-0.051000000000000004
1746649426325298934,-0.044
1746649426332986752,-0.041
1746649426340674570,-0.049
1746649426348362388,-0.051000000000000004
1746649426356050206,-0.049
1746649426363738024,-0.064
1746649426371425842,-0.041
1746649426379113660,0.192
1746649426386801478,0.631
1746649426394489296,0.747
1746649426402177114,0.197
1746649426409864932,-0.387
1746649426417552750,-0.392
1746649426425240568,-0.194
1746649426432928386,-0.182
1746649426440616204,-0.147
1746649426448304022,-0.044
1746649426455991840,-0.034
1746649426463679658,-0.049
1746649426471367476,-0.019
1746649426479055294,-0.007
1746649426486743112,-0.017
1746649426494430930,-0.009000000000000001
1746649426502118748,0.004
1746649426509806566,0.004
1746649426517494384,0.007
1746649426525182202,0.014
1746649426532870020,0.019
1746649426540557838,0.027
1746649426548245656,0.036000000000000004
1746649426555933474,0.041
1746649426563621292,0.044
1746649426571309110,0.054
1746649426578996928,0.07100000000000001
1746649426586684746,0.083
1746649426594372564,0.106
1746649426602060382,0.128
1746649426609748200,0.135
1746649426617436018,0.14300000000000002
1746649426625123836,0.157
1746649426632811654,0.17200000000000001
1746649426640499472,0.17
1746649426648187290,0.162
1746649426655875108,0.16
1746649426663562926,0.138
1746649426671250744,0.088
1746649426678938562,0.039
1746649426686626380,0.004
1746649426694314198,-0.044
1746649426702002016,-0.096
1746649426709689834,-0.11800000000000001
1746649426717377652,-0.13
1746649426725065470,-0.155
1746649426732753288,-0.16
1746649426740441106,-0.14300000000000002
1746649426748128969,-0.135,92,866
1746649426755816787,-0.14300000000000002
1746649426763504605,-0.14
1746649426771192423,-0.123
1746649426778880241,-0.113
1746649426786568059,-0.11
1746649426794255877,-0.11800000000000001
1746649426801943695,-0.115
1746649426809631513,-0.106
1746649426817319331,-0.10300000000000001
1746649426825007149,-0.11
1746649426832694967,-0.11
1746649426840382785,-0.098
1746649426848070603,-0.091
1746649426855758421,-0.098
1746649426863446239,-0.11
1746649426871134057,-0.113
1746649426878821875,-0.113
1746649426886509693,-0.106
1746649426894197511,-0.101
1746649426901885329,-0.11
1746649426909573147,-0.11
1746649426917260965,-0.098
1746649426924948783,-0.106
1746649426932636601,-0.123
1746649426940324419,-0.115
1746649426948012237,-0.098
1746649426955700055,-0.098
1746649426963387873,-0.091
1746649426971075691,-0.066
1746649426978763509,-0.059000000000000004
1746649426986451327,-0.069
1746649426994139145,-0.076
1746649427001826963,-0.083
1746649427009514781,-0.098
1746649427017202599,-0.098
1746649427024890417,-0.08600000000000001
1746649427032578235,-0.076
1746649427040266053,-0.083
1746649427047953871,-0.096
1746649427055641689,-0.106
1746649427063329507,-0.061
1746649427071017325,0.194
1746649427078705143,0.641
1746649427086392961,0.705
1746649427094080779,0.056
1746649427101768597,-0.542
1746649427109456415,-0.47800000000000004
1746649427117144233,-0.268
1746649427124832051,-0.28300000000000003
1746649427132519869,-0.221
1746649427140207687,-0.069
1746649427147895505,-0.039
1746649427155583323,-0.061
1746649427163271141,-0.044
1746649427170958959,-0.027
1746649427178646777,-0.024
1746649427186334595,-0.017
1746649427194022413,-0.007
1746649427201710231,0.0
1746649427209398049,0.007
1746649427217085867,0.004
1746649427224773685,0.007
1746649427232461503,0.022
1746649427240149321,0.034
1746649427247837139,0.036000000000000004
1746649427255524957,0.054
1746649427263212775,0.07100000000000001
1746649427270900593,0.069
1746649427278588411,0.081
1746649427286276229,0.11
1746649427293964047,0.128
1746649427301651865,0.14300000000000002
1746649427309339732,0.165
1746649427317027411,0.177
1746649427324715090,0.177
1746649427332402769,0.177
1746649427340090448,0.177
1746649427347778127,0.16
1746649427355465806,0.123
1746649427363153485,0.073
1746649427370841164,0.022
1746649427378528843,-0.027
1746649427386216522,-0.078
1746649427393904201,-0.128
1746649427401591880,-0.147
1746649427409279559,-0.157
1746649427416967238,-0.17200000000000001
1746649427424654917,-0.17
1746649427432342596,-0.157
1746649427440030275,-0.152
1746649427447717954,-0.155
1746649427455405633,-0.145
1746649427463093312,-0.128
1746649427470780991,-0.12
1746649427478468670,-0.12
1746649427486156349,-0.115
1746649427493844028,-0.10300000000000001
1746649427501531707,-0.093
1746649427509219386,-0.096
1746649427516907065,-0.101
1746649427524594744,-0.096
1746649427532282423,-0.101
1746649427539970102,-0.108
1746649427547657781,-0.101
1746649427555345460,-0.096
1746649427563033139,-0.098
1746649427570720818,-0.101
1746649427578408497,-0.10300000000000001
1746649427586096176,-0.11
1746649427593783855,-0.113
1746649427601471534,-0.106
1746649427609159213,-0.098
1746649427616846892,-0.096
1746649427624534571,-0.101
1746649427632222250,-0.115
1746649427639909929,-0.11800000000000001
1746649427647597608,-0.108
1746649427655285287,-0.096
1746649427662972966,-0.083
1746649427670660645,-0.069
1746649427678348324,-0.059000000000000004
1746649427686036003,-0.064
1746649427693723682,-0.078
1746649427701411361,-0.083
1746649427709099040,-0.076
1746649427716786719,-0.076
1746649427724474398,-0.081
1746649427732162077,-0.081
1746649427739849756,-0.078
1746649427747537435,-0.076
1746649427755225114,-0.10300000000000001
1746649427762912793,-0.123
1746649427770600472,0.061
1746649427778288151,0.532
1746649427785975830,0.8230000000000001
1746649427793663509,0.41400000000000003
1746649427801351188,-0.28600000000000003
1746649427809038867,-0.451
1746649427816726546,-0.219
1746649427824414225,-0.18
1746649427832101904,-0.20700000000000002
1746649427839789583,-0.106
1746649427847477262,-0.059000000000000004
1746649427855164941,-0.083
1746649427862852620,-0.07100000000000001
1746649427870540317,-0.054,91,809
1746649427878228274,-0.056
1746649427885916231,-0.051000000000000004
1746649427893604188,-0.039
1746649427901292145,-0.039
1746649427908980102,-0.034
1746649427916668059,-0.024
1746649427924356016,-0.022
1746649427932043973,-0.022
1746649427939731930,-0.014
1746649427947419887,-0.009000000000000001
1746649427955107844,-0.004
1746649427962795801,0.0
1746649427970483758,0.012
1746649427978171715,0.024
1746649427985859672,0.041
1746649427993547629,0.054
1746649428001235586,0.064
1746649428008923543,0.083
1746649428016611500,0.10300000000000001
1746649428024299457,0.108
1746649428031987414,0.11
1746649428039675371,0.123
1746649428047363328,0.125
1746649428055051285,0.10300000000000001
1746649428062739242,0.069
1746649428070427199,0.027
1746649428078115156,-0.029
1746649428085803113,-0.073
1746649428093491070,-0.098
1746649428101179027,-0.12
1746649428108866984,-0.14300000000000002
1746649428116554941,-0.15
1746649428124242898,-0.147
1746649428131930855,-0.152
1746649428139618812,-0.15
1746649428147306769,-0.14300000000000002
1746649428154994726,-0.133
1746649428162682683,-0.123
1746649428170370640,-0.123
1746649428178058597,-0.128
1746649428185746554,-0.12
1746649428193434511,-0.11
1746649428201122468,-0.113
1746649428208810425,-0.113
1746649428216498382,-0.106
1746649428224186339,-0.106
1746649428231874296,-0.106
1746649428239562253,-0.101
1746649428247250210,-0.10300000000000001
1746649428254938167,-0.11
1746649428262626124,-0.108
1746649428270314081,-0.106
1746649428278002038,-0.106
1746649428285689995,-0.106
1746649428293377952,-0.10300000000000001
1746649428301065909,-0.098
1746649428308753866,-0.101
1746649428316441823,-0.101
1746649428324129780,-0.096
1746649428331817737,-0.098
1746649428339505694,-0.106
1746649428347193651,-0.098
1746649428354881608,-0.096
1746649428362569565,-0.098
1746649428370257522,-0.098
1746649428377945479,-0.096
1746649428385633436,-0.098
1746649428393321393,-0.096
1746649428401009350,-0.08600000000000001
1746649428408697307,-0.07100000000000001
1746649428416385264,-0.061
1746649428424073221,-0.051000000000000004
1746649428431761250,-0.046,86,748
1746649428439449208,-0.059000000000000004,,691
1746649428447137166,-0.076
1746649428454825124,-0.07100000000000001
1746649428462513082,-0.069
1746649428470201040,-0.081
1746649428477888998,-0.081
1746649428485576956,-0.07100000000000001
1746649428493264914,-0.073
1746649428500952872,-0.093
1746649428508640830,-0.11800000000000001
1746649428516328788,-0.029
1746649428524016746,0.337
1746649428531704704,0.766
1746649428539392662,0.668
1746649428547080620,0.012
1746649428554768578,-0.41400000000000003
1746649428562456536,-0.295
1746649428570144494,-0.167
1746649428577832452,-0.199
1746649428585520410,-0.135
1746649428593208368,-0.059000000000000004
1746649428600896326,-0.081
1746649428608584284,-0.081
1746649428616272242,-0.054
1746649428623960200,-0.056
1746649428631648158,-0.059000000000000004
1746649428639336116,-0.039
1746649428647024074,-0.032
1746649428654712032,-0.032
1746649428662399990,-0.029
1746649428670087948,-0.022
1746649428677775906,-0.017
1746649428685463864,-0.017
1746649428693151822,-0.014
1746649428700839780,-0.004
1746649428708527738,0.004
1746649428716215696,0.012
1746649428723903654,0.022
1746649428731591612,0.032
1746649428739279570,0.046
1746649428746967528,0.066
1746649428754655486,0.078
1746649428762343444,0.088
1746649428770031402,0.106
1746649428777719360,0.12
1746649428785407318,0.128
1746649428793095276,0.13
1746649428800783234,0.11800000000000001
1746649428808471192,0.096
1746649428816159150,0.064
1746649428823847108,0.007
1746649428831535066,-0.046
1746649428839223024,-0.07100000000000001
1746649428846910982,-0.093
1746649428854598940,-0.12
1746649428862286898,-0.133
1746649428869974856,-0.138
1746649428877662814,-0.14
1746649428885350772,-0.14
1746649428893038730,-0.133
1746649428900726688,-0.133
1746649428908414646,-0.128
1746649428916102604,-0.108
1746649428923790562,-0.108
1746649428931478520,-0.12
1746649428939166478,-0.113
1746649428946854436,-0.10300000000000001
1746649428954542394,-0.113
1746649428962230352,-0.115
1746649428969918310,-0.106
1746649428977606268,-0.096
1746649428985294226,-0.096
1746649428992982187,-0.106
1746649429000669866,-0.11
1746649429008357545,-0.106
1746649429016045224,-0.10300000000000001
1746649429023732903,-0.101
1746649429031420582,-0.096
1746649429039108261,-0.098
1746649429046795940,-0.106
1746649429054483619,-0.106
1746649429062171298,-0.093
1746649429069858977,-0.093
1746649429077546656,-0.106
1746649429085234335,-0.10300000000000001
1746649429092922014,-0.091
1746649429100609693,-0.088
1746649429108297372,-0.088
1746649429115985051,-0.08600000000000001
1746649429123672730,-0.081
1746649429131360409,-0.081
1746649429139048088,-0.083
1746649429146735767,-0.081
1746649429154423446,-0.076
1746649429162111125,-0.073
1746649429169798804,-0.076
1746649429177486483,-0.076
1746649429185174162,-0.066
1746649429192861841,-0.066
1746649429200549520,-0.07100000000000001
1746649429208237199,-0.076
1746649429215924878,-0.081
1746649429223612557,-0.081
1746649429231300236,-0.076
1746649429238987915,-0.066
1746649429246675594,-0.049
1746649429254363273,-0.034
1746649429262050952,-0.034
1746649429269738631,-0.034
1746649429277426310,-0.034
1746649429285113989,-0.046
1746649429292801668,-0.056
1746649429300489347,-0.054
1746649429308177026,-0.051000000000000004
1746649429315864705,-0.054
1746649429323552384,-0.056
1746649429331240063,-0.051000000000000004
1746649429338927742,-0.066
1746649429346615421,-0.098
1746649429354303100,-0.036000000000000004
1746649429361990779,0.295
1746649429369678458,0.747
1746649429377366137,0.739
1746649429385053816,0.14
1746649429392741495,-0.33
1746649429400429174,-0.276
1746649429408116853,-0.147
1746649429415804532,-0.17
1746649429423492211,-0.12
1746649429431179890,-0.044
1746649429438867569,-0.056
1746649429446555248,-0.064
1746649429454242927,-0.032
1746649429461930606,-0.027
1746649429469618285,-0.032
1746649429477305964,-0.019
1746649429484993643,-0.009000000000000001
1746649429492681322,-0.009000000000000001
1746649429500369001,-0.009000000000000001
1746649429508056680,-0.004
1746649429515744359,0.0
1746649429523432038,0.009000000000000001
1746649429531119717,0.017
1746649429538807396,0.027
1746649429546495075,0.034
1746649429554182776,0.039,86,702
1746649429561870594,0.041
1746649429569558412,0.051000000000000004
1746649429577246230,0.069
1746649429584934048,0.088
1746649429592621866,0.106
1746649429600309684,0.12
1746649429607997502,0.135
1746649429615685320,0.145
1746649429623373138,0.15
1746649429631060956,0.157
1746649429638748774,0.157
1746649429646436592,0.14300000000000002
1746649429654124410,0.108
1746649429661812228,0.069
1746649429669500046,0.027
1746649429677187864,-0.009000000000000001
1746649429684875682,-0.041
1746649429692563500,-0.066
1746649429700251318,-0.088
1746649429707939136,-0.10300000000000001
1746649429715626954,-0.10300000000000001
1746649429723314772,-0.098
1746649429731002590,-0.098
1746649429738690408,-0.098
1746649429746378226,-0.088
1746649429754066044,-0.078
1746649429761753862,-0.078
1746649429769441680,-0.078
1746649429777129498,-0.073
1746649429784817316,-0.076
1746649429792505134,-0.076
1746649429800192952,-0.069
1746649429807880770,-0.061
1746649429815568588,-0.059000000000000004
1746649429823256406,-0.061
1746649429830944224,-0.064
1746649429838632042,-0.064
1746649429846319860,-0.061
1746649429854007678,-0.069
1746649429861695496,-0.07100000000000001
1746649429869383314,-0.056
1746649429877071132,-0.051000000000000004
1746649429884758950,-0.059000000000000004
1746649429892446768,-0.061
1746649429900134586,-0.061
1746649429907822404,-0.064
1746649429915510222,-0.061
1746649429923198040,-0.054
1746649429930885858,-0.059000000000000004
1746649429938573676,-0.059000000000000004
1746649429946261494,-0.054
1746649429953949312,-0.051000000000000004
1746649429961637130,-0.051000000000000004
1746649429969324948,-0.049
1746649429977012766,-0.046
1746649429984700584,-0.051000000000000004
1746649429992388402,-0.054
1746649430000076220,-0.051000000000000004
1746649430007764038,-0.046
1746649430015451856,-0.046
1746649430023139674,-0.046
1746649430030827492,-0.046
1746649430038515310,-0.039
1746649430046203128,-0.029
1746649430053890946,-0.036000000000000004
1746649430061578764,-0.049
1746649430069266582,-0.051000000000000004
1746649430076954400,-0.044
1746649430084642218,-0.041
1746649430092330036,-0.041
1746649430100017854,-0.046
1746649430107705672,-0.034
1746649430115393535,-0.014
1746649430123081492,-0.012
1746649430130769449,-0.012
1746649430138457406,-0.009000000000000001
1746649430146145363,-0.024
1746649430153833320,-0.034
1746649430161521277,-0.032
1746649430169209234,-0.034
1746649430176897191,-0.034
1746649430184585148,-0.027
1746649430192273105,-0.024
1746649430199961062,-0.036000000000000004
1746649430207649019,-0.069
1746649430215336976,-0.073
1746649430223024933,0.11800000000000001
1746649430230712890,0.559
1746649430238400847,0.791
1746649430246088804,0.379
1746649430253776761,-0.244
1746649430261464718,-0.382
1746649430269152675,-0.199
1746649430276840632,-0.165
1746649430284528589,-0.162
1746649430292216546,-0.059000000000000004
1746649430299904503,-0.022
1746649430307592460,-0.049
1746649430315280417,-0.044
1746649430322968374,-0.027
1746649430330656331,-0.017
1746649430338344288,-0.002
1746649430346032245,-0.002
1746649430353720202,-0.007
1746649430361408159,-0.002
1746649430369096116,0.004
1746649430376784073,0.012
1746649430384472030,0.017
1746649430392159987,0.019
1746649430399847944,0.029
1746649430407535901,0.041
1746649430415223858,0.051000000000000004
1746649430422911815,0.061
1746649430430599772,0.076
1746649430438287729,0.083
1746649430445975686,0.096
1746649430453663643,0.113
1746649430461351600,0.128
1746649430469039557,0.15
1746649430476727514,0.167
1746649430484415471,0.162
1746649430492103428,0.157
1746649430499791385,0.167
1746649430507479342,0.162
1746649430515167299,0.13
1746649430522855256,0.088
1746649430530543213,0.041
1746649430538231170,-0.012
1746649430545919127,-0.051000000000000004
1746649430553607084,-0.076
1746649430561295041,-0.101
1746649430568982998,-0.11800000000000001
1746649430576670955,-0.125
1746649430584358912,-0.128
1746649430592046869,-0.125
1746649430599734826,-0.12
1746649430607422783,-0.12
1746649430615110740,-0.12
1746649430622798697,-0.108
1746649430630486654,-0.093
1746649430638174611,-0.088
1746649430645862568,-0.081
1746649430653550525,-0.076
1746649430661238482,-0.078
1746649430668926439,-0.073
1746649430676614468,-0.07100000000000001,86,749
1746649430684302356,-0.076
1746649430691990244,-0.078
1746649430699678132,-0.07100000000000001
1746649430707366020,-0.07100000000000001
1746649430715053908,-0.078
1746649430722741796,-0.076
1746649430730429684,-0.073
1746649430738117572,-0.08600000000000001
1746649430745805460,-0.088
1746649430753493348,-0.078
1746649430761181236,-0.078
1746649430768869124,-0.081
1746649430776557012,-0.078
1746649430784244900,-0.076
1746649430791932788,-0.073
1746649430799620676,-0.07100000000000001
1746649430807308564,-0.073
1746649430814996452,-0.083
1746649430822684340,-0.076
1746649430830372228,-0.066
1746649430838060116,-0.064
1746649430845748004,-0.069
1746649430853435892,-0.066
1746649430861123780,-0.059000000000000004
1746649430868811668,-0.061
1746649430876499556,-0.061
1746649430884187444,-0.051000000000000004
1746649430891875332,-0.054
1746649430899563220,-0.059000000000000004
1746649430907251108,-0.059000000000000004
1746649430914938996,-0.059000000000000004
1746649430922626884,-0.064
1746649430930314772,-0.061
1746649430938002660,-0.056
1746649430945690548,-0.049
1746649430953378436,-0.041
1746649430961066324,-0.032
1746649430968754212,-0.017
1746649430976442100,-0.017
1746649430984129988,-0.034
1746649430991817876,-0.046
1746649430999505764,-0.054
1746649431007193652,-0.054
1746649431014881540,-0.051000000000000004
1746649431022569428,-0.051000000000000004
1746649431030257316,-0.051000000000000004
1746649431037945204,-0.054
1746649431045633092,-0.07100000000000001
1746649431053320980,-0.064
1746649431061008868,0.165
1746649431068696756,0.631
1746649431076384644,0.779
1746649431084072532,0.23900000000000002
1746649431091760420,-0.364
1746649431099448308,-0.394
1746649431107136196,-0.194
1746649431114824084,-0.194
1746649431122511972,-0.17500000000000002
1746649431130199860,-0.056
1746649431137887748,-0.034
1746649431145575636,-0.064
1746649431153263524,-0.044
1746649431160951412,-0.027
1746649431168639300,-0.029
1746649431176327188,-0.022
1746649431184015076,-0.012
1746649431191702964,-0.017
1746649431199390852,-0.017
1746649431207078740,-0.004
1746649431214766628,0.004
1746649431222454516,0.002
1746649431230142404,0.004
1746649431237830318,0.014
1746649431245517927,0.027
1746649431253205536,0.032
1746649431260893145,0.034
1746649431268580754,0.041
1746649431276268363,0.056
1746649431283955972,0.078
1746649431291643581,0.093
1746649431299331190,0.101
1746649431307018799,0.113
1746649431314706408,0.13
1746649431322394017,0.14
1746649431330081626,0.14
1746649431337769235,0.14
1746649431345456844,0.128
1746649431353144453,0.096
1746649431360832062,0.056
1746649431368519671,0.012
1746649431376207280,-0.041
1746649431383894889,-0.08600000000000001
1746649431391582498,-0.108
1746649431399270107,-0.125
1746649431406957716,-0.138
1746649431414645325,-0.145
1746649431422332934,-0.152
1746649431430020543,-0.147
1746649431437708152,-0.14
1746649431445395761,-0.138
1746649431453083370,-0.133
1746649431460770979,-0.128
1746649431468458588,-0.123
1746649431476146197,-0.113
1746649431483833806,-0.106
1746649431491521415,-0.106
1746649431499209024,-0.10300000000000001
1746649431506896633,-0.098
1746649431514584242,-0.101
1746649431522271851,-0.098
1746649431529959460,-0.088
1746649431537647069,-0.088
1746649431545334678,-0.098
1746649431553022287,-0.10300000000000001
1746649431560709896,-0.096
1746649431568397505,-0.096
1746649431576085114,-0.098
1746649431583772723,-0.096
1746649431591460332,-0.093
1746649431599147941,-0.101
1746649431606835550,-0.098
1746649431614523159,-0.091
1746649431622210768,-0.096
1746649431629898377,-0.098
1746649431637585986,-0.091
1746649431645273595,-0.088
1746649431652961204,-0.091
1746649431660648813,-0.088
1746649431668336422,-0.083
1746649431676024031,-0.083
1746649431683711640,-0.091
1746649431691399249,-0.091
1746649431699086858,-0.081
1746649431706774467,-0.078
1746649431714462076,-0.076
1746649431722149685,-0.078
1746649431729837294,-0.081
1746649431737524903,-0.078
1746649431745212512,-0.073
1746649431752900121,-0.078
1746649431760587730,-0.081
1746649431768275339,-0.073
1746649431775962948,-0.073
1746649431783650557,-0.076
1746649431791338166,-0.07100000000000001
1746649431799025816,-0.069,85,839
1746649431806713774,-0.069
1746649431814401732,-0.073
1746649431822089690,-0.081
1746649431829777648,-0.076
1746649431837465606,-0.07100000000000001
1746649431845153564,-0.083
1746649431852841522,-0.08600000000000001
1746649431860529480,-0.061
1746649431868217438,-0.044
1746649431875905396,-0.041
1746649431883593354,-0.036000000000000004
1746649431891281312,-0.044
1746649431898969270,-0.064
1746649431906657228,-0.066
1746649431914345186,-0.056
1746649431922033144,-0.064
1746649431929721102,-0.073
1746649431937409060,-0.064
1746649431945097018,-0.061
1746649431952784976,-0.091
1746649431960472934,-0.128
1746649431968160892,-0.027
1746649431975848850,0.357
1746649431983536808,0.791
1746649431991224766,0.715
1746649431998912724,0.096
1746649432006600682,-0.33
1746649432014288640,-0.256
1746649432021976598,-0.162
1746649432029664556,-0.20400000000000001
1746649432037352514,-0.15
1746649432045040472,-0.083
1746649432052728430,-0.10300000000000001
1746649432060416388,-0.101
1746649432068104346,-0.07100000000000001
1746649432075792304,-0.069
1746649432083480262,-0.07100000000000001
1746649432091168220,-0.066
1746649432098856178,-0.066
1746649432106544136,-0.061
1746649432114232094,-0.049
1746649432121920052,-0.044
1746649432129608010,-0.044
1746649432137295968,-0.036000000000000004
1746649432144983926,-0.032
1746649432152671884,-0.029
1746649432160359842,-0.019
1746649432168047800,-0.009000000000000001
1746649432175735758,-0.007
1746649432183423716,0.004
1746649432191111674,0.024
1746649432198799632,0.041
1746649432206487590,0.049
1746649432214175548,0.056
1746649432221863506,0.076
1746649432229551464,0.098
1746649432237239422,0.101
1746649432244927380,0.096
1746649432252615338,0.101
1746649432260303296,0.098
1746649432267991254,0.073
1746649432275679212,0.029
1746649432283367170,-0.017
1746649432291055128,-0.054
1746649432298743086,-0.093
1746649432306431044,-0.123
1746649432314119002,-0.135
1746649432321806960,-0.14
1746649432329494918,-0.15
1746649432337182876,-0.155
1746649432344870834,-0.147
1746649432352558792,-0.138
1746649432360246753,-0.133
1746649432367934432,-0.133
1746649432375622111,-0.13
1746649432383309790,-0.128
1746649432390997469,-0.123
1746649432398685148,-0.11800000000000001
1746649432406372827,-0.115
1746649432414060506,-0.113
1746649432421748185,-0.106
1746649432429435864,-0.096
1746649432437123543,-0.098
1746649432444811222,-0.108
1746649432452498901,-0.10300000000000001
1746649432460186580,-0.101
1746649432467874259,-0.113
1746649432475561938,-0.11800000000000001
1746649432483249617,-0.115
1746649432490937296,-0.106
1746649432498624975,-0.101
1746649432506312654,-0.098
1746649432514000333,-0.101
1746649432521688012,-0.106
1746649432529375691,-0.108
1746649432537063370,-0.101
1746649432544751049,-0.096
1746649432552438728,-0.091
1746649432560126407,-0.091
1746649432567814086,-0.096
1746649432575501765,-0.098
1746649432583189444,-0.091
1746649432590877123,-0.083
1746649432598564802,-0.08600000000000001
1746649432606252481,-0.088
1746649432613940160,-0.083
1746649432621627839,-0.076
1746649432629315518,-0.073
1746649432637003197,-0.081
1746649432644690876,-0.081
1746649432652378555,-0.081
1746649432660066234,-0.076
1746649432667753913,-0.073
1746649432675441592,-0.076
1746649432683129271,-0.078
1746649432690816950,-0.069
1746649432698504629,-0.066
1746649432706192308,-0.07100000000000001
1746649432713879987,-0.073
1746649432721567666,-0.07100000000000001
1746649432729255345,-0.073
1746649432736943024,-0.07100000000000001
1746649432744630703,-0.061
1746649432752318382,-0.056
1746649432760006061,-0.059000000000000004
1746649432767693740,-0.066
1746649432775381419,-0.069
1746649432783069098,-0.066
1746649432790756777,-0.066
1746649432798444456,-0.069
1746649432806132135,-0.07100000000000001
1746649432813819814,-0.081
1746649432821507493,-0.076
1746649432829195172,-0.054
1746649432836882851,-0.039
1746649432844570530,-0.036000000000000004
1746649432852258209,-0.032
1746649432859945888,-0.041
1746649432867633567,-0.061
1746649432875321246,-0.066
1746649432883008925,-0.064
1746649432890696604,-0.061
1746649432898384283,-0.061
1746649432906071962,-0.069
1746649432913759641,-0.07100000000000001
1746649432921447342,-0.083,84,864
1746649432929135160,-0.11
1746649432936822978,-0.002
1746649432944510796,0.396
1746649432952198614,0.769
1746649432959886432,0.554
1746649432967574250,-0.098
1746649432975262068,-0.41400000000000003
1746649432982949886,-0.268
1746649432990637704,-0.189
1746649432998325522,-0.219
1746649433006013340,-0.13
1746649433013701158,-0.059000000000000004
1746649433021388976,-0.088
1746649433029076794,-0.088
1746649433036764612,-0.049
1746649433044452430,-0.044
1746649433052140248,-0.041
1746649433059828066,-0.034
1746649433067515884,-0.039
1746649433075203702,-0.032
1746649433082891520,-0.017
1746649433090579338,-0.027
1746649433098267156,-0.027
1746649433105954974,-0.004
1746649433113642792,-0.002
1746649433121330610,-0.007
1746649433129018428,0.007
1746649433136706246,0.029
1746649433144394064,0.041
1746649433152081882,0.044
1746649433159769700,0.064
1746649433167457518,0.096
1746649433175145336,0.106
1746649433182833154,0.106
1746649433190520972,0.125
1746649433198208790,0.14
1746649433205896608,0.147
1746649433213584426,0.16
1746649433221272244,0.152
1746649433228960062,0.125
1746649433236647880,0.098
1746649433244335698,0.056
1746649433252023516,-0.004
1746649433259711334,-0.059000000000000004
1746649433267399152,-0.088
1746649433275086970,-0.106
1746649433282774788,-0.123
1746649433290462606,-0.147
1746649433298150424,-0.162
1746649433305838242,-0.152
1746649433313526060,-0.14
1746649433321213878,-0.14
1746649433328901696,-0.14300000000000002
1746649433336589514,-0.138
1746649433344277332,-0.128
1746649433351965150,-0.123
1746649433359652968,-0.113
1746649433367340786,-0.101
1746649433375028604,-0.096
1746649433382716422,-0.101
1746649433390404240,-0.098
1746649433398092058,-0.08600000000000001
1746649433405779876,-0.083
1746649433413467694,-0.093
1746649433421155512,-0.091
1746649433428843330,-0.078
1746649433436531148,-0.081
1746649433444218966,-0.098
1746649433451906784,-0.108
1746649433459594602,-0.101
1746649433467282420,-0.093
1746649433474970238,-0.091
1746649433482658101,-0.088,83,837
1746649433490345919,-0.083
1746649433498033737,-0.081
1746649433505721555,-0.093
1746649433513409373,-0.10300000000000001
1746649433521097191,-0.096
1746649433528785009,-0.08600000000000001
1746649433536472827,-0.083
1746649433544160645,-0.083
1746649433551848463,-0.081
1746649433559536281,-0.078
1746649433567224099,-0.081
1746649433574911917,-0.078
1746649433582599735,-0.07100000000000001
1746649433590287553,-0.066
1746649433597975371,-0.069
1746649433605663189,-0.07100000000000001
1746649433613351007,-0.066
1746649433621038825,-0.064
1746649433628726643,-0.059000000000000004
1746649433636414461,-0.051000000000000004
1746649433644102279,-0.059000000000000004
1746649433651790097,-0.066
1746649433659477915,-0.066
1746649433667165733,-0.066
1746649433674853551,-0.059000000000000004
1746649433682541369,-0.054
1746649433690229187,-0.061
1746649433697917005,-0.056
1746649433705604823,-0.044
1746649433713292641,-0.034
1746649433720980459,-0.022
1746649433728668277,-0.022
1746649433736356095,-0.039
1746649433744043913,-0.046
1746649433751731731,-0.049
1746649433759419549,-0.059000000000000004
1746649433767107367,-0.056
1746649433774795185,-0.051000000000000004
1746649433782483003,-0.054
1746649433790170821,-0.054
1746649433797858639,-0.061
1746649433805546457,-0.081
1746649433813234275,0.061
1746649433820922093,0.49
1746649433828609911,0.806
1746649433836297729,0.448
1746649433843985547,-0.261
1746649433851673365,-0.493
1746649433859361183,-0.278
1746649433867049001,-0.197
1746649433874736819,-0.212
1746649433882424637,-0.098
1746649433890112455,-0.024
1746649433897800273,-0.054
1746649433905488091,-0.051000000000000004
1746649433913175909,-0.022
1746649433920863727,-0.017
1746649433928551545,-0.012
1746649433936239363,-0.002
1746649433943927181,-0.007
1746649433951614999,-0.007
1746649433959302817,0.004
1746649433966990635,0.012
1746649433974678453,0.014
1746649433982366271,0.019
1746649433990054089,0.024
1746649433997741907,0.032
1746649434005429725,0.039
1746649434013117543,0.049
1746649434020805361,0.061
1746649434028493179,0.076
1746649434036180997,0.093
1746649434043868864,0.101
1746649434051556543,0.113
1746649434059244222,0.135
1746649434066931901,0.15
1746649434074619580,0.16
1746649434082307259,0.165
1746649434089994938,0.162
1746649434097682617,0.157
1746649434105370296,0.135
1746649434113057975,0.091
1746649434120745654,0.036000000000000004
1746649434128433333,-0.014
1746649434136121012,-0.059000000000000004
1746649434143808691,-0.093
1746649434151496370,-0.115
1746649434159184049,-0.128
1746649434166871728,-0.145
1746649434174559407,-0.157
1746649434182247086,-0.152
1746649434189934765,-0.145
1746649434197622444,-0.14300000000000002
1746649434205310123,-0.135
1746649434212997802,-0.13
1746649434220685481,-0.128
1746649434228373160,-0.123
1746649434236060839,-0.11800000000000001
1746649434243748518,-0.11
1746649434251436197,-0.091
1746649434259123876,-0.08600000000000001
1746649434266811555,-0.096
1746649434274499234,-0.088
1746649434282186913,-0.078
1746649434289874592,-0.088
1746649434297562271,-0.088
1746649434305249950,-0.083
1746649434312937629,-0.088
1746649434320625308,-0.091
1746649434328312987,-0.091
1746649434336000666,-0.096
1746649434343688345,-0.096
1746649434351376024,-0.083
1746649434359063703,-0.081
1746649434366751382,-0.08600000000000001
1746649434374439061,-0.081
1746649434382126740,-0.081
1746649434389814419,-0.091
1746649434397502098,-0.093
1746649434405189777,-0.083
1746649434412877456,-0.078
1746649434420565135,-0.081
1746649434428252814,-0.073
1746649434435940493,-0.069
1746649434443628172,-0.076
1746649434451315851,-0.078
1746649434459003530,-0.07100000000000001
1746649434466691209,-0.076
1746649434474378888,-0.078
1746649434482066567,-0.073
1746649434489754246,-0.07100000000000001
1746649434497441925,-0.066
1746649434505129604,-0.066
1746649434512817283,-0.073
1746649434520504962,-0.07100000000000001
1746649434528192641,-0.054
1746649434535880320,-0.056
1746649434543567999,-0.069
