time,ecg,hr,rr,marker
1747851689059398317,-0.12,97,641
1747851689067084672,-0.14
1747851689074771027,-0.194
1747851689082457382,-0.241
1747851689090143737,-0.051000000000000004
1747851689097830092,0.5630000000000001
1747851689105516447,1.381
1747851689113202802,1.784
1747851689120889157,0.994
1747851689128575512,-0.433
1747851689136261867,-0.713
1747851689143948222,-0.152
1747851689151634577,-0.14
1747851689159320932,-0.32
1747851689167007287,-0.199
1747851689174693642,-0.145
1747851689182379997,-0.199
1747851689190066352,-0.162
1747851689197752707,-0.115
1747851689205439062,-0.123
1747851689213125417,-0.10300000000000001
1747851689220811772,-0.07100000000000001
1747851689228498127,-0.059000000000000004
1747851689236184482,-0.041
1747851689243870837,-0.012
1747851689251557192,0.009000000000000001
1747851689259243547,0.036000000000000004
1747851689266929902,0.068
1747851689274616257,0.1
1747851689282302612,0.132
1747851689289988967,0.164
1747851689297675322,0.189
1747851689305361677,0.201
1747851689313048032,0.199
1747851689320734387,0.184
1747851689328420742,0.164
1747851689336107097,0.14
1747851689343793452,0.105
1747851689351479807,0.061
1747851689359166162,0.007
1747851689366852517,-0.056
1747851689374538872,-0.115
1747851689382225227,-0.164
1747851689389911582,-0.201
1747851689397597937,-0.224
1747851689405284292,-0.233
1747851689412970647,-0.233
1747851689420657002,-0.226
1747851689428343357,-0.216
1747851689436029712,-0.20400000000000001
1747851689443716067,-0.194
1747851689451402422,-0.187
1747851689459088777,-0.179
1747851689466775132,-0.17400000000000002
1747851689474461487,-0.169
1747851689482147842,-0.164
1747851689489834197,-0.162
1747851689497520552,-0.16
1747851689505206907,-0.157
1747851689512893262,-0.157
1747851689520579617,-0.155
1747851689528265972,-0.155
1747851689535952327,-0.152
1747851689543638682,-0.152
1747851689551325037,-0.155
1747851689559011392,-0.157
1747851689566697747,-0.155
1747851689574384102,-0.155
1747851689582070457,-0.152
1747851689589756812,-0.152
1747851689597443167,-0.15
1747851689605129522,-0.147
1747851689612815877,-0.14200000000000002
1747851689620502265,-0.14,96,647
1747851689628188132,-0.137
1747851689635873999,-0.135
1747851689643559866,-0.13
1747851689651245733,-0.13
1747851689658931600,-0.137
1747851689666617467,-0.14200000000000002
1747851689674303334,-0.132
1747851689681989201,-0.115
1747851689689675068,-0.1
1747851689697360935,-0.093
1747851689705046802,-0.083
1747851689712732669,-0.073
1747851689720418536,-0.083
1747851689728104403,-0.11800000000000001
1747851689735790270,-0.13
1747851689743476137,-0.12
1747851689751162004,-0.113
1747851689758847871,-0.113
1747851689766533738,-0.105
1747851689774219605,-0.105
1747851689781905472,-0.123
1747851689789591339,-0.16
1747851689797277206,-0.221
1747851689804963073,-0.167
1747851689812648940,0.263
1747851689820334807,1.043
1747851689828020674,1.742
1747851689835706541,1.528
1747851689843392408,0.14200000000000002
1747851689851078275,-0.782
1747851689858764142,-0.371
1747851689866450009,-0.059000000000000004
1747851689874135876,-0.278
1747851689881821743,-0.258
1747851689889507610,-0.132
1747851689897193477,-0.17400000000000002
1747851689904879344,-0.179
1747851689912565211,-0.11800000000000001
1747851689920251078,-0.11
1747851689927936945,-0.108
1747851689935622812,-0.073
1747851689943308679,-0.054
1747851689950994546,-0.041
1747851689958680413,-0.014
1747851689966366280,0.012
1747851689974052147,0.032
1747851689981738014,0.059000000000000004
1747851689989423881,0.091
1747851689997109748,0.123
1747851690004795615,0.155
1747851690012481482,0.184
1747851690020167349,0.201
1747851690027853216,0.20600000000000002
1747851690035539083,0.199
1747851690043224950,0.182
1747851690050910817,0.157
1747851690058596684,0.13
1747851690066282551,0.093
1747851690073968418,0.046
1747851690081654285,-0.009000000000000001
1747851690089340152,-0.07100000000000001
1747851690097026019,-0.125
1747851690104711886,-0.167
1747851690112397753,-0.196
1747851690120083620,-0.216
1747851690127769487,-0.224
1747851690135455354,-0.219
1747851690143141221,-0.209
1747851690150827088,-0.199
1747851690158512955,-0.192
1747851690166198822,-0.179
1747851690173884689,-0.17200000000000001
1747851690181570608,-0.167
1747851690189256893,-0.162
1747851690196943178,-0.157
1747851690204629463,-0.152
1747851690212315748,-0.147
1747851690220002033,-0.15
1747851690227688318,-0.15
1747851690235374603,-0.147
1747851690243060888,-0.147
1747851690250747173,-0.15
1747851690258433458,-0.155
1747851690266119743,-0.155
1747851690273806028,-0.15
1747851690281492313,-0.147
1747851690289178598,-0.147
1747851690296864883,-0.145
1747851690304551168,-0.14
1747851690312237453,-0.145
1747851690319923738,-0.145
1747851690327610023,-0.14
1747851690335296308,-0.132
1747851690342982593,-0.135
1747851690350668878,-0.13
1747851690358355163,-0.128
1747851690366041448,-0.125
1747851690373727733,-0.11800000000000001
1747851690381414018,-0.115
1747851690389100303,-0.123
1747851690396786588,-0.12
1747851690404472873,-0.113
1747851690412159158,-0.098
1747851690419845443,-0.08600000000000001
1747851690427531728,-0.078
1747851690435218013,-0.064
1747851690442904298,-0.059000000000000004
1747851690450590583,-0.083
1747851690458276868,-0.115
1747851690465963153,-0.11800000000000001
1747851690473649438,-0.105
1747851690481335723,-0.098
1747851690489022008,-0.098
1747851690496708293,-0.098
1747851690504394578,-0.1
1747851690512080863,-0.11800000000000001
1747851690519767148,-0.17200000000000001
1747851690527453433,-0.216
1747851690535139718,-0.041
1747851690542826003,0.561
1747851690550512288,1.383
1747851690558198573,1.809
1747851690565884858,1.033
1747851690573571143,-0.40800000000000003
1747851690581257428,-0.706
1747851690588943713,-0.14200000000000002
1747851690596629998,-0.125
1747851690604316283,-0.295
1747851690612002568,-0.17400000000000002
1747851690619688853,-0.12
1747851690627375138,-0.17200000000000001
1747851690635061423,-0.14
1747851690642747708,-0.096
1747851690650433993,-0.096
1747851690658120278,-0.083
1747851690665806563,-0.054
1747851690673492848,-0.039
1747851690681179133,-0.022
1747851690688865418,0.007
1747851690696551703,0.032
1747851690704237988,0.054
1747851690711924273,0.081
1747851690719610558,0.113
1747851690727296843,0.147
1747851690734983128,0.179
1747851690742669469,0.20600000000000002,95,664
1747851690750355754,0.224,,690
1747851690758042039,0.214
1747851690765728324,0.20400000000000001
1747851690773414609,0.196
1747851690781100894,0.162
1747851690788787179,0.115
1747851690796473464,0.088
1747851690804159749,0.044
1747851690811846034,-0.034
1747851690819532319,-0.091
1747851690827218604,-0.128
1747851690834904889,-0.177
1747851690842591174,-0.219
1747851690850277459,-0.221
1747851690857963744,-0.214
1747851690865650029,-0.216
1747851690873336314,-0.216
1747851690881022599,-0.20600000000000002
1747851690888708884,-0.194
1747851690896395169,-0.184
1747851690904081454,-0.177
1747851690911767739,-0.17400000000000002
1747851690919454024,-0.164
1747851690927140309,-0.152
1747851690934826594,-0.15
1747851690942512879,-0.147
1747851690950199164,-0.14200000000000002
1747851690957885449,-0.145
1747851690965571734,-0.147
1747851690973258019,-0.147
1747851690980944304,-0.15
1747851690988630589,-0.15
1747851690996316874,-0.147
1747851691004003159,-0.145
1747851691011689444,-0.147
1747851691019375729,-0.147
1747851691027062014,-0.137
1747851691034748299,-0.135
1747851691042434584,-0.14
1747851691050120869,-0.14
1747851691057807154,-0.128
1747851691065493439,-0.12
1747851691073179724,-0.123
1747851691080866009,-0.128
1747851691088552294,-0.132
1747851691096238579,-0.13
1747851691103924864,-0.11
1747851691111611149,-0.088
1747851691119297434,-0.083
1747851691126983719,-0.081
1747851691134670004,-0.066
1747851691142356289,-0.066
1747851691150042574,-0.093
1747851691157728859,-0.11800000000000001
1747851691165415144,-0.12
1747851691173101429,-0.11800000000000001
1747851691180787714,-0.108
1747851691188473999,-0.093
1747851691196160284,-0.088
1747851691203846569,-0.10300000000000001
1747851691211532854,-0.128
1747851691219219139,-0.17400000000000002
1747851691226905424,-0.219
1747851691234591709,-0.029
1747851691242277994,0.595
1747851691249964279,1.3760000000000001
1747851691257650564,1.708
1747851691265336849,0.915
1747851691273023134,-0.44
1747851691280709419,-0.6890000000000001
1747851691288395704,-0.152
1747851691296081989,-0.132
1747851691303768330,-0.275
1747851691311454615,-0.157
1747851691319140900,-0.11800000000000001
1747851691326827185,-0.162
1747851691334513470,-0.13
1747851691342199755,-0.096
1747851691349886040,-0.096
1747851691357572325,-0.078
1747851691365258610,-0.054
1747851691372944895,-0.039
1747851691380631180,-0.024
1747851691388317465,-0.002
1747851691396003750,0.027
1747851691403690035,0.054
1747851691411376320,0.081
1747851691419062605,0.115
1747851691426748890,0.14200000000000002
1747851691434435175,0.17200000000000001
1747851691442121460,0.201
1747851691449807745,0.209
1747851691457494030,0.20400000000000001
1747851691465180315,0.192
1747851691472866600,0.167
1747851691480552885,0.135
1747851691488239170,0.1
1747851691495925455,0.056
1747851691503611740,0.007
1747851691511298025,-0.049
1747851691518984310,-0.113
1747851691526670595,-0.167
1747851691534356880,-0.20400000000000001
1747851691542043165,-0.224
1747851691549729450,-0.23800000000000002
1747851691557415735,-0.243
1747851691565102020,-0.233
1747851691572788305,-0.224
1747851691580474590,-0.219
1747851691588160875,-0.209
1747851691595847160,-0.196
1747851691603533445,-0.187
1747851691611219730,-0.179
1747851691618906015,-0.17400000000000002
1747851691626592300,-0.17400000000000002
1747851691634278585,-0.169
1747851691641964870,-0.16
1747851691649651155,-0.157
1747851691657337440,-0.16
1747851691665023725,-0.16
1747851691672710010,-0.157
1747851691680396295,-0.16
1747851691688082580,-0.16
1747851691695768865,-0.162
1747851691703455150,-0.162
1747851691711141435,-0.16
1747851691718827720,-0.16
1747851691726514005,-0.157
1747851691734200290,-0.152
1747851691741886575,-0.152
1747851691749572860,-0.152
1747851691757259145,-0.15
1747851691764945430,-0.14200000000000002
1747851691772631715,-0.14
1747851691780318000,-0.145
1747851691788004285,-0.147
1747851691795690570,-0.145
1747851691803376855,-0.132
1747851691811063140,-0.11800000000000001
1747851691818749425,-0.105
1747851691826435710,-0.096
1747851691834121995,-0.083
1747851691841808280,-0.078
1747851691849494565,-0.108
1747851691857180850,-0.14
1747851691864867191,-0.14,94,718
1747851691872553476,-0.125
1747851691880239761,-0.125
1747851691887926046,-0.125
1747851691895612331,-0.11800000000000001
1747851691903298616,-0.12
1747851691910984901,-0.14200000000000002
1747851691918671186,-0.192
1747851691926357471,-0.246
1747851691934043756,-0.098
1747851691941730041,0.47500000000000003
1747851691949416326,1.272
1747851691957102611,1.74
1747851691964788896,1.11
1747851691972475181,-0.315
1747851691980161466,-0.768
1747851691987847751,-0.221
1747851691995534036,-0.125
1747851692003220321,-0.317
1747851692010906606,-0.219
1747851692018592891,-0.145
1747851692026279176,-0.201
1747851692033965461,-0.17400000000000002
1747851692041651746,-0.125
1747851692049338031,-0.13
1747851692057024316,-0.12
1747851692064710601,-0.091
1747851692072396886,-0.078
1747851692080083171,-0.061
1747851692087769456,-0.039
1747851692095455741,-0.017
1747851692103142026,0.004
1747851692110828311,0.034
1747851692118514596,0.064
1747851692126200881,0.093
1747851692133887166,0.123
1747851692141573451,0.15
1747851692149259736,0.164
1747851692156946021,0.167
1747851692164632306,0.155
1747851692172318591,0.132
1747851692180004876,0.108
1747851692187691161,0.078
1747851692195377446,0.041
1747851692203063731,-0.007
1747851692210750016,-0.064
1747851692218436301,-0.12
1747851692226122586,-0.169
1747851692233808871,-0.209
1747851692241495156,-0.233
1747851692249181441,-0.248
1747851692256867726,-0.251
1747851692264554011,-0.243
1747851692272240296,-0.23600000000000002
1747851692279926581,-0.226
1747851692287612866,-0.214
1747851692295299151,-0.20400000000000001
1747851692302985436,-0.196
1747851692310671721,-0.192
1747851692318358006,-0.187
1747851692326044291,-0.182
1747851692333730576,-0.177
1747851692341416861,-0.17400000000000002
1747851692349103146,-0.17200000000000001
1747851692356789431,-0.17400000000000002
1747851692364475716,-0.177
1747851692372162001,-0.177
1747851692379848286,-0.17400000000000002
1747851692387534571,-0.17400000000000002
1747851692395220856,-0.17200000000000001
1747851692402907141,-0.17200000000000001
1747851692410593426,-0.17200000000000001
1747851692418279711,-0.17200000000000001
1747851692425966052,-0.169
1747851692433652337,-0.167
1747851692441338622,-0.164
1747851692449024907,-0.162
1747851692456711192,-0.16
1747851692464397477,-0.157
1747851692472083762,-0.152
1747851692479770047,-0.147
1747851692487456332,-0.14200000000000002
1747851692495142617,-0.145
1747851692502828902,-0.152
1747851692510515187,-0.15
1747851692518201472,-0.135
1747851692525887757,-0.11800000000000001
1747851692533574042,-0.108
1747851692541260327,-0.10300000000000001
1747851692548946612,-0.088
1747851692556632897,-0.083
1747851692564319182,-0.108
1747851692572005467,-0.137
1747851692579691752,-0.137
1747851692587378037,-0.13
1747851692595064322,-0.128
1747851692602750607,-0.123
1747851692610436892,-0.11800000000000001
1747851692618123177,-0.123
1747851692625809462,-0.137
1747851692633495747,-0.182
1747851692641182032,-0.23600000000000002
1747851692648868317,-0.105
1747851692656554602,0.433
1747851692664240887,1.235
1747851692671927172,1.772
1747851692679613457,1.221
1747851692687299742,-0.228
1747851692694986027,-0.785
1747851692702672312,-0.241
1747851692710358597,-0.098
1747851692718044882,-0.32
1747851692725731167,-0.23800000000000002
1747851692733417452,-0.147
1747851692741103737,-0.201
1747851692748790022,-0.182
1747851692756476307,-0.128
1747851692764162592,-0.13
1747851692771848877,-0.123
1747851692779535162,-0.091
1747851692787221447,-0.073
1747851692794907732,-0.061
1747851692802594017,-0.036000000000000004
1747851692810280302,-0.014
1747851692817966587,0.009000000000000001
1747851692825652872,0.036000000000000004
1747851692833339157,0.066
1747851692841025442,0.098
1747851692848711727,0.128
1747851692856398012,0.155
1747851692864084297,0.17200000000000001
1747851692871770582,0.17400000000000002
1747851692879456867,0.164
1747851692887143152,0.145
1747851692894829437,0.123
1747851692902515722,0.091
1747851692910202007,0.054
1747851692917888292,0.009000000000000001
1747851692925574577,-0.044
1747851692933260862,-0.1
1747851692940947147,-0.152
1747851692948633432,-0.194
1747851692956319717,-0.221
1747851692964006002,-0.23800000000000002
1747851692971692287,-0.241
1747851692979378572,-0.23600000000000002
1747851692987064913,-0.228,91,727
1747851692994751198,-0.216,,699
1747851693002437483,-0.20400000000000001
1747851693010123768,-0.196
1747851693017810053,-0.189
1747851693025496338,-0.184
1747851693033182623,-0.179
1747851693040868908,-0.177
1747851693048555193,-0.17400000000000002
1747851693056241478,-0.17200000000000001
1747851693063927763,-0.169
1747851693071614048,-0.169
1747851693079300333,-0.169
1747851693086986618,-0.167
1747851693094672903,-0.167
1747851693102359188,-0.167
1747851693110045473,-0.164
1747851693117731758,-0.162
1747851693125418043,-0.162
1747851693133104328,-0.16
1747851693140790613,-0.16
1747851693148476898,-0.16
1747851693156163183,-0.157
1747851693163849468,-0.152
1747851693171535753,-0.15
1747851693179222038,-0.147
1747851693186908323,-0.145
1747851693194594608,-0.14200000000000002
1747851693202280893,-0.14
1747851693209967178,-0.135
1747851693217653463,-0.128
1747851693225339748,-0.128
1747851693233026033,-0.132
1747851693240712318,-0.137
1747851693248398603,-0.13
1747851693256084888,-0.115
1747851693263771173,-0.1
1747851693271457458,-0.091
1747851693279143743,-0.081
1747851693286830028,-0.07100000000000001
1747851693294516313,-0.078
1747851693302202598,-0.11
1747851693309888883,-0.132
1747851693317575168,-0.125
1747851693325261453,-0.11800000000000001
1747851693332947738,-0.12
1747851693340634023,-0.113
1747851693348320308,-0.105
1747851693356006593,-0.115
1747851693363692878,-0.14
1747851693371379163,-0.194
1747851693379065448,-0.226
1747851693386751733,0.009000000000000001
1747851693394438018,0.652
1747851693402124303,1.454
1747851693409810588,1.7670000000000001
1747851693417496873,0.8320000000000001
1747851693425183158,-0.556
1747851693432869443,-0.657
1747851693440555728,-0.10300000000000001
1747851693448242013,-0.17200000000000001
1747851693455928298,-0.32
1747851693463614583,-0.177
1747851693471300868,-0.15
1747851693478987153,-0.201
1747851693486673438,-0.155
1747851693494359723,-0.11800000000000001
1747851693502046008,-0.125
1747851693509732293,-0.108
1747851693517418578,-0.078
1747851693525104863,-0.064
1747851693532791148,-0.049
1747851693540477433,-0.024
1747851693548163778,-0.002,90,700
1747851693555850063,0.022
1747851693563536348,0.049
1747851693571222633,0.078
1747851693578908918,0.105
1747851693586595203,0.135
1747851693594281488,0.157
1747851693601967773,0.167
1747851693609654058,0.167
1747851693617340343,0.152
1747851693625026628,0.13
1747851693632712913,0.108
1747851693640399198,0.076
1747851693648085483,0.039
1747851693655771768,-0.002
1747851693663458053,-0.051000000000000004
1747851693671144338,-0.10300000000000001
1747851693678830623,-0.15
1747851693686516908,-0.189
1747851693694203193,-0.219
1747851693701889478,-0.231
1747851693709575763,-0.231
1747851693717262048,-0.226
1747851693724948333,-0.221
1747851693732634618,-0.209
1747851693740320903,-0.199
1747851693748007188,-0.192
1747851693755693473,-0.182
1747851693763379758,-0.177
1747851693771066043,-0.17200000000000001
1747851693778752328,-0.167
1747851693786438613,-0.167
1747851693794124898,-0.167
1747851693801811183,-0.164
1747851693809497468,-0.162
1747851693817183753,-0.162
1747851693824870038,-0.164
1747851693832556323,-0.164
1747851693840242608,-0.164
1747851693847928893,-0.167
1747851693855615178,-0.167
1747851693863301463,-0.164
1747851693870987748,-0.162
1747851693878674033,-0.16
1747851693886360318,-0.16
1747851693894046603,-0.157
1747851693901732888,-0.157
1747851693909419173,-0.152
1747851693917105458,-0.15
1747851693924791743,-0.147
1747851693932478028,-0.145
1747851693940164313,-0.14200000000000002
1747851693947850598,-0.137
1747851693955536883,-0.132
1747851693963223168,-0.13
1747851693970909453,-0.125
1747851693978595738,-0.125
1747851693986282023,-0.132
1747851693993968308,-0.13
1747851694001654593,-0.12
1747851694009340878,-0.105
1747851694017027163,-0.093
1747851694024713448,-0.083
1747851694032399733,-0.076
1747851694040086018,-0.07100000000000001
1747851694047772303,-0.088
1747851694055458588,-0.12
1747851694063144873,-0.13
1747851694070831158,-0.12
1747851694078517443,-0.115
1747851694086203728,-0.113
1747851694093890013,-0.108
1747851694101576298,-0.108
1747851694109262639,-0.11800000000000001
1747851694116948715,-0.152
1747851694124634791,-0.219
1747851694132320867,-0.182
1747851694140006943,0.219
1747851694147693019,0.969
1747851694155379095,1.681
1747851694163065171,1.548
1747851694170751247,0.216
1747851694178437323,-0.772
1747851694186123399,-0.403
1747851694193809475,-0.051000000000000004
1747851694201495551,-0.27
1747851694209181627,-0.27
1747851694216867703,-0.13
1747851694224553779,-0.169
1747851694232239855,-0.187
1747851694239925931,-0.123
1747851694247612007,-0.11
1747851694255298083,-0.115
1747851694262984159,-0.088
1747851694270670235,-0.066
1747851694278356311,-0.051000000000000004
1747851694286042387,-0.027
1747851694293728463,-0.009000000000000001
1747851694301414539,0.007
1747851694309100615,0.036000000000000004
1747851694316786691,0.07100000000000001
1747851694324472767,0.098
1747851694332158843,0.128
1747851694339844919,0.155
1747851694347530995,0.167
1747851694355217071,0.167
1747851694362903147,0.16
1747851694370589223,0.147
1747851694378275299,0.123
1747851694385961375,0.098
1747851694393647451,0.07100000000000001
1747851694401333527,0.032
1747851694409019603,-0.017
1747851694416705679,-0.064
1747851694424391755,-0.108
1747851694432077831,-0.152
1747851694439763907,-0.189
1747851694447449983,-0.20400000000000001
1747851694455136059,-0.211
1747851694462822135,-0.216
1747851694470508211,-0.214
1747851694478194287,-0.201
1747851694485880363,-0.187
1747851694493566439,-0.17400000000000002
1747851694501252515,-0.17200000000000001
1747851694508938591,-0.164
1747851694516624667,-0.157
1747851694524310743,-0.152
1747851694531996819,-0.155
1747851694539682895,-0.157
1747851694547368971,-0.15
1747851694555055047,-0.147
1747851694562741123,-0.145
1747851694570427199,-0.14200000000000002
1747851694578113275,-0.14
1747851694585799351,-0.145
1747851694593485427,-0.147
1747851694601171503,-0.152
1747851694608857579,-0.15
1747851694616543655,-0.14200000000000002
1747851694624229731,-0.14
1747851694631915807,-0.145
1747851694639601883,-0.147
1747851694647287959,-0.14200000000000002
1747851694654974035,-0.135
1747851694662660111,-0.13
1747851694670346243,-0.13,89,716
1747851694678032319,-0.128
1747851694685718395,-0.123
1747851694693404471,-0.115
1747851694701090547,-0.11800000000000001
1747851694708776623,-0.11800000000000001
1747851694716462699,-0.12
1747851694724148775,-0.128
1747851694731834851,-0.123
1747851694739520927,-0.1
1747851694747207003,-0.08600000000000001
1747851694754893079,-0.083
1747851694762579155,-0.07100000000000001
1747851694770265231,-0.056
1747851694777951307,-0.061
1747851694785637383,-0.096
1747851694793323459,-0.125
1747851694801009535,-0.115
1747851694808695611,-0.096
1747851694816381687,-0.1
1747851694824067763,-0.108
1747851694831753839,-0.098
1747851694839439915,-0.10300000000000001
1747851694847125991,-0.128
1747851694854812067,-0.177
1747851694862498143,-0.219
1747851694870184219,-0.029
1747851694877870295,0.585
1747851694885556371,1.3760000000000001
1747851694893242447,1.728
1747851694900928523,0.923
1747851694908614599,-0.452
1747851694916300675,-0.6890000000000001
1747851694923986751,-0.14
1747851694931672827,-0.137
1747851694939358903,-0.28800000000000003
1747851694947044979,-0.167
1747851694954731055,-0.128
1747851694962417131,-0.177
1747851694970103207,-0.132
1747851694977789283,-0.096
1747851694985475359,-0.113
1747851694993161435,-0.093
1747851695000847511,-0.054
1747851695008533587,-0.041
1747851695016219663,-0.034
1747851695023905739,-0.007
1747851695031591815,0.027
1747851695039277891,0.051000000000000004
1747851695046963967,0.066
1747851695054650043,0.093
1747851695062336119,0.128
1747851695070022195,0.152
1747851695077708271,0.17400000000000002
1747851695085394347,0.187
1747851695093080423,0.187
1747851695100766499,0.17400000000000002
1747851695108452575,0.147
1747851695116138651,0.113
1747851695123824727,0.08600000000000001
1747851695131510803,0.054
1747851695139196879,0.004
1747851695146882955,-0.044
1747851695154569031,-0.088
1747851695162255107,-0.137
1747851695169941183,-0.167
1747851695177627259,-0.192
1747851695185313335,-0.224
1747851695192999411,-0.231
1747851695200685487,-0.214
1747851695208371563,-0.211
1747851695216057639,-0.211
1747851695223743715,-0.194
1747851695231429843,-0.182
1747851695239116128,-0.177
1747851695246802413,-0.167
1747851695254488698,-0.16
1747851695262174983,-0.157
1747851695269861268,-0.16
1747851695277547553,-0.155
1747851695285233838,-0.147
1747851695292920123,-0.145
1747851695300606408,-0.15
1747851695308292693,-0.152
1747851695315978978,-0.152
1747851695323665263,-0.152
1747851695331351548,-0.152
1747851695339037833,-0.152
1747851695346724118,-0.152
1747851695354410403,-0.15
1747851695362096688,-0.15
1747851695369782973,-0.15
1747851695377469258,-0.147
1747851695385155543,-0.14
1747851695392841828,-0.135
1747851695400528113,-0.135
1747851695408214398,-0.135
1747851695415900683,-0.132
1747851695423586968,-0.132
1747851695431273253,-0.13
1747851695438959538,-0.125
1747851695446645823,-0.105
1747851695454332108,-0.08600000000000001
1747851695462018393,-0.083
1747851695469704678,-0.076
1747851695477390963,-0.073
1747851695485077248,-0.105
1747851695492763533,-0.13
1747851695500449818,-0.128
1747851695508136103,-0.123
1747851695515822388,-0.123
1747851695523508673,-0.115
1747851695531194958,-0.11
1747851695538881243,-0.115
1747851695546567528,-0.125
1747851695554253813,-0.16
1747851695561940098,-0.221
1747851695569626383,-0.15
1747851695577312668,0.32
1747851695584998953,1.088
1747851695592685238,1.651
1747851695600371523,1.292
1747851695608057808,-0.039
1747851695615744093,-0.777
1747851695623430378,-0.334
1747851695631116663,-0.088
1747851695638802948,-0.278
1747851695646489233,-0.224
1747851695654175518,-0.125
1747851695661861803,-0.177
1747851695669548088,-0.169
1747851695677234373,-0.115
1747851695684920658,-0.115
1747851695692606943,-0.113
1747851695700293228,-0.081
1747851695707979513,-0.061
1747851695715665798,-0.051000000000000004
1747851695723352083,-0.034
1747851695731038368,-0.009000000000000001
1747851695738724653,0.014
1747851695746410938,0.039
1747851695754097223,0.066
1747851695761783508,0.091
1747851695769469793,0.113
1747851695777156078,0.132
1747851695784842363,0.145
1747851695792528704,0.145,88,735
1747851695800214989,0.13,,750
1747851695807901274,0.108
1747851695815587559,0.081
1747851695823273844,0.051000000000000004
1747851695830960129,0.019
1747851695838646414,-0.019
1747851695846332699,-0.064
1747851695854018984,-0.11
1747851695861705269,-0.152
1747851695869391554,-0.187
1747851695877077839,-0.216
1747851695884764124,-0.233
1747851695892450409,-0.23800000000000002
1747851695900136694,-0.233
1747851695907822979,-0.228
1747851695915509264,-0.224
1747851695923195549,-0.216
1747851695930881834,-0.20400000000000001
1747851695938568119,-0.192
1747851695946254404,-0.184
1747851695953940689,-0.177
1747851695961626974,-0.17200000000000001
1747851695969313259,-0.167
1747851695976999544,-0.162
1747851695984685829,-0.16
1747851695992372114,-0.162
1747851696000058399,-0.162
1747851696007744684,-0.16
1747851696015430969,-0.16
1747851696023117254,-0.162
1747851696030803539,-0.162
1747851696038489824,-0.162
1747851696046176109,-0.162
1747851696053862394,-0.16
1747851696061548679,-0.16
1747851696069234964,-0.16
1747851696076921249,-0.157
1747851696084607534,-0.155
1747851696092293819,-0.15
1747851696099980104,-0.147
1747851696107666389,-0.145
1747851696115352674,-0.14200000000000002
1747851696123038959,-0.145
1747851696130725244,-0.15
1747851696138411529,-0.15
1747851696146097814,-0.135
1747851696153784099,-0.11800000000000001
1747851696161470384,-0.108
1747851696169156669,-0.1
1747851696176842954,-0.08600000000000001
1747851696184529239,-0.083
1747851696192215524,-0.113
1747851696199901809,-0.145
1747851696207588094,-0.14200000000000002
1747851696215274379,-0.13
1747851696222960664,-0.128
1747851696230646949,-0.128
1747851696238333234,-0.123
1747851696246019519,-0.125
1747851696253705804,-0.14
1747851696261392089,-0.182
1747851696269078374,-0.23800000000000002
1747851696276764659,-0.135
1747851696284450944,0.364
1747851696292137229,1.147
1747851696299823514,1.715
1747851696307509799,1.262
1747851696315196084,-0.147
1747851696322882369,-0.782
1747851696330568654,-0.263
1747851696338254939,-0.081
1747851696345941224,-0.305
1747851696353627565,-0.241
1747851696361313920,-0.135
1747851696369000275,-0.192
1747851696376686630,-0.184
1747851696384372985,-0.128
1747851696392059340,-0.125
1747851696399745695,-0.123
1747851696407432050,-0.091
1747851696415118405,-0.073
1747851696422804760,-0.064
1747851696430491115,-0.039
1747851696438177470,-0.014
1747851696445863825,0.004
1747851696453550180,0.029
1747851696461236535,0.059000000000000004
1747851696468922890,0.088
1747851696476609245,0.115
1747851696484295600,0.137
1747851696491981955,0.15
1747851696499668310,0.15
1747851696507354665,0.137
1747851696515041020,0.115
1747851696522727375,0.088
1747851696530413730,0.059000000000000004
1747851696538100085,0.027
1747851696545786440,-0.012
1747851696553472795,-0.061
1747851696561159150,-0.11
1747851696568845505,-0.152
1747851696576531860,-0.189
1747851696584218215,-0.216
1747851696591904570,-0.228
1747851696599590925,-0.231
1747851696607277280,-0.226
1747851696614963635,-0.219
1747851696622649990,-0.209
1747851696630336345,-0.201
1747851696638022700,-0.192
1747851696645709055,-0.182
1747851696653395410,-0.177
1747851696661081765,-0.17400000000000002
1747851696668768120,-0.169
1747851696676454475,-0.164
1747851696684140830,-0.162
1747851696691827185,-0.162
1747851696699513540,-0.157
1747851696707199895,-0.157
1747851696714886250,-0.157
1747851696722572605,-0.157
1747851696730258960,-0.157
1747851696737945315,-0.16
1747851696745631670,-0.157
1747851696753318025,-0.157
1747851696761004380,-0.157
1747851696768690735,-0.16
1747851696776377090,-0.155
1747851696784063445,-0.15
1747851696791749800,-0.15
1747851696799436155,-0.145
1747851696807122510,-0.14
1747851696814808865,-0.137
1747851696822495220,-0.14200000000000002
1747851696830181575,-0.15
1747851696837867930,-0.14200000000000002
1747851696845554285,-0.128
1747851696853240640,-0.113
1747851696860926995,-0.105
1747851696868613350,-0.098
1747851696876299705,-0.08600000000000001
1747851696883986060,-0.083
1747851696891672415,-0.113
1747851696899358770,-0.145
1747851696907045125,-0.14
1747851696914731517,-0.128,87,733
1747851696922417872,-0.128
1747851696930104227,-0.123
1747851696937790582,-0.115
1747851696945476937,-0.115
1747851696953163292,-0.13
1747851696960849647,-0.17400000000000002
1747851696968536002,-0.243
1747851696976222357,-0.189
1747851696983908712,0.251
1747851696991595067,1.029
1747851696999281422,1.696
1747851697006967777,1.442
1747851697014654132,0.068
1747851697022340487,-0.797
1747851697030026842,-0.361
1747851697037713197,-0.064
1747851697045399552,-0.28300000000000003
1747851697053085907,-0.26
1747851697060772262,-0.137
1747851697068458617,-0.184
1747851697076144972,-0.192
1747851697083831327,-0.13
1747851697091517682,-0.123
1747851697099204037,-0.123
1747851697106890392,-0.093
1747851697114576747,-0.073
1747851697122263102,-0.061
1747851697129949457,-0.036000000000000004
1747851697137635812,-0.014
1747851697145322167,0.007
1747851697153008522,0.034
1747851697160694877,0.061
1747851697168381232,0.088
1747851697176067587,0.115
1747851697183753942,0.137
1747851697191440297,0.15
1747851697199126652,0.15
1747851697206813007,0.137
1747851697214499362,0.115
1747851697222185717,0.088
1747851697229872072,0.061
1747851697237558427,0.029
1747851697245244782,-0.007
1747851697252931137,-0.051000000000000004
1747851697260617492,-0.1
1747851697268303847,-0.145
1747851697275990202,-0.182
1747851697283676557,-0.209
1747851697291362912,-0.226
1747851697299049267,-0.231
1747851697306735622,-0.226
1747851697314421977,-0.219
1747851697322108332,-0.214
1747851697329794687,-0.20400000000000001
1747851697337481042,-0.192
1747851697345167397,-0.184
1747851697352853752,-0.177
1747851697360540107,-0.17200000000000001
1747851697368226462,-0.167
1747851697375912817,-0.164
1747851697383599172,-0.164
1747851697391285527,-0.162
1747851697398971882,-0.162
1747851697406658237,-0.162
1747851697414344592,-0.16
1747851697422030947,-0.16
1747851697429717302,-0.16
1747851697437403657,-0.16
1747851697445090012,-0.157
1747851697452776367,-0.157
1747851697460462722,-0.157
1747851697468149077,-0.155
1747851697475835465,-0.155
1747851697483521611,-0.155
1747851697491207757,-0.15
1747851697498893903,-0.147
1747851697506580049,-0.145
1747851697514266195,-0.14
1747851697521952341,-0.14200000000000002
1747851697529638487,-0.152
1747851697537324633,-0.15
1747851697545010779,-0.135
1747851697552696925,-0.11800000000000001
1747851697560383071,-0.105
1747851697568069217,-0.098
1747851697575755363,-0.088
1747851697583441509,-0.081
1747851697591127655,-0.1
1747851697598813801,-0.135
1747851697606499947,-0.14
1747851697614186093,-0.128
1747851697621872239,-0.123
1747851697629558385,-0.123
1747851697637244531,-0.11800000000000001
1747851697644930677,-0.115
1747851697652616823,-0.125
1747851697660302969,-0.157
1747851697667989115,-0.224
1747851697675675261,-0.211
1747851697683361407,0.135
1747851697691047553,0.856
1747851697698733699,1.597
1747851697706419845,1.597
1747851697714105991,0.369
1747851697721792137,-0.743
1747851697729478283,-0.48
1747851697737164429,-0.059000000000000004
1747851697744850575,-0.243
1747851697752536721,-0.28300000000000003
1747851697760222867,-0.14200000000000002
1747851697767909013,-0.167
1747851697775595159,-0.192
1747851697783281305,-0.135
1747851697790967451,-0.11800000000000001
1747851697798653597,-0.123
1747851697806339743,-0.093
1747851697814025889,-0.07100000000000001
1747851697821712035,-0.061
1747851697829398181,-0.036000000000000004
1747851697837084327,-0.012
1747851697844770473,0.007
1747851697852456619,0.029
1747851697860142765,0.059000000000000004
1747851697867828911,0.08600000000000001
1747851697875515057,0.11
1747851697883201203,0.13
1747851697890887349,0.14
1747851697898573495,0.137
1747851697906259641,0.125
1747851697913945787,0.10300000000000001
1747851697921631933,0.073
1747851697929318079,0.051000000000000004
1747851697937004225,0.027
1747851697944690371,-0.009000000000000001
1747851697952376517,-0.054
1747851697960062663,-0.096
1747851697967748809,-0.14
1747851697975434955,-0.182
1747851697983121101,-0.209
1747851697990807247,-0.226
1747851697998493393,-0.233
1747851698006179539,-0.23600000000000002
1747851698013865685,-0.228
1747851698021551831,-0.219
1747851698029237977,-0.209
1747851698036924152,-0.196,86,702
1747851698044610437,-0.192,,707
1747851698052296722,-0.182
1747851698059983007,-0.177
1747851698067669292,-0.17200000000000001
1747851698075355577,-0.162
1747851698083041862,-0.162
1747851698090728147,-0.167
1747851698098414432,-0.167
1747851698106100717,-0.16
1747851698113787002,-0.16
1747851698121473287,-0.167
1747851698129159572,-0.169
1747851698136845857,-0.169
1747851698144532142,-0.167
1747851698152218427,-0.164
1747851698159904712,-0.162
1747851698167590997,-0.157
1747851698175277282,-0.152
1747851698182963567,-0.15
1747851698190649852,-0.155
1747851698198336137,-0.157
1747851698206022422,-0.152
1747851698213708707,-0.145
1747851698221394992,-0.145
1747851698229081277,-0.14200000000000002
1747851698236767562,-0.14200000000000002
1747851698244453847,-0.145
1747851698252140132,-0.137
1747851698259826417,-0.12
1747851698267512702,-0.1
1747851698275198987,-0.093
1747851698282885272,-0.081
1747851698290571557,-0.078
1747851698298257842,-0.10300000000000001
1747851698305944127,-0.135
1747851698313630412,-0.135
1747851698321316697,-0.128
1747851698329002982,-0.123
1747851698336689267,-0.11800000000000001
1747851698344375552,-0.113
1747851698352061837,-0.11
1747851698359748122,-0.12
1747851698367434407,-0.16
1747851698375120692,-0.224
1747851698382806977,-0.184
1747851698390493262,0.209
1747851698398179547,0.9550000000000001
1747851698405865832,1.637
1747851698413552117,1.489
1747851698421238402,0.192
1747851698428924687,-0.772
1747851698436610972,-0.40800000000000003
1747851698444297257,-0.051000000000000004
1747851698451983542,-0.251
1747851698459669827,-0.251
1747851698467356112,-0.125
1747851698475042397,-0.169
1747851698482728682,-0.182
1747851698490414967,-0.115
1747851698498101252,-0.10300000000000001
1747851698505787537,-0.11
1747851698513473822,-0.078
1747851698521160107,-0.051000000000000004
1747851698528846392,-0.041
1747851698536532677,-0.022
1747851698544218962,0.0
1747851698551905247,0.014
1747851698559591532,0.041
1747851698567277817,0.081
1747851698574964102,0.108
1747851698582650387,0.128
1747851698590336672,0.152
1747851698598023013,0.167,86,701
1747851698605709298,0.16
1747851698613395583,0.145
1747851698621081868,0.125
1747851698628768153,0.098
1747851698636454438,0.073
1747851698644140723,0.041
1747851698651827008,-0.002
1747851698659513293,-0.044
1747851698667199578,-0.081
1747851698674885863,-0.125
1747851698682572148,-0.17400000000000002
1747851698690258433,-0.20600000000000002
1747851698697944718,-0.214
1747851698705631003,-0.216
1747851698713317288,-0.219
1747851698721003573,-0.216
1747851698728689858,-0.209
1747851698736376143,-0.20400000000000001
1747851698744062428,-0.187
1747851698751748713,-0.177
1747851698759434998,-0.177
1747851698767121283,-0.17200000000000001
1747851698774807568,-0.16
1747851698782493853,-0.147
1747851698790180138,-0.15
1747851698797866423,-0.155
1747851698805552708,-0.147
1747851698813238993,-0.145
1747851698820925278,-0.155
1747851698828611563,-0.155
1747851698836297848,-0.155
1747851698843984133,-0.16
1747851698851670418,-0.157
1747851698859356703,-0.152
1747851698867042988,-0.155
1747851698874729273,-0.152
1747851698882415558,-0.147
1747851698890101843,-0.15
1747851698897788128,-0.147
1747851698905474413,-0.14
1747851698913160698,-0.14
1747851698920846983,-0.15
1747851698928533268,-0.152
1747851698936219553,-0.137
1747851698943905838,-0.12
1747851698951592123,-0.105
1747851698959278408,-0.093
1747851698966964693,-0.081
1747851698974650978,-0.073
1747851698982337263,-0.091
1747851698990023548,-0.123
1747851698997709833,-0.137
1747851699005396118,-0.132
1747851699013082403,-0.125
1747851699020768688,-0.12
1747851699028454973,-0.11800000000000001
1747851699036141258,-0.115
1747851699043827543,-0.115
1747851699051513828,-0.13
1747851699059200113,-0.169
1747851699066886398,-0.228
1747851699074572683,-0.132
1747851699082258968,0.386
1747851699089945253,1.166
1747851699097631538,1.6540000000000001
1747851699105317823,1.1420000000000001
1747851699113004108,-0.20400000000000001
1747851699120690393,-0.763
1747851699128376678,-0.27
1747851699136062963,-0.108
1747851699143749248,-0.28500000000000003
1747851699151435533,-0.201
1747851699159121874,-0.123
1747851699166808159,-0.177
1747851699174494444,-0.155
1747851699182180729,-0.108
1747851699189867014,-0.11
1747851699197553299,-0.1
1747851699205239584,-0.073
1747851699212925869,-0.061
1747851699220612154,-0.049
1747851699228298439,-0.022
1747851699235984724,0.0
1747851699243671009,0.022
1747851699251357294,0.049
1747851699259043579,0.076
1747851699266729864,0.1
1747851699274416149,0.125
1747851699282102434,0.137
1747851699289788719,0.14200000000000002
1747851699297475004,0.135
1747851699305161289,0.11800000000000001
1747851699312847574,0.091
1747851699320533859,0.061
1747851699328220144,0.032
1747851699335906429,-0.002
1747851699343592714,-0.039
1747851699351278999,-0.081
1747851699358965284,-0.123
1747851699366651569,-0.162
1747851699374337854,-0.199
1747851699382024139,-0.221
1747851699389710424,-0.23600000000000002
1747851699397396709,-0.23800000000000002
1747851699405082994,-0.233
1747851699412769279,-0.226
1747851699420455564,-0.221
1747851699428141849,-0.209
1747851699435828134,-0.201
1747851699443514419,-0.194
1747851699451200704,-0.184
1747851699458886989,-0.177
1747851699466573274,-0.17200000000000001
1747851699474259559,-0.169
1747851699481945844,-0.167
1747851699489632129,-0.164
1747851699497318414,-0.162
1747851699505004699,-0.162
1747851699512690984,-0.162
1747851699520377269,-0.164
1747851699528063554,-0.164
1747851699535749839,-0.167
1747851699543436124,-0.169
1747851699551122409,-0.169
1747851699558808694,-0.167
1747851699566494979,-0.167
1747851699574181264,-0.164
1747851699581867549,-0.162
1747851699589553834,-0.16
1747851699597240119,-0.157
1747851699604926404,-0.155
1747851699612612689,-0.15
1747851699620298974,-0.152
1747851699627985259,-0.16
1747851699635671544,-0.155
1747851699643357829,-0.14
1747851699651044114,-0.125
1747851699658730399,-0.115
1747851699666416684,-0.108
1747851699674102969,-0.096
1747851699681789254,-0.098
1747851699689475539,-0.132
1747851699697161824,-0.155
1747851699704848109,-0.15
1747851699712534394,-0.14
1747851699720220735,-0.14,86,701
1747851699727907020,-0.132,,706
1747851699735593305,-0.128
1747851699743279590,-0.132
1747851699750965875,-0.145
1747851699758652160,-0.192
1747851699766338445,-0.253
1747851699774024730,-0.135
1747851699781711015,0.393
1747851699789397300,1.184
1747851699797083585,1.725
1747851699804769870,1.221
1747851699812456155,-0.201
1747851699820142440,-0.787
1747851699827828725,-0.26
1747851699835515010,-0.098
1747851699843201295,-0.312
1747851699850887580,-0.241
1747851699858573865,-0.145
1747851699866260150,-0.201
1747851699873946435,-0.189
1747851699881632720,-0.135
1747851699889319005,-0.137
1747851699897005290,-0.128
1747851699904691575,-0.096
1747851699912377860,-0.078
1747851699920064145,-0.066
1747851699927750430,-0.041
1747851699935436715,-0.014
1747851699943123000,0.004
1747851699950809285,0.032
1747851699958495570,0.059000000000000004
1747851699966181855,0.08600000000000001
1747851699973868140,0.11
1747851699981554425,0.13
1747851699989240710,0.14
1747851699996926995,0.135
1747851700004613280,0.12
1747851700012299565,0.096
1747851700019985850,0.066
1747851700027672135,0.036000000000000004
1747851700035358420,0.002
1747851700043044705,-0.036000000000000004
1747851700050730990,-0.083
1747851700058417275,-0.13
1747851700066103560,-0.17200000000000001
1747851700073789845,-0.20400000000000001
1747851700081476130,-0.226
1747851700089162415,-0.241
1747851700096848700,-0.246
1747851700104534985,-0.23800000000000002
1747851700112221270,-0.228
1747851700119907555,-0.221
1747851700127593840,-0.211
1747851700135280125,-0.201
1747851700142966410,-0.192
1747851700150652695,-0.187
1747851700158338980,-0.179
1747851700166025265,-0.177
1747851700173711550,-0.17200000000000001
1747851700181397835,-0.17200000000000001
1747851700189084120,-0.17200000000000001
1747851700196770405,-0.169
1747851700204456690,-0.169
1747851700212142975,-0.17200000000000001
1747851700219829260,-0.17200000000000001
1747851700227515545,-0.17200000000000001
1747851700235201830,-0.17200000000000001
1747851700242888115,-0.17200000000000001
1747851700250574400,-0.169
1747851700258260685,-0.164
1747851700265946970,-0.164
1747851700273633255,-0.162
1747851700281319600,-0.16
1747851700289005885,-0.157
1747851700296692170,-0.155
1747851700304378455,-0.15
1747851700312064740,-0.15
1747851700319751025,-0.155
1747851700327437310,-0.16
1747851700335123595,-0.155
1747851700342809880,-0.14200000000000002
1747851700350496165,-0.128
1747851700358182450,-0.11800000000000001
1747851700365868735,-0.108
1747851700373555020,-0.096
1747851700381241305,-0.1
1747851700388927590,-0.13
1747851700396613875,-0.155
1747851700404300160,-0.147
1747851700411986445,-0.137
1747851700419672730,-0.137
1747851700427359015,-0.132
1747851700435045300,-0.125
1747851700442731585,-0.128
1747851700450417870,-0.14
1747851700458104155,-0.179
1747851700465790440,-0.243
1747851700473476725,-0.17200000000000001
1747851700481163010,0.292
1747851700488849295,1.08
1747851700496535580,1.725
1747851700504221865,1.405
1747851700511908150,0.0
1747851700519594435,-0.8
1747851700527280720,-0.337
1747851700534967005,-0.076
1747851700542653290,-0.295
1747851700550339575,-0.258
1747851700558025860,-0.14
1747851700565712145,-0.189
1747851700573398430,-0.189
1747851700581084715,-0.132
1747851700588771000,-0.128
1747851700596457285,-0.125
1747851700604143570,-0.091
1747851700611829855,-0.07100000000000001
1747851700619516140,-0.061
1747851700627202425,-0.036000000000000004
1747851700634888710,-0.009000000000000001
1747851700642574995,0.012
1747851700650261280,0.036000000000000004
1747851700657947565,0.066
1747851700665633850,0.093
1747851700673320135,0.12
1747851700681006420,0.14200000000000002
1747851700688692705,0.152
1747851700696378990,0.147
1747851700704065275,0.132
1747851700711751560,0.108
1747851700719437845,0.081
1747851700727124130,0.046
1747851700734810415,0.014
1747851700742496700,-0.022
1747851700750182985,-0.066
1747851700757869270,-0.115
1747851700765555555,-0.16
1747851700773241840,-0.192
1747851700780928125,-0.216
1747851700788614410,-0.233
1747851700796300695,-0.23600000000000002
1747851700803986980,-0.231
1747851700811673265,-0.224
1747851700819359550,-0.216
1747851700827045835,-0.209
1747851700834732120,-0.196
1747851700842418461,-0.187,86,689
1747851700850104746,-0.179
1747851700857791031,-0.177
1747851700865477316,-0.17200000000000001
1747851700873163601,-0.164
1747851700880849886,-0.162
1747851700888536171,-0.167
1747851700896222456,-0.169
1747851700903908741,-0.164
1747851700911595026,-0.162
1747851700919281311,-0.167
1747851700926967596,-0.167
1747851700934653881,-0.164
1747851700942340166,-0.164
1747851700950026451,-0.164
1747851700957712736,-0.162
1747851700965399021,-0.157
1747851700973085306,-0.152
1747851700980771591,-0.157
1747851700988457876,-0.155
1747851700996144161,-0.147
1747851701003830446,-0.14200000000000002
1747851701011516731,-0.14200000000000002
1747851701019203016,-0.137
1747851701026889301,-0.14
1747851701034575586,-0.147
1747851701042261871,-0.147
1747851701049948156,-0.132
1747851701057634441,-0.11800000000000001
1747851701065320726,-0.10300000000000001
1747851701073007011,-0.096
1747851701080693296,-0.08600000000000001
1747851701088379581,-0.081
1747851701096065866,-0.105
1747851701103752151,-0.137
1747851701111438436,-0.135
1747851701119124721,-0.12
1747851701126811006,-0.11800000000000001
1747851701134497291,-0.11800000000000001
1747851701142183576,-0.115
1747851701149869861,-0.115
1747851701157556146,-0.12
1747851701165242431,-0.147
1747851701172928716,-0.214
1747851701180615001,-0.209
1747851701188301286,0.145
1747851701195987571,0.881
1747851701203673856,1.629
1747851701211360141,1.6340000000000001
1747851701219046426,0.406
1747851701226732711,-0.726
1747851701234418996,-0.47500000000000003
1747851701242105281,-0.051000000000000004
1747851701249791566,-0.241
1747851701257477851,-0.278
1747851701265164136,-0.125
1747851701272850421,-0.15
1747851701280536706,-0.187
1747851701288222991,-0.125
1747851701295909276,-0.098
1747851701303595561,-0.1
1747851701311281846,-0.073
1747851701318968131,-0.051000000000000004
1747851701326654416,-0.041
1747851701334340701,-0.022
1747851701342026986,0.0
1747851701349713271,0.022
1747851701357399556,0.054
1747851701365085841,0.08600000000000001
1747851701372772126,0.113
1747851701380458411,0.135
1747851701388144696,0.162
1747851701395830981,0.179
1747851701403517322,0.179
1747851701411203607,0.164
1747851701418889892,0.137
1747851701426576177,0.108
1747851701434262462,0.081
1747851701441948747,0.046
1747851701449635032,0.012
1747851701457321317,-0.027
1747851701465007602,-0.081
1747851701472693887,-0.132
1747851701480380172,-0.164
1747851701488066457,-0.194
1747851701495752742,-0.221
1747851701503439027,-0.226
1747851701511125312,-0.221
1747851701518811597,-0.216
1747851701526497882,-0.20400000000000001
1747851701534184167,-0.189
1747851701541870452,-0.187
1747851701549556737,-0.179
1747851701557243022,-0.169
1747851701564929307,-0.167
1747851701572615592,-0.164
1747851701580301877,-0.15
1747851701587988162,-0.15
1747851701595674447,-0.152
1747851701603360732,-0.145
1747851701611047017,-0.145
1747851701618733302,-0.147
1747851701626419587,-0.145
1747851701634105872,-0.147
1747851701641792157,-0.16
1747851701649478442,-0.16
1747851701657164727,-0.155
1747851701664851012,-0.15
1747851701672537297,-0.14200000000000002
1747851701680223582,-0.14200000000000002
1747851701687909867,-0.147
1747851701695596152,-0.14
1747851701703282437,-0.14
1747851701710968722,-0.147
1747851701718655007,-0.145
1747851701726341292,-0.135
1747851701734027577,-0.13
1747851701741713862,-0.113
1747851701749400147,-0.093
1747851701757086432,-0.088
1747851701764772717,-0.083
1747851701772459002,-0.078
1747851701780145287,-0.10300000000000001
1747851701787831572,-0.135
1747851701795517857,-0.137
1747851701803204142,-0.123
1747851701810890427,-0.115
1747851701818576712,-0.113
1747851701826262997,-0.108
1747851701833949282,-0.108
1747851701841635567,-0.11800000000000001
1747851701849321852,-0.14200000000000002
1747851701857008137,-0.196
1747851701864694422,-0.226
1747851701872380707,0.036000000000000004
1747851701880066992,0.731
1747851701887753277,1.489
1747851701895439562,1.619
1747851701903125847,0.593
1747851701910812132,-0.627
1747851701918498417,-0.585
1747851701926184702,-0.098
1747851701933870987,-0.194
1747851701941557272,-0.268
1747851701949243557,-0.135
1747851701956929842,-0.137
1747851701964616183,-0.167,86,699
1747851701972302468,-0.11800000000000001
1747851701979988753,-0.098
1747851701987675038,-0.096
1747851701995361323,-0.066
1747851702003047608,-0.049
1747851702010733893,-0.036000000000000004
1747851702018420178,-0.012
1747851702026106463,0.012
1747851702033792748,0.036000000000000004
1747851702041479033,0.064
1747851702049165318,0.088
1747851702056851603,0.115
1747851702064537888,0.15
1747851702072224173,0.17400000000000002
1747851702079910458,0.179
1747851702087596743,0.179
1747851702095283028,0.169
1747851702102969313,0.145
1747851702110655598,0.11800000000000001
1747851702118341883,0.081
1747851702126028168,0.041
1747851702133714453,0.002
1747851702141400738,-0.044
1747851702149087023,-0.096
1747851702156773308,-0.14200000000000002
1747851702164459593,-0.179
1747851702172145878,-0.20600000000000002
1747851702179832163,-0.226
1747851702187518448,-0.241
1747851702195204733,-0.23600000000000002
1747851702202891018,-0.226
1747851702210577303,-0.226
1747851702218263588,-0.219
1747851702225949873,-0.201
1747851702233636158,-0.189
1747851702241322443,-0.184
1747851702249008728,-0.179
1747851702256695013,-0.169
1747851702264381298,-0.162
1747851702272067583,-0.157
1747851702279753868,-0.157
1747851702287440153,-0.155
1747851702295126438,-0.155
1747851702302812723,-0.152
1747851702310499008,-0.152
1747851702318185293,-0.157
1747851702325871578,-0.16
1747851702333557863,-0.16
1747851702341244148,-0.157
1747851702348930433,-0.157
1747851702356616718,-0.157
1747851702364303003,-0.16
1747851702371989288,-0.157
1747851702379675573,-0.152
1747851702387361858,-0.147
1747851702395048143,-0.15
1747851702402734428,-0.155
1747851702410420713,-0.152
1747851702418106998,-0.14200000000000002
1747851702425793283,-0.128
1747851702433479568,-0.113
1747851702441165853,-0.105
1747851702448852138,-0.098
1747851702456538423,-0.093
1747851702464224708,-0.11800000000000001
1747851702471910993,-0.15
1747851702479597278,-0.155
1747851702487283563,-0.145
1747851702494969848,-0.14
1747851702502656133,-0.135
1747851702510342418,-0.132
1747851702518028703,-0.132
1747851702525715044,-0.137,86,700
1747851702533401329,-0.162,,709
1747851702541087614,-0.224
1747851702548773899,-0.253
1747851702556460184,0.022
1747851702564146469,0.713
1747851702571832754,1.467
1747851702579519039,1.622
1747851702587205324,0.6
1747851702594891609,-0.649
1747851702602577894,-0.615
1747851702610264179,-0.11
1747851702617950464,-0.211
1747851702625636749,-0.31
1747851702633323034,-0.17200000000000001
1747851702641009319,-0.167
1747851702648695604,-0.209
1747851702656381889,-0.157
1747851702664068174,-0.13
1747851702671754459,-0.14
1747851702679440744,-0.115
1747851702687127029,-0.088
1747851702694813314,-0.078
1747851702702499599,-0.061
1747851702710185884,-0.034
1747851702717872169,-0.012
1747851702725558454,0.009000000000000001
1747851702733244739,0.039
1747851702740931024,0.068
1747851702748617309,0.096
1747851702756303594,0.11800000000000001
1747851702763989879,0.132
1747851702771676164,0.132
1747851702779362449,0.12
1747851702787048734,0.098
1747851702794735019,0.07100000000000001
1747851702802421304,0.044
1747851702810107589,0.012
1747851702817793874,-0.027
1747851702825480159,-0.07100000000000001
1747851702833166444,-0.12
1747851702840852729,-0.164
1747851702848539014,-0.199
1747851702856225299,-0.226
1747851702863911584,-0.243
1747851702871597869,-0.251
1747851702879284154,-0.248
1747851702886970439,-0.23800000000000002
1747851702894656724,-0.228
1747851702902343009,-0.221
1747851702910029294,-0.211
1747851702917715579,-0.201
1747851702925401864,-0.194
1747851702933088149,-0.187
1747851702940774434,-0.179
1747851702948460719,-0.17400000000000002
1747851702956147004,-0.17200000000000001
1747851702963833289,-0.169
1747851702971519574,-0.169
1747851702979205859,-0.169
1747851702986892144,-0.169
1747851702994578429,-0.169
1747851703002264714,-0.17200000000000001
1747851703009950999,-0.17400000000000002
1747851703017637284,-0.17400000000000002
1747851703025323569,-0.17200000000000001
1747851703033009854,-0.17200000000000001
1747851703040696139,-0.169
1747851703048382424,-0.167
1747851703056068709,-0.164
1747851703063754994,-0.162
1747851703071441279,-0.16
1747851703079127564,-0.155
1747851703086813905,-0.152
1747851703094500190,-0.147
1747851703102186475,-0.155
1747851703109872760,-0.162
1747851703117559045,-0.157
1747851703125245330,-0.14
1747851703132931615,-0.128
1747851703140617900,-0.12
1747851703148304185,-0.11
1747851703155990470,-0.096
1747851703163676755,-0.096
1747851703171363040,-0.123
1747851703179049325,-0.15
1747851703186735610,-0.147
1747851703194421895,-0.137
1747851703202108180,-0.137
1747851703209794465,-0.135
1747851703217480750,-0.128
1747851703225167035,-0.128
1747851703232853320,-0.14
1747851703240539605,-0.182
1747851703248225890,-0.246
1747851703255912175,-0.182
1747851703263598460,0.273
1747851703271284745,1.056
1747851703278971030,1.71
1747851703286657315,1.449
1747851703294343600,0.078
1747851703302029885,-0.792
1747851703309716170,-0.366
1747851703317402455,-0.066
1747851703325088740,-0.28500000000000003
1747851703332775025,-0.268
1747851703340461310,-0.145
1747851703348147595,-0.189
1747851703355833880,-0.196
1747851703363520165,-0.137
1747851703371206450,-0.128
1747851703378892735,-0.128
1747851703386579020,-0.098
1747851703394265305,-0.073
1747851703401951590,-0.061
1747851703409637875,-0.036000000000000004
1747851703417324160,-0.014
1747851703425010445,0.007
1747851703432696730,0.034
1747851703440383015,0.064
1747851703448069300,0.093
1747851703455755585,0.12
1747851703463441870,0.14
1747851703471128155,0.152
1747851703478814440,0.15
1747851703486500725,0.135
1747851703494187010,0.113
1747851703501873295,0.088
1747851703509559580,0.056
1747851703517245865,0.019
1747851703524932150,-0.022
1747851703532618435,-0.073
1747851703540304720,-0.123
1747851703547991005,-0.164
1747851703555677290,-0.196
1747851703563363575,-0.224
1747851703571049860,-0.23800000000000002
1747851703578736145,-0.241
1747851703586422430,-0.23600000000000002
1747851703594108715,-0.228
1747851703601795000,-0.216
1747851703609481285,-0.20600000000000002
1747851703617167570,-0.199
1747851703624853855,-0.192
1747851703632540140,-0.184
1747851703640226425,-0.17400000000000002
1747851703647912770,-0.17200000000000001,86,686
1747851703655599055,-0.169
1747851703663285340,-0.167
1747851703670971625,-0.164
1747851703678657910,-0.162
1747851703686344195,-0.162
1747851703694030480,-0.162
1747851703701716765,-0.162
1747851703709403050,-0.162
1747851703717089335,-0.162
1747851703724775620,-0.162
1747851703732461905,-0.16
1747851703740148190,-0.16
1747851703747834475,-0.16
1747851703755520760,-0.16
1747851703763207045,-0.152
1747851703770893330,-0.147
1747851703778579615,-0.145
1747851703786265900,-0.145
1747851703793952185,-0.14200000000000002
1747851703801638470,-0.145
1747851703809324755,-0.152
1747851703817011040,-0.14200000000000002
1747851703824697325,-0.128
1747851703832383610,-0.115
1747851703840069895,-0.10300000000000001
1747851703847756180,-0.08600000000000001
1747851703855442465,-0.083
1747851703863128750,-0.096
1747851703870815035,-0.11800000000000001
1747851703878501320,-0.135
1747851703886187605,-0.13
1747851703893873890,-0.11800000000000001
1747851703901560175,-0.11800000000000001
1747851703909246460,-0.12
1747851703916932745,-0.115
1747851703924619030,-0.113
1747851703932305315,-0.123
1747851703939991600,-0.162
1747851703947677885,-0.228
1747851703955364170,-0.179
1747851703963050455,0.258
1747851703970736740,1.029
1747851703978423025,1.696
1747851703986109310,1.496
1747851703993795595,0.155
1747851704001481880,-0.775
1747851704009168165,-0.379
1747851704016854450,-0.049
1747851704024540735,-0.263
1747851704032227020,-0.26
1747851704039913305,-0.13
1747851704047599590,-0.164
1747851704055285875,-0.17200000000000001
1747851704062972160,-0.115
1747851704070658445,-0.10300000000000001
1747851704078344730,-0.1
1747851704086031015,-0.078
1747851704093717300,-0.059000000000000004
1747851704101403585,-0.044
1747851704109089870,-0.022
1747851704116776155,0.002
1747851704124462440,0.032
1747851704132148725,0.064
1747851704139835010,0.093
1747851704147521295,0.115
1747851704155207580,0.15
1747851704162893865,0.182
1747851704170580150,0.184
1747851704178266435,0.17400000000000002
1747851704185952720,0.162
1747851704193639005,0.145
1747851704201325290,0.11800000000000001
1747851704209011631,0.083
1747851704216697498,0.044
1747851704224383365,0.002
1747851704232069232,-0.051000000000000004
1747851704239755099,-0.105
1747851704247440966,-0.147
1747851704255126833,-0.184
1747851704262812700,-0.214
1747851704270498567,-0.228
1747851704278184434,-0.23800000000000002
1747851704285870301,-0.228
1747851704293556168,-0.219
1747851704301242035,-0.219
1747851704308927902,-0.20600000000000002
1747851704316613769,-0.184
1747851704324299636,-0.179
1747851704331985503,-0.17400000000000002
1747851704339671370,-0.17400000000000002
1747851704347357237,-0.17200000000000001
1747851704355043104,-0.162
1747851704362728971,-0.152
1747851704370414838,-0.152
1747851704378100705,-0.162
1747851704385786572,-0.164
1747851704393472439,-0.157
1747851704401158306,-0.157
1747851704408844173,-0.16
1747851704416530040,-0.16
1747851704424215907,-0.155
1747851704431901774,-0.15
1747851704439587641,-0.155
1747851704447273508,-0.155
1747851704454959375,-0.15
1747851704462645242,-0.157
1747851704470331109,-0.152
1747851704478016976,-0.14
1747851704485702843,-0.147
1747851704493388710,-0.147
1747851704501074577,-0.13
1747851704508760444,-0.115
1747851704516446311,-0.105
1747851704524132178,-0.098
1747851704531818045,-0.088
1747851704539503912,-0.08600000000000001
1747851704547189779,-0.113
1747851704554875646,-0.145
1747851704562561513,-0.137
1747851704570247380,-0.125
1747851704577933247,-0.128
1747851704585619114,-0.123
1747851704593304981,-0.11800000000000001
1747851704600990848,-0.12
1747851704608676715,-0.128
1747851704616362582,-0.15
1747851704624048449,-0.219
1747851704631734316,-0.228
1747851704639420183,0.096
1747851704647106050,0.8220000000000001
1747851704654791917,1.543
1747851704662477784,1.555
1747851704670163651,0.41300000000000003
1747851704677849518,-0.711
1747851704685535385,-0.514
1747851704693221252,-0.066
1747851704700907119,-0.214
1747851704708592986,-0.26
1747851704716278853,-0.125
1747851704723964720,-0.14200000000000002
1747851704731650587,-0.169
1747851704739336454,-0.108
1747851704747022321,-0.08600000000000001
1747851704754708188,-0.098
1747851704762394055,-0.068
1747851704770079974,-0.039,86,685
1747851704777766259,-0.029,,704
1747851704785452544,-0.007
1747851704793138829,0.022
1747851704800825114,0.049
1747851704808511399,0.076
1747851704816197684,0.11
1747851704823883969,0.132
1747851704831570254,0.16
1747851704839256539,0.192
1747851704846942824,0.20400000000000001
1747851704854629109,0.199
1747851704862315394,0.192
1747851704870001679,0.164
1747851704877687964,0.128
1747851704885374249,0.098
1747851704893060534,0.066
1747851704900746819,0.009000000000000001
1747851704908433104,-0.051000000000000004
1747851704916119389,-0.098
1747851704923805674,-0.135
1747851704931491959,-0.182
1747851704939178244,-0.221
1747851704946864529,-0.23600000000000002
1747851704954550814,-0.231
1747851704962237099,-0.231
1747851704969923384,-0.231
1747851704977609669,-0.226
1747851704985295954,-0.211
1747851704992982239,-0.196
1747851705000668524,-0.187
1747851705008354809,-0.182
1747851705016041094,-0.17200000000000001
1747851705023727379,-0.164
1747851705031413664,-0.164
1747851705039099949,-0.162
1747851705046786234,-0.157
1747851705054472519,-0.157
1747851705062158804,-0.16
1747851705069845089,-0.162
1747851705077531374,-0.162
1747851705085217659,-0.162
1747851705092903944,-0.16
1747851705100590229,-0.16
1747851705108276514,-0.169
1747851705115962799,-0.169
1747851705123649084,-0.157
1747851705131335369,-0.16
1747851705139021654,-0.167
1747851705146707939,-0.169
1747851705154394224,-0.167
1747851705162080509,-0.16
1747851705169766794,-0.145
1747851705177453079,-0.132
1747851705185139364,-0.123
1747851705192825649,-0.113
1747851705200511934,-0.1
1747851705208198219,-0.11
1747851705215884504,-0.145
1747851705223570789,-0.162
1747851705231257074,-0.15
1747851705238943359,-0.145
1747851705246629644,-0.147
1747851705254315929,-0.14
1747851705262002214,-0.13
1747851705269688499,-0.132
1747851705277374784,-0.147
1747851705285061069,-0.182
1747851705292747354,-0.241
1747851705300433639,-0.182
1747851705308119924,0.273
1747851705315806209,1.033
1747851705323492494,1.609
1747851705331178835,1.302
1747851705338865120,0.0
1747851705346551405,-0.792
1747851705354237690,-0.371
1747851705361923975,-0.091
1747851705369610260,-0.28300000000000003
1747851705377296545,-0.251
1747851705384982830,-0.14
1747851705392669115,-0.184
1747851705400355400,-0.187
1747851705408041685,-0.132
1747851705415727970,-0.125
1747851705423414255,-0.125
1747851705431100540,-0.096
1747851705438786825,-0.076
1747851705446473110,-0.061
1747851705454159395,-0.039
1747851705461845680,-0.017
1747851705469531965,0.007
1747851705477218250,0.034
1747851705484904535,0.064
1747851705492590820,0.093
1747851705500277105,0.11800000000000001
1747851705507963390,0.135
1747851705515649675,0.14
1747851705523335960,0.137
1747851705531022245,0.12
1747851705538708530,0.096
1747851705546394815,0.066
1747851705554081100,0.034
1747851705561767385,-0.002
1747851705569453670,-0.049
1747851705577139955,-0.098
1747851705584826240,-0.14200000000000002
1747851705592512525,-0.184
1747851705600198810,-0.216
1747851705607885095,-0.23600000000000002
1747851705615571380,-0.248
1747851705623257665,-0.253
1747851705630943950,-0.246
1747851705638630235,-0.23600000000000002
1747851705646316520,-0.228
1747851705654002805,-0.219
1747851705661689090,-0.209
1747851705669375375,-0.201
1747851705677061660,-0.194
1747851705684747945,-0.189
1747851705692434230,-0.184
1747851705700120515,-0.179
1747851705707806800,-0.177
1747851705715493085,-0.177
1747851705723179370,-0.177
1747851705730865655,-0.17400000000000002
1747851705738551940,-0.177
1747851705746238225,-0.179
1747851705753924510,-0.177
1747851705761610795,-0.177
1747851705769297080,-0.177
1747851705776983365,-0.179
1747851705784669650,-0.177
1747851705792355935,-0.17400000000000002
1747851705800042220,-0.17200000000000001
1747851705807728505,-0.169
1747851705815414790,-0.167
1747851705823101075,-0.17200000000000001
1747851705830787360,-0.177
1747851705838473645,-0.169
1747851705846159930,-0.152
1747851705853846215,-0.137
1747851705861532500,-0.13
1747851705869218785,-0.12
1747851705876905070,-0.105
1747851705884591355,-0.108
1747851705892277696,-0.14,86,700
1747851705899963981,-0.164
1747851705907650266,-0.157
1747851705915336551,-0.147
1747851705923022836,-0.147
1747851705930709121,-0.145
1747851705938395406,-0.14
1747851705946081691,-0.137
1747851705953767976,-0.147
1747851705961454261,-0.182
1747851705969140546,-0.246
1747851705976826831,-0.20600000000000002
1747851705984513116,0.20400000000000001
1747851705992199401,0.967
1747851705999885686,1.6460000000000001
1747851706007571971,1.472
1747851706015258256,0.155
1747851706022944541,-0.787
1747851706030630826,-0.40800000000000003
1747851706038317111,-0.064
1747851706046003396,-0.275
1747851706053689681,-0.28
1747851706061375966,-0.147
1747851706069062251,-0.184
1747851706076748536,-0.199
1747851706084434821,-0.14
1747851706092121106,-0.128
1747851706099807391,-0.128
1747851706107493676,-0.098
1747851706115179961,-0.078
1747851706122866246,-0.066
1747851706130552531,-0.044
1747851706138238816,-0.017
1747851706145925101,0.004
1747851706153611386,0.032
1747851706161297671,0.064
1747851706168983956,0.096
1747851706176670241,0.123
1747851706184356526,0.145
1747851706192042811,0.157
1747851706199729096,0.152
1747851706207415381,0.14
1747851706215101666,0.11800000000000001
1747851706222787951,0.091
1747851706230474236,0.059000000000000004
1747851706238160521,0.019
1747851706245846806,-0.024
1747851706253533091,-0.078
1747851706261219376,-0.13
1747851706268905661,-0.17400000000000002
1747851706276591946,-0.209
1747851706284278231,-0.233
1747851706291964516,-0.246
1747851706299650801,-0.246
1747851706307337086,-0.241
1747851706315023371,-0.233
1747851706322709656,-0.221
1747851706330395941,-0.211
1747851706338082226,-0.20400000000000001
1747851706345768511,-0.196
1747851706353454796,-0.189
1747851706361141081,-0.182
1747851706368827366,-0.179
1747851706376513651,-0.177
1747851706384199936,-0.17200000000000001
1747851706391886221,-0.17200000000000001
1747851706399572506,-0.17200000000000001
1747851706407258791,-0.169
1747851706414945076,-0.167
1747851706422631361,-0.169
1747851706430317646,-0.169
1747851706438003931,-0.167
1747851706445690216,-0.167
1747851706453376557,-0.167
1747851706461062842,-0.164
1747851706468749127,-0.162
1747851706476435412,-0.16
1747851706484121697,-0.16
1747851706491807982,-0.162
1747851706499494267,-0.167
1747851706507180552,-0.162
1747851706514866837,-0.147
1747851706522553122,-0.132
1747851706530239407,-0.123
1747851706537925692,-0.115
1747851706545611977,-0.1
1747851706553298262,-0.1
1747851706560984547,-0.132
1747851706568670832,-0.157
1747851706576357117,-0.15
1747851706584043402,-0.137
1747851706591729687,-0.135
1747851706599415972,-0.13
1747851706607102257,-0.125
1747851706614788542,-0.125
1747851706622474827,-0.132
1747851706630161112,-0.164
1747851706637847397,-0.228
1747851706645533682,-0.214
1747851706653219967,0.157
1747851706660906252,0.903
1747851706668592537,1.627
1747851706676278822,1.56
1747851706683965107,0.295
1747851706691651392,-0.76
1747851706699337677,-0.45
1747851706707023962,-0.046
1747851706714710247,-0.246
1747851706722396532,-0.278
1747851706730082817,-0.135
1747851706737769102,-0.164
1747851706745455387,-0.189
1747851706753141672,-0.125
1747851706760827957,-0.11
1747851706768514242,-0.113
1747851706776200527,-0.083
1747851706783886812,-0.059000000000000004
1747851706791573097,-0.046
1747851706799259382,-0.024
1747851706806945667,0.002
1747851706814631952,0.027
1747851706822318237,0.054
1747851706830004522,0.08600000000000001
1747851706837690807,0.11800000000000001
1747851706845377092,0.145
1747851706853063377,0.164
1747851706860749662,0.177
1747851706868435947,0.17400000000000002
1747851706876122232,0.16
1747851706883808517,0.137
1747851706891494802,0.108
1747851706899181087,0.076
1747851706906867372,0.039
1747851706914553657,-0.007
1747851706922239942,-0.061
1747851706929926227,-0.113
1747851706937612512,-0.157
1747851706945298797,-0.192
1747851706952985082,-0.216
1747851706960671367,-0.226
1747851706968357652,-0.228
1747851706976043937,-0.224
1747851706983730222,-0.216
1747851706991416507,-0.20600000000000002
1747851706999102792,-0.196
1747851707006789077,-0.189
1747851707014475422,-0.179,86,678
1747851707022161289,-0.17400000000000002,,667
1747851707029847156,-0.169
1747851707037533023,-0.164
1747851707045218890,-0.162
1747851707052904757,-0.16
1747851707060590624,-0.16
1747851707068276491,-0.16
1747851707075962358,-0.16
1747851707083648225,-0.157
1747851707091334092,-0.16
1747851707099019959,-0.16
1747851707106705826,-0.155
1747851707114391693,-0.152
1747851707122077560,-0.155
1747851707129763427,-0.157
1747851707137449294,-0.157
1747851707145135161,-0.152
1747851707152821028,-0.15
1747851707160506895,-0.155
1747851707168192762,-0.157
1747851707175878629,-0.155
1747851707183564496,-0.14200000000000002
1747851707191250363,-0.128
1747851707198936230,-0.115
1747851707206622097,-0.108
1747851707214307964,-0.098
1747851707221993831,-0.088
1747851707229679698,-0.1
1747851707237365565,-0.128
1747851707245051432,-0.137
1747851707252737299,-0.132
1747851707260423166,-0.13
1747851707268109033,-0.128
1747851707275794900,-0.115
1747851707283480767,-0.105
1747851707291166634,-0.12
1747851707298852501,-0.145
1747851707306538368,-0.192
1747851707314224235,-0.233
1747851707321910102,-0.046
1747851707329595969,0.5680000000000001
1747851707337281836,1.373
1747851707344967703,1.752
1747851707352653570,0.9470000000000001
1747851707360339437,-0.46
1747851707368025304,-0.7010000000000001
1747851707375711171,-0.128
1747851707383397038,-0.125
1747851707391082905,-0.302
1747851707398768772,-0.179
1747851707406454639,-0.125
1747851707414140506,-0.179
1747851707421826373,-0.14200000000000002
1747851707429512240,-0.096
1747851707437198107,-0.096
1747851707444883974,-0.08600000000000001
1747851707452569841,-0.059000000000000004
1747851707460255708,-0.034
1747851707467941575,-0.012
1747851707475627442,0.004
1747851707483313309,0.029
1747851707490999176,0.059000000000000004
1747851707498685043,0.088
1747851707506370910,0.11800000000000001
1747851707514056777,0.152
1747851707521742644,0.177
1747851707529428511,0.184
1747851707537114378,0.192
1747851707544800245,0.189
1747851707552486112,0.167
1747851707560171979,0.137
1747851707567857846,0.105
1747851707575543765,0.07100000000000001,86,677
1747851707583230050,0.032
1747851707590916335,-0.022
1747851707598602620,-0.078
1747851707606288905,-0.132
1747851707613975190,-0.17200000000000001
1747851707621661475,-0.196
1747851707629347760,-0.216
1747851707637034045,-0.228
1747851707644720330,-0.224
1747851707652406615,-0.214
1747851707660092900,-0.20600000000000002
1747851707667779185,-0.194
1747851707675465470,-0.184
1747851707683151755,-0.189
1747851707690838040,-0.184
1747851707698524325,-0.167
1747851707706210610,-0.157
1747851707713896895,-0.157
1747851707721583180,-0.157
1747851707729269465,-0.157
1747851707736955750,-0.152
1747851707744642035,-0.15
1747851707752328320,-0.15
1747851707760014605,-0.155
1747851707767700890,-0.157
1747851707775387175,-0.155
1747851707783073460,-0.157
1747851707790759745,-0.16
1747851707798446030,-0.16
1747851707806132315,-0.157
1747851707813818600,-0.152
1747851707821504885,-0.15
1747851707829191170,-0.157
1747851707836877455,-0.155
1747851707844563740,-0.13
1747851707852250025,-0.115
1747851707859936310,-0.113
1747851707867622595,-0.098
1747851707875308880,-0.091
1747851707882995165,-0.113
1747851707890681450,-0.14
1747851707898367735,-0.14200000000000002
1747851707906054020,-0.137
1747851707913740305,-0.14200000000000002
1747851707921426590,-0.137
1747851707929112875,-0.128
1747851707936799160,-0.123
1747851707944485445,-0.123
1747851707952171730,-0.135
1747851707959858015,-0.177
1747851707967544300,-0.241
1747851707975230585,-0.155
1747851707982916870,0.359
1747851707990603155,1.1420000000000001
1747851707998289440,1.6460000000000001
1747851708005975725,1.176
1747851708013662010,-0.157
1747851708021348295,-0.763
1747851708029034580,-0.28
1747851708036720865,-0.096
1747851708044407150,-0.28
1747851708052093435,-0.201
1747851708059779720,-0.115
1747851708067466005,-0.169
1747851708075152290,-0.155
1747851708082838575,-0.10300000000000001
1747851708090524860,-0.096
1747851708098211145,-0.083
1747851708105897430,-0.056
1747851708113583715,-0.044
1747851708121270000,-0.027
1747851708128956285,0.0
1747851708136642626,0.029
1747851708144328772,0.054
1747851708152014918,0.078
1747851708159701064,0.113
1747851708167387210,0.147
1747851708175073356,0.169
1747851708182759502,0.189
1747851708190445648,0.199
1747851708198131794,0.187
1747851708205817940,0.157
1747851708213504086,0.128
1747851708221190232,0.1
1747851708228876378,0.066
1747851708236562524,0.017
1747851708244248670,-0.032
1747851708251934816,-0.083
1747851708259620962,-0.135
1747851708267307108,-0.177
1747851708274993254,-0.209
1747851708282679400,-0.233
1747851708290365546,-0.23600000000000002
1747851708298051692,-0.233
1747851708305737838,-0.233
1747851708313423984,-0.226
1747851708321110130,-0.211
1747851708328796276,-0.201
1747851708336482422,-0.196
1747851708344168568,-0.192
1747851708351854714,-0.179
1747851708359540860,-0.17400000000000002
1747851708367227006,-0.17200000000000001
1747851708374913152,-0.167
1747851708382599298,-0.162
1747851708390285444,-0.162
1747851708397971590,-0.162
1747851708405657736,-0.162
1747851708413343882,-0.167
1747851708421030028,-0.17200000000000001
1747851708428716174,-0.169
1747851708436402320,-0.167
1747851708444088466,-0.169
1747851708451774612,-0.169
1747851708459460758,-0.169
1747851708467146904,-0.17200000000000001
1747851708474833050,-0.17400000000000002
1747851708482519196,-0.169
1747851708490205342,-0.155
1747851708497891488,-0.14
1747851708505577634,-0.132
1747851708513263780,-0.123
1747851708520949926,-0.113
1747851708528636072,-0.12
1747851708536322218,-0.155
1747851708544008364,-0.169
1747851708551694510,-0.16
1747851708559380656,-0.155
1747851708567066802,-0.152
1747851708574752948,-0.147
1747851708582439094,-0.14200000000000002
1747851708590125240,-0.145
1747851708597811386,-0.155
1747851708605497532,-0.192
1747851708613183678,-0.246
1747851708620869824,-0.147
1747851708628555970,0.359
1747851708636242116,1.122
1747851708643928262,1.624
1747851708651614408,1.149
1747851708659300554,-0.201
1747851708666986700,-0.797
1747851708674672846,-0.292
1747851708682358992,-0.105
1747851708690045138,-0.305
1747851708697731317,-0.23600000000000002,87,669
1747851708705417324,-0.145,,672
1747851708713103331,-0.196
1747851708720789338,-0.179
1747851708728475345,-0.128
1747851708736161352,-0.13
1747851708743847359,-0.125
1747851708751533366,-0.093
1747851708759219373,-0.076
1747851708766905380,-0.064
1747851708774591387,-0.036000000000000004
1747851708782277394,-0.012
1747851708789963401,0.012
1747851708797649408,0.041
1747851708805335415,0.07100000000000001
1747851708813021422,0.1
1747851708820707429,0.125
1747851708828393436,0.14
1747851708836079443,0.145
1747851708843765450,0.135
1747851708851451457,0.115
1747851708859137464,0.091
1747851708866823471,0.061
1747851708874509478,0.027
1747851708882195485,-0.012
1747851708889881492,-0.064
1747851708897567499,-0.11800000000000001
1747851708905253506,-0.16
1747851708912939513,-0.196
1747851708920625520,-0.226
1747851708928311527,-0.243
1747851708935997534,-0.248
1747851708943683541,-0.246
1747851708951369548,-0.23800000000000002
1747851708959055555,-0.228
1747851708966741562,-0.219
1747851708974427569,-0.209
1747851708982113576,-0.201
1747851708989799583,-0.194
1747851708997485590,-0.187
1747851709005171597,-0.179
1747851709012857604,-0.177
1747851709020543611,-0.177
1747851709028229618,-0.17400000000000002
1747851709035915625,-0.17400000000000002
1747851709043601632,-0.17400000000000002
1747851709051287639,-0.17400000000000002
1747851709058973646,-0.17400000000000002
1747851709066659653,-0.17400000000000002
1747851709074345660,-0.17400000000000002
1747851709082031667,-0.17400000000000002
1747851709089717674,-0.17400000000000002
1747851709097403681,-0.17400000000000002
1747851709105089688,-0.17400000000000002
1747851709112775695,-0.17400000000000002
1747851709120461702,-0.179
1747851709128147709,-0.184
1747851709135833716,-0.17400000000000002
1747851709143519723,-0.157
1747851709151205730,-0.145
1747851709158891737,-0.137
1747851709166577744,-0.128
1747851709174263751,-0.115
1747851709181949758,-0.125
1747851709189635765,-0.16
1747851709197321772,-0.17400000000000002
1747851709205007779,-0.164
1747851709212693786,-0.155
1747851709220379793,-0.155
1747851709228065800,-0.15
1747851709235751807,-0.145
1747851709243437814,-0.145
1747851709251123821,-0.157
1747851709258809830,-0.196
1747851709266496115,-0.258
1747851709274182400,-0.169
1747851709281868685,0.327
1747851709289554970,1.12
1747851709297241255,1.693
1747851709304927540,1.2530000000000001
1747851709312613825,-0.147
1747851709320300110,-0.797
1747851709327986395,-0.292
1747851709335672680,-0.096
1747851709343358965,-0.315
1747851709351045250,-0.256
1747851709358731535,-0.15
1747851709366417820,-0.201
1747851709374104105,-0.194
1747851709381790390,-0.135
1747851709389476675,-0.132
1747851709397162960,-0.125
1747851709404849245,-0.093
1747851709412535530,-0.073
1747851709420221815,-0.059000000000000004
1747851709427908100,-0.034
1747851709435594385,-0.009000000000000001
1747851709443280670,0.017
1747851709450966955,0.046
1747851709458653240,0.078
1747851709466339525,0.108
1747851709474025810,0.135
1747851709481712095,0.155
1747851709489398380,0.162
1747851709497084665,0.155
1747851709504770950,0.137
1747851709512457235,0.113
1747851709520143520,0.083
1747851709527829805,0.049
1747851709535516090,0.004
1747851709543202375,-0.044
1747851709550888660,-0.1
1747851709558574945,-0.152
1747851709566261230,-0.192
1747851709573947515,-0.221
1747851709581633800,-0.23800000000000002
1747851709589320085,-0.246
1747851709597006370,-0.243
1747851709604692655,-0.23600000000000002
1747851709612378940,-0.228
1747851709620065225,-0.216
1747851709627751510,-0.209
1747851709635437795,-0.199
1747851709643124080,-0.192
1747851709650810365,-0.187
1747851709658496650,-0.184
1747851709666182935,-0.182
1747851709673869220,-0.179
1747851709681555505,-0.179
1747851709689241790,-0.177
1747851709696928075,-0.177
1747851709704614360,-0.17400000000000002
1747851709712300645,-0.177
1747851709719986930,-0.17400000000000002
1747851709727673215,-0.17400000000000002
1747851709735359500,-0.177
1747851709743045785,-0.17400000000000002
1747851709750732070,-0.17400000000000002
1747851709758418355,-0.17200000000000001
1747851709766104640,-0.17200000000000001
1747851709773790925,-0.177
1747851709781477210,-0.179
1747851709789163495,-0.17200000000000001
1747851709796849780,-0.157
1747851709804536065,-0.14
1747851709812222350,-0.132
1747851709819908691,-0.125,87,655
1747851709827594976,-0.113
1747851709835281261,-0.11800000000000001
1747851709842967546,-0.155
1747851709850653831,-0.17200000000000001
1747851709858340116,-0.16
1747851709866026401,-0.155
1747851709873712686,-0.155
1747851709881398971,-0.147
1747851709889085256,-0.14200000000000002
1747851709896771541,-0.14200000000000002
1747851709904457826,-0.152
1747851709912144111,-0.194
1747851709919830396,-0.253
1747851709927516681,-0.152
1747851709935202966,0.359
1747851709942889251,1.159
1747851709950575536,1.72
1747851709958261821,1.228
1747851709965948106,-0.196
1747851709973634391,-0.792
1747851709981320676,-0.265
1747851709989006961,-0.098
1747851709996693246,-0.312
1747851710004379531,-0.23800000000000002
1747851710012065816,-0.145
1747851710019752101,-0.199
1747851710027438386,-0.184
1747851710035124671,-0.128
1747851710042810956,-0.128
1747851710050497241,-0.123
1747851710058183526,-0.091
1747851710065869811,-0.07100000000000001
1747851710073556096,-0.056
1747851710081242381,-0.029
1747851710088928666,-0.002
1747851710096614951,0.022
1747851710104301236,0.054
1747851710111987521,0.08600000000000001
1747851710119673806,0.115
1747851710127360091,0.14200000000000002
1747851710135046376,0.162
1747851710142732661,0.167
1747851710150418946,0.157
1747851710158105231,0.14
1747851710165791516,0.113
1747851710173477801,0.081
1747851710181164086,0.046
1747851710188850371,0.004
1747851710196536656,-0.046
1747851710204222941,-0.10300000000000001
1747851710211909226,-0.152
1747851710219595511,-0.192
1747851710227281796,-0.219
1747851710234968081,-0.23800000000000002
1747851710242654366,-0.246
1747851710250340651,-0.243
1747851710258026936,-0.233
1747851710265713221,-0.224
1747851710273399506,-0.214
1747851710281085791,-0.20400000000000001
1747851710288772076,-0.196
1747851710296458361,-0.189
1747851710304144646,-0.187
1747851710311830931,-0.182
1747851710319517216,-0.179
1747851710327203501,-0.177
1747851710334889786,-0.177
1747851710342576071,-0.17400000000000002
1747851710350262356,-0.17200000000000001
1747851710357948641,-0.17200000000000001
1747851710365634926,-0.17200000000000001
1747851710373321211,-0.17200000000000001
1747851710381007556,-0.17200000000000001
1747851710388693563,-0.17200000000000001
1747851710396379570,-0.17200000000000001
1747851710404065577,-0.17200000000000001
1747851710411751584,-0.169
1747851710419437591,-0.169
1747851710427123598,-0.17400000000000002
1747851710434809605,-0.179
1747851710442495612,-0.17400000000000002
1747851710450181619,-0.162
1747851710457867626,-0.145
1747851710465553633,-0.135
1747851710473239640,-0.128
1747851710480925647,-0.113
1747851710488611654,-0.11
1747851710496297661,-0.14200000000000002
1747851710503983668,-0.169
1747851710511669675,-0.162
1747851710519355682,-0.147
1747851710527041689,-0.145
1747851710534727696,-0.14200000000000002
1747851710542413703,-0.135
1747851710550099710,-0.135
1747851710557785717,-0.145
1747851710565471724,-0.17200000000000001
1747851710573157731,-0.231
1747851710580843738,-0.216
1747851710588529745,0.14
1747851710596215752,0.873
1747851710603901759,1.602
1747851710611587766,1.555
1747851710619273773,0.302
1747851710626959780,-0.765
1747851710634645787,-0.47200000000000003
1747851710642331794,-0.07100000000000001
1747851710650017801,-0.263
1747851710657703808,-0.28800000000000003
1747851710665389815,-0.147
1747851710673075822,-0.177
1747851710680761829,-0.201
1747851710688447836,-0.137
1747851710696133843,-0.123
1747851710703819850,-0.13
1747851710711505857,-0.1
1747851710719191864,-0.07100000000000001
1747851710726877871,-0.056
1747851710734563878,-0.034
1747851710742249885,-0.004
1747851710749935892,0.024
1747851710757621899,0.056
1747851710765307906,0.08600000000000001
1747851710772993913,0.11
1747851710780679920,0.14
1747851710788365927,0.164
1747851710796051934,0.17200000000000001
1747851710803737941,0.17200000000000001
1747851710811423948,0.155
1747851710819109955,0.128
1747851710826795962,0.098
1747851710834481969,0.07100000000000001
1747851710842167976,0.032
1747851710849853983,-0.014
1747851710857539990,-0.073
1747851710865225997,-0.128
1747851710872912004,-0.167
1747851710880598011,-0.192
1747851710888284018,-0.216
1747851710895970025,-0.228
1747851710903656032,-0.224
1747851710911342039,-0.216
1747851710919028046,-0.221
1747851710926714053,-0.214
1747851710934400060,-0.196
1747851710942086073,-0.187,89,646
1747851710949772219,-0.182,,653
1747851710957458365,-0.17400000000000002
1747851710965144511,-0.17200000000000001
1747851710972830657,-0.167
1747851710980516803,-0.16
1747851710988202949,-0.16
1747851710995889095,-0.162
1747851711003575241,-0.157
1747851711011261387,-0.15
1747851711018947533,-0.157
1747851711026633679,-0.164
1747851711034319825,-0.164
1747851711042005971,-0.162
1747851711049692117,-0.16
1747851711057378263,-0.155
1747851711065064409,-0.157
1747851711072750555,-0.162
1747851711080436701,-0.157
1747851711088122847,-0.16
1747851711095808993,-0.164
1747851711103495139,-0.16
1747851711111181285,-0.14
1747851711118867431,-0.11800000000000001
1747851711126553577,-0.113
1747851711134239723,-0.108
1747851711141925869,-0.096
1747851711149612015,-0.105
1747851711157298161,-0.137
1747851711164984307,-0.152
1747851711172670453,-0.147
1747851711180356599,-0.14200000000000002
1747851711188042745,-0.13
1747851711195728891,-0.13
1747851711203415037,-0.132
1747851711211101183,-0.125
1747851711218787329,-0.135
1747851711226473475,-0.179
1747851711234159621,-0.23600000000000002
1747851711241845767,-0.145
1747851711249531913,0.34700000000000003
1747851711257218059,1.129
1747851711264904205,1.701
1747851711272590351,1.2650000000000001
1747851711280276497,-0.137
1747851711287962643,-0.785
1747851711295648789,-0.273
1747851711303334935,-0.083
1747851711311021081,-0.28800000000000003
1747851711318707227,-0.209
1747851711326393373,-0.11800000000000001
1747851711334079519,-0.17400000000000002
1747851711341765665,-0.155
1747851711349451811,-0.1
1747851711357137957,-0.11
1747851711364824103,-0.096
1747851711372510249,-0.054
1747851711380196395,-0.041
1747851711387882541,-0.027
1747851711395568687,0.002
1747851711403254833,0.032
1747851711410940979,0.059000000000000004
1747851711418627125,0.088
1747851711426313271,0.115
1747851711433999417,0.145
1747851711441685563,0.177
1747851711449371709,0.189
1747851711457057855,0.187
1747851711464744001,0.184
1747851711472430147,0.164
1747851711480116293,0.132
1747851711487802439,0.105
1747851711495488585,0.076
1747851711503174760,0.027,89,653
1747851711510861045,-0.034
1747851711518547330,-0.08600000000000001
1747851711526233615,-0.123
1747851711533919900,-0.162
1747851711541606185,-0.201
1747851711549292470,-0.224
1747851711556978755,-0.226
1747851711564665040,-0.228
1747851711572351325,-0.221
1747851711580037610,-0.20600000000000002
1747851711587723895,-0.20600000000000002
1747851711595410180,-0.20400000000000001
1747851711603096465,-0.187
1747851711610782750,-0.17400000000000002
1747851711618469035,-0.17400000000000002
1747851711626155320,-0.169
1747851711633841605,-0.157
1747851711641527890,-0.15
1747851711649214175,-0.155
1747851711656900460,-0.16
1747851711664586745,-0.155
1747851711672273030,-0.15
1747851711679959315,-0.16
1747851711687645600,-0.169
1747851711695331885,-0.169
1747851711703018170,-0.162
1747851711710704455,-0.16
1747851711718390740,-0.162
1747851711726077025,-0.162
1747851711733763310,-0.162
1747851711741449595,-0.164
1747851711749135880,-0.164
1747851711756822165,-0.15
1747851711764508450,-0.128
1747851711772194735,-0.123
1747851711779881020,-0.123
1747851711787567305,-0.105
1747851711795253590,-0.108
1747851711802939875,-0.15
1747851711810626160,-0.169
1747851711818312445,-0.152
1747851711825998730,-0.14200000000000002
1747851711833685015,-0.147
1747851711841371300,-0.145
1747851711849057585,-0.13
1747851711856743870,-0.128
1747851711864430155,-0.15
1747851711872116440,-0.184
1747851711879802725,-0.233
1747851711887489010,-0.16
1747851711895175295,0.315
1747851711902861580,1.09
1747851711910547865,1.629
1747851711918234150,1.218
1747851711925920435,-0.108
1747851711933606720,-0.78
1747851711941293005,-0.322
1747851711948979290,-0.105
1747851711956665575,-0.29
1747851711964351860,-0.228
1747851711972038145,-0.132
1747851711979724430,-0.179
1747851711987410715,-0.169
1747851711995097000,-0.115
1747851712002783285,-0.113
1747851712010469570,-0.11
1747851712018155855,-0.078
1747851712025842140,-0.056
1747851712033528425,-0.046
1747851712041214710,-0.024
1747851712048900995,0.004
1747851712056587280,0.029
1747851712064273621,0.059000000000000004
1747851712071959906,0.091
1747851712079646191,0.11800000000000001
1747851712087332476,0.14200000000000002
1747851712095018761,0.157
1747851712102705046,0.155
1747851712110391331,0.14
1747851712118077616,0.123
1747851712125763901,0.093
1747851712133450186,0.061
1747851712141136471,0.027
1747851712148822756,-0.014
1747851712156509041,-0.066
1747851712164195326,-0.11800000000000001
1747851712171881611,-0.162
1747851712179567896,-0.201
1747851712187254181,-0.231
1747851712194940466,-0.248
1747851712202626751,-0.253
1747851712210313036,-0.253
1747851712217999321,-0.248
1747851712225685606,-0.23600000000000002
1747851712233371891,-0.228
1747851712241058176,-0.219
1747851712248744461,-0.20600000000000002
1747851712256430746,-0.196
1747851712264117031,-0.192
1747851712271803316,-0.187
1747851712279489601,-0.179
1747851712287175886,-0.177
1747851712294862171,-0.177
1747851712302548456,-0.17400000000000002
1747851712310234741,-0.177
1747851712317921026,-0.179
1747851712325607311,-0.179
1747851712333293596,-0.179
1747851712340979881,-0.179
1747851712348666166,-0.182
1747851712356352451,-0.184
1747851712364038736,-0.184
1747851712371725021,-0.179
1747851712379411306,-0.179
1747851712387097591,-0.184
1747851712394783876,-0.189
1747851712402470161,-0.187
1747851712410156446,-0.17400000000000002
1747851712417842731,-0.16
1747851712425529016,-0.147
1747851712433215301,-0.14
1747851712440901586,-0.125
1747851712448587871,-0.12
1747851712456274156,-0.14200000000000002
1747851712463960441,-0.177
1747851712471646726,-0.177
1747851712479333011,-0.162
1747851712487019296,-0.16
1747851712494705581,-0.157
1747851712502391866,-0.147
1747851712510078151,-0.145
1747851712517764436,-0.15
1747851712525450721,-0.17200000000000001
1747851712533137006,-0.231
1747851712540823291,-0.251
1747851712548509576,0.029
1747851712556195861,0.711
1747851712563882146,1.472
1747851712571568431,1.637
1747851712579254716,0.59
1747851712586941001,-0.662
1747851712594627286,-0.6
1747851712602313571,-0.093
1747851712609999856,-0.211
1747851712617686141,-0.32
1747851712625372482,-0.177,90,656
1747851712633058349,-0.169,,658
1747851712640744216,-0.214
1747851712648430083,-0.162
1747851712656115950,-0.13
1747851712663801817,-0.137
1747851712671487684,-0.115
1747851712679173551,-0.088
1747851712686859418,-0.076
1747851712694545285,-0.054
1747851712702231152,-0.027
1747851712709917019,-0.002
1747851712717602886,0.027
1747851712725288753,0.059000000000000004
1747851712732974620,0.091
1747851712740660487,0.12
1747851712748346354,0.14200000000000002
1747851712756032221,0.155
1747851712763718088,0.157
1747851712771403955,0.145
1747851712779089822,0.123
1747851712786775689,0.096
1747851712794461556,0.064
1747851712802147423,0.022
1747851712809833290,-0.027
1747851712817519157,-0.081
1747851712825205024,-0.135
1747851712832890891,-0.182
1747851712840576758,-0.216
1747851712848262625,-0.23800000000000002
1747851712855948492,-0.251
1747851712863634359,-0.251
1747851712871320226,-0.246
1747851712879006093,-0.23800000000000002
1747851712886691960,-0.226
1747851712894377827,-0.219
1747851712902063694,-0.209
1747851712909749561,-0.199
1747851712917435428,-0.194
1747851712925121295,-0.189
1747851712932807162,-0.187
1747851712940493029,-0.182
1747851712948178896,-0.179
1747851712955864763,-0.179
1747851712963550630,-0.179
1747851712971236497,-0.177
1747851712978922364,-0.177
1747851712986608231,-0.177
1747851712994294098,-0.177
1747851713001979965,-0.177
1747851713009665832,-0.177
1747851713017351699,-0.177
1747851713025037566,-0.177
1747851713032723433,-0.17400000000000002
1747851713040409300,-0.17200000000000001
1747851713048095167,-0.177
1747851713055781034,-0.182
1747851713063466901,-0.177
1747851713071152768,-0.164
1747851713078838635,-0.147
1747851713086524502,-0.137
1747851713094210369,-0.13
1747851713101896236,-0.115
1747851713109582103,-0.115
1747851713117267970,-0.145
1747851713124953837,-0.169
1747851713132639704,-0.164
1747851713140325571,-0.152
1747851713148011438,-0.15
1747851713155697305,-0.147
1747851713163383172,-0.14
1747851713171069039,-0.137
1747851713178754906,-0.145
1747851713186440825,-0.17400000000000002
1747851713194127110,-0.23800000000000002
1747851713201813395,-0.233
1747851713209499680,0.108
1747851713217185965,0.841
1747851713224872250,1.59
1747851713232558535,1.6
1747851713240244820,0.384
1747851713247931105,-0.748
1747851713255617390,-0.512
1747851713263303675,-0.073
1747851713270989960,-0.253
1747851713278676245,-0.307
1747851713286362530,-0.162
1747851713294048815,-0.177
1747851713301735100,-0.209
1747851713309421385,-0.15
1747851713317107670,-0.128
1747851713324793955,-0.13
1747851713332480240,-0.10300000000000001
1747851713340166525,-0.076
1747851713347852810,-0.061
1747851713355539095,-0.036000000000000004
1747851713363225380,-0.009000000000000001
1747851713370911665,0.017
1747851713378597950,0.044
1747851713386284235,0.076
1747851713393970520,0.11
1747851713401656805,0.14
1747851713409343090,0.162
1747851713417029375,0.17400000000000002
1747851713424715660,0.169
1747851713432401945,0.155
1747851713440088230,0.13
1747851713447774515,0.10300000000000001
1747851713455460800,0.07100000000000001
1747851713463147085,0.029
1747851713470833370,-0.022
1747851713478519655,-0.078
1747851713486205940,-0.132
1747851713493892225,-0.179
1747851713501578510,-0.209
1747851713509264795,-0.231
1747851713516951080,-0.243
1747851713524637365,-0.246
1747851713532323650,-0.23800000000000002
1747851713540009935,-0.231
1747851713547696220,-0.221
1747851713555382505,-0.209
1747851713563068790,-0.199
1747851713570755075,-0.194
1747851713578441360,-0.189
1747851713586127645,-0.184
1747851713593813930,-0.179
1747851713601500215,-0.177
1747851713609186500,-0.17400000000000002
1747851713616872785,-0.17200000000000001
1747851713624559070,-0.17200000000000001
1747851713632245355,-0.169
1747851713639931640,-0.169
1747851713647617925,-0.17200000000000001
1747851713655304210,-0.17200000000000001
1747851713662990495,-0.17200000000000001
1747851713670676780,-0.17200000000000001
1747851713678363065,-0.169
1747851713686049350,-0.169
1747851713693735635,-0.169
1747851713701421920,-0.169
1747851713709108205,-0.167
1747851713716794490,-0.169
1747851713724480775,-0.17400000000000002
1747851713732167060,-0.17200000000000001
1747851713739853345,-0.16
1747851713747539690,-0.14200000000000002,90,646
1747851713755225975,-0.128
1747851713762912260,-0.12
1747851713770598545,-0.113
1747851713778284830,-0.11
1747851713785971115,-0.132
1747851713793657400,-0.162
1747851713801343685,-0.162
1747851713809029970,-0.15
1747851713816716255,-0.147
1747851713824402540,-0.145
1747851713832088825,-0.14
1747851713839775110,-0.137
1747851713847461395,-0.14200000000000002
1747851713855147680,-0.164
1747851713862833965,-0.221
1747851713870520250,-0.256
1747851713878206535,-0.022
1747851713885892820,0.627
1747851713893579105,1.427
1747851713901265390,1.725
1747851713908951675,0.782
1747851713916637960,-0.5760000000000001
1747851713924324245,-0.654
1747851713932010530,-0.105
1747851713939696815,-0.177
1747851713947383100,-0.317
1747851713955069385,-0.179
1747851713962755670,-0.155
1747851713970441955,-0.201
1747851713978128240,-0.152
1747851713985814525,-0.11800000000000001
1747851713993500810,-0.123
1747851714001187095,-0.1
1747851714008873380,-0.07100000000000001
1747851714016559665,-0.059000000000000004
1747851714024245950,-0.036000000000000004
1747851714031932235,-0.009000000000000001
1747851714039618520,0.014
1747851714047304805,0.044
1747851714054991090,0.073
1747851714062677375,0.105
1747851714070363660,0.135
1747851714078049945,0.16
1747851714085736230,0.17400000000000002
1747851714093422515,0.17400000000000002
1747851714101108800,0.162
1747851714108795085,0.14
1747851714116481370,0.113
1747851714124167655,0.081
1747851714131853940,0.044
1747851714139540225,-0.002
1747851714147226510,-0.054
1747851714154912795,-0.108
1747851714162599080,-0.155
1747851714170285365,-0.192
1747851714177971650,-0.219
1747851714185657935,-0.233
1747851714193344220,-0.23600000000000002
1747851714201030505,-0.233
1747851714208716790,-0.224
1747851714216403075,-0.216
1747851714224089360,-0.209
1747851714231775645,-0.196
1747851714239461930,-0.187
1747851714247148215,-0.182
1747851714254834500,-0.179
1747851714262520785,-0.177
1747851714270207070,-0.17200000000000001
1747851714277893355,-0.167
1747851714285579640,-0.167
1747851714293265925,-0.164
1747851714300952210,-0.167
1747851714308638551,-0.167
1747851714316324627,-0.167
1747851714324010703,-0.167
1747851714331696779,-0.167
1747851714339382855,-0.167
1747851714347068931,-0.167
1747851714354755007,-0.167
1747851714362441083,-0.167
1747851714370127159,-0.162
1747851714377813235,-0.16
1747851714385499311,-0.16
1747851714393185387,-0.164
1747851714400871463,-0.167
1747851714408557539,-0.167
1747851714416243615,-0.152
1747851714423929691,-0.13
1747851714431615767,-0.11
1747851714439301843,-0.10300000000000001
1747851714446987919,-0.1
1747851714454673995,-0.108
1747851714462360071,-0.135
1747851714470046147,-0.157
1747851714477732223,-0.152
1747851714485418299,-0.145
1747851714493104375,-0.14200000000000002
1747851714500790451,-0.14
1747851714508476527,-0.132
1747851714516162603,-0.13
1747851714523848679,-0.14
1747851714531534755,-0.167
1747851714539220831,-0.231
1747851714546906907,-0.226
1747851714554592983,0.105
1747851714562279059,0.8240000000000001
1747851714569965135,1.577
1747851714577651211,1.622
1747851714585337287,0.42
1747851714593023363,-0.738
1747851714600709439,-0.514
1747851714608395515,-0.066
1747851714616081591,-0.241
1747851714623767667,-0.3
1747851714631453743,-0.157
1747851714639139819,-0.17200000000000001
1747851714646825895,-0.20400000000000001
1747851714654511971,-0.145
1747851714662198047,-0.12
1747851714669884123,-0.123
1747851714677570199,-0.093
1747851714685256275,-0.061
1747851714692942351,-0.046
1747851714700628427,-0.027
1747851714708314503,-0.002
1747851714716000579,0.019
1747851714723686655,0.049
1747851714731372731,0.083
1747851714739058807,0.11
1747851714746744883,0.137
1747851714754430959,0.16
1747851714762117035,0.17400000000000002
1747851714769803111,0.17400000000000002
1747851714777489187,0.155
1747851714785175263,0.135
1747851714792861339,0.11
1747851714800547415,0.068
1747851714808233491,0.027
1747851714815919567,-0.012
1747851714823605643,-0.064
1747851714831291719,-0.11800000000000001
1747851714838977795,-0.167
1747851714846663871,-0.20400000000000001
1747851714854349947,-0.224
1747851714862036023,-0.231
1747851714869722155,-0.23800000000000002,91,657
1747851714877408231,-0.241,,660
1747851714885094307,-0.228
1747851714892780383,-0.214
1747851714900466459,-0.201
1747851714908152535,-0.194
1747851714915838611,-0.192
1747851714923524687,-0.182
1747851714931210763,-0.169
1747851714938896839,-0.164
1747851714946582915,-0.169
1747851714954268991,-0.169
1747851714961955067,-0.167
1747851714969641143,-0.164
1747851714977327219,-0.167
1747851714985013295,-0.167
1747851714992699371,-0.16
1747851715000385447,-0.16
1747851715008071523,-0.17400000000000002
1747851715015757599,-0.177
1747851715023443675,-0.169
1747851715031129751,-0.167
1747851715038815827,-0.164
1747851715046501903,-0.157
1747851715054187979,-0.167
1747851715061874055,-0.17200000000000001
1747851715069560131,-0.155
1747851715077246207,-0.14
1747851715084932283,-0.13
1747851715092618359,-0.123
1747851715100304435,-0.11
1747851715107990511,-0.098
1747851715115676587,-0.10300000000000001
1747851715123362663,-0.14
1747851715131048739,-0.164
1747851715138734815,-0.15
1747851715146420891,-0.137
1747851715154106967,-0.14
1747851715161793043,-0.13
1747851715169479119,-0.123
1747851715177165195,-0.128
1747851715184851271,-0.132
1747851715192537347,-0.162
1747851715200223423,-0.233
1747851715207909499,-0.196
1747851715215595575,0.246
1747851715223281651,1.036
1747851715230967727,1.671
1747851715238653803,1.393
1747851715246339879,0.061
1747851715254025955,-0.782
1747851715261712031,-0.376
1747851715269398107,-0.083
1747851715277084183,-0.273
1747851715284770259,-0.23800000000000002
1747851715292456335,-0.123
1747851715300142411,-0.162
1747851715307828487,-0.167
1747851715315514563,-0.113
1747851715323200639,-0.10300000000000001
1747851715330886715,-0.096
1747851715338572791,-0.064
1747851715346258867,-0.039
1747851715353944943,-0.022
1747851715361631019,0.004
1747851715369317095,0.027
1747851715377003171,0.044
1747851715384689247,0.078
1747851715392375323,0.123
1747851715400061399,0.15
1747851715407747475,0.17400000000000002
1747851715415433551,0.209
1747851715423119627,0.209
1747851715430805755,0.189
1747851715438492040,0.17400000000000002
1747851715446178325,0.147
1747851715453864610,0.108
1747851715461550895,0.083
1747851715469237180,0.041
1747851715476923465,-0.027
1747851715484609750,-0.081
1747851715492296035,-0.12
1747851715499982320,-0.17200000000000001
1747851715507668605,-0.221
1747851715515354890,-0.243
1747851715523041175,-0.246
1747851715530727460,-0.23800000000000002
1747851715538413745,-0.23800000000000002
1747851715546100030,-0.233
1747851715553786315,-0.221
1747851715561472600,-0.20400000000000001
1747851715569158885,-0.194
1747851715576845170,-0.184
1747851715584531455,-0.179
1747851715592217740,-0.17400000000000002
1747851715599904025,-0.164
1747851715607590310,-0.152
1747851715615276595,-0.152
1747851715622962880,-0.162
1747851715630649165,-0.162
1747851715638335450,-0.152
1747851715646021735,-0.157
1747851715653708020,-0.162
1747851715661394305,-0.16
1747851715669080590,-0.152
1747851715676766875,-0.157
1747851715684453160,-0.162
1747851715692139445,-0.162
1747851715699825730,-0.164
1747851715707512015,-0.167
1747851715715198300,-0.16
1747851715722884585,-0.137
1747851715730570870,-0.12
1747851715738257155,-0.11800000000000001
1747851715745943440,-0.113
1747851715753629725,-0.105
1747851715761316010,-0.13
1747851715769002295,-0.164
1747851715776688580,-0.16
1747851715784374865,-0.147
1747851715792061150,-0.147
1747851715799747435,-0.145
1747851715807433720,-0.137
1747851715815120005,-0.135
1747851715822806290,-0.14
1747851715830492575,-0.162
1747851715838178860,-0.219
1747851715845865145,-0.231
1747851715853551430,0.073
1747851715861237715,0.78
1747851715868924000,1.484
1747851715876610285,1.5230000000000001
1747851715884296570,0.452
1747851715891982855,-0.684
1747851715899669140,-0.5660000000000001
1747851715907355425,-0.115
1747851715915041710,-0.231
1747851715922727995,-0.28500000000000003
1747851715930414280,-0.152
1747851715938100565,-0.164
1747851715945786850,-0.192
1747851715953473135,-0.137
1747851715961159420,-0.115
1747851715968845705,-0.12
1747851715976531990,-0.098
1747851715984218275,-0.073
1747851715991904616,-0.059000000000000004,91,671
1747851715999590901,-0.036000000000000004
1747851716007277186,-0.012
1747851716014963471,0.012
1747851716022649756,0.041
1747851716030336041,0.073
1747851716038022326,0.1
1747851716045708611,0.128
1747851716053394896,0.147
1747851716061081181,0.155
1747851716068767466,0.15
1747851716076453751,0.132
1747851716084140036,0.108
1747851716091826321,0.076
1747851716099512606,0.039
1747851716107198891,-0.002
1747851716114885176,-0.054
1747851716122571461,-0.108
1747851716130257746,-0.157
1747851716137944031,-0.199
1747851716145630316,-0.231
1747851716153316601,-0.251
1747851716161002886,-0.26
1747851716168689171,-0.263
1747851716176375456,-0.258
1747851716184061741,-0.246
1747851716191748026,-0.23800000000000002
1747851716199434311,-0.228
1747851716207120596,-0.219
1747851716214806881,-0.209
1747851716222493166,-0.20400000000000001
1747851716230179451,-0.194
1747851716237865736,-0.187
1747851716245552021,-0.182
1747851716253238306,-0.179
1747851716260924591,-0.17400000000000002
1747851716268610876,-0.177
1747851716276297161,-0.179
1747851716283983446,-0.177
1747851716291669731,-0.179
1747851716299356016,-0.182
1747851716307042301,-0.182
1747851716314728586,-0.182
1747851716322414871,-0.182
1747851716330101156,-0.179
1747851716337787441,-0.179
1747851716345473726,-0.187
1747851716353160011,-0.187
1747851716360846296,-0.177
1747851716368532581,-0.164
1747851716376218866,-0.152
1747851716383905151,-0.14200000000000002
1747851716391591436,-0.132
1747851716399277721,-0.12
1747851716406964006,-0.128
1747851716414650291,-0.162
1747851716422336576,-0.179
1747851716430022861,-0.169
1747851716437709146,-0.16
1747851716445395431,-0.157
1747851716453081716,-0.155
1747851716460768001,-0.147
1747851716468454286,-0.15
1747851716476140571,-0.164
1747851716483826856,-0.20600000000000002
1747851716491513141,-0.26
1747851716499199426,-0.145
1747851716506885711,0.379
1747851716514571996,1.171
1747851716522258281,1.696
1747851716529944566,1.166
1747851716537630851,-0.23800000000000002
1747851716545317136,-0.782
1747851716553003477,-0.251,90,675
1747851716560689762,-0.105,,659
1747851716568376047,-0.32
1747851716576062332,-0.243
1747851716583748617,-0.152
1747851716591434902,-0.20600000000000002
1747851716599121187,-0.189
1747851716606807472,-0.135
1747851716614493757,-0.135
1747851716622180042,-0.128
1747851716629866327,-0.096
1747851716637552612,-0.078
1747851716645238897,-0.061
1747851716652925182,-0.034
1747851716660611467,-0.007
1747851716668297752,0.017
1747851716675984037,0.051000000000000004
1747851716683670322,0.083
1747851716691356607,0.115
1747851716699042892,0.14200000000000002
1747851716706729177,0.164
1747851716714415462,0.169
1747851716722101747,0.16
1747851716729788032,0.14200000000000002
1747851716737474317,0.115
1747851716745160602,0.08600000000000001
1747851716752846887,0.049
1747851716760533172,0.0
1747851716768219457,-0.059000000000000004
1747851716775905742,-0.12
1747851716783592027,-0.17200000000000001
1747851716791278312,-0.211
1747851716798964597,-0.241
1747851716806650882,-0.253
1747851716814337167,-0.258
1747851716822023452,-0.253
1747851716829709737,-0.246
1747851716837396022,-0.233
1747851716845082307,-0.224
1747851716852768592,-0.214
1747851716860454877,-0.20600000000000002
1747851716868141162,-0.199
1747851716875827447,-0.194
1747851716883513732,-0.189
1747851716891200017,-0.187
1747851716898886302,-0.184
1747851716906572587,-0.182
1747851716914258872,-0.182
1747851716921945157,-0.182
1747851716929631442,-0.182
1747851716937317727,-0.179
1747851716945004012,-0.179
1747851716952690297,-0.179
1747851716960376582,-0.182
1747851716968062867,-0.179
1747851716975749152,-0.177
1747851716983435437,-0.177
1747851716991121722,-0.179
1747851716998808007,-0.184
1747851717006494292,-0.182
1747851717014180577,-0.169
1747851717021866862,-0.155
1747851717029553147,-0.14200000000000002
1747851717037239432,-0.135
1747851717044925717,-0.123
1747851717052612002,-0.115
1747851717060298287,-0.137
1747851717067984572,-0.169
1747851717075670857,-0.17200000000000001
1747851717083357142,-0.16
1747851717091043427,-0.155
1747851717098729712,-0.155
1747851717106415997,-0.15
1747851717114102342,-0.145
1747851717121788209,-0.15
1747851717129474076,-0.17200000000000001
1747851717137159943,-0.231
1747851717144845810,-0.251
1747851717152531677,0.024
1747851717160217544,0.711
1747851717167903411,1.491
1747851717175589278,1.673
1747851717183275145,0.615
1747851717190961012,-0.662
1747851717198646879,-0.605
1747851717206332746,-0.093
1747851717214018613,-0.214
1747851717221704480,-0.327
1747851717229390347,-0.182
1747851717237076214,-0.17200000000000001
1747851717244762081,-0.216
1747851717252447948,-0.164
1747851717260133815,-0.132
1747851717267819682,-0.137
1747851717275505549,-0.113
1747851717283191416,-0.083
1747851717290877283,-0.068
1747851717298563150,-0.049
1747851717306249017,-0.019
1747851717313934884,0.007
1747851717321620751,0.034
1747851717329306618,0.068
1747851717336992485,0.1
1747851717344678352,0.132
1747851717352364219,0.157
1747851717360050086,0.17200000000000001
1747851717367735953,0.17200000000000001
1747851717375421820,0.157
1747851717383107687,0.135
1747851717390793554,0.11
1747851717398479421,0.076
1747851717406165288,0.032
1747851717413851155,-0.022
1747851717421537022,-0.083
1747851717429222889,-0.14
1747851717436908756,-0.187
1747851717444594623,-0.224
1747851717452280490,-0.246
1747851717459966357,-0.256
1747851717467652224,-0.256
1747851717475338091,-0.251
1747851717483023958,-0.241
1747851717490709825,-0.228
1747851717498395692,-0.219
1747851717506081559,-0.209
1747851717513767426,-0.201
1747851717521453293,-0.194
1747851717529139160,-0.189
1747851717536825027,-0.187
1747851717544510894,-0.184
1747851717552196761,-0.182
1747851717559882628,-0.179
1747851717567568495,-0.179
1747851717575254362,-0.177
1747851717582940229,-0.177
1747851717590626096,-0.177
1747851717598311963,-0.177
1747851717605997830,-0.17400000000000002
1747851717613683697,-0.17400000000000002
1747851717621369564,-0.17400000000000002
1747851717629055431,-0.17400000000000002
1747851717636741298,-0.17200000000000001
1747851717644427165,-0.169
1747851717652113032,-0.17200000000000001
1747851717659798899,-0.177
1747851717667484766,-0.177
1747851717675170685,-0.167,91,640
1747851717682856970,-0.145,,649
1747851717690543255,-0.13
1747851717698229540,-0.12
1747851717705915825,-0.115
1747851717713602110,-0.11800000000000001
1747851717721288395,-0.14
1747851717728974680,-0.169
1747851717736660965,-0.17200000000000001
1747851717744347250,-0.16
1747851717752033535,-0.155
1747851717759719820,-0.152
1747851717767406105,-0.147
1747851717775092390,-0.145
1747851717782778675,-0.147
1747851717790464960,-0.169
1747851717798151245,-0.228
1747851717805837530,-0.251
1747851717813523815,0.022
1747851717821210100,0.704
1747851717828896385,1.486
1747851717836582670,1.671
1747851717844268955,0.605
1747851717851955240,-0.667
1747851717859641525,-0.603
1747851717867327810,-0.091
1747851717875014095,-0.214
1747851717882700380,-0.32
1747851717890386665,-0.177
1747851717898072950,-0.167
1747851717905759235,-0.209
1747851717913445520,-0.157
1747851717921131805,-0.128
1747851717928818090,-0.132
1747851717936504375,-0.108
1747851717944190660,-0.078
1747851717951876945,-0.068
1747851717959563230,-0.046
1747851717967249515,-0.014
1747851717974935800,0.009000000000000001
1747851717982622085,0.036000000000000004
1747851717990308370,0.068
1747851717997994655,0.1
1747851718005680940,0.13
1747851718013367225,0.155
1747851718021053510,0.169
1747851718028739795,0.167
1747851718036426080,0.152
1747851718044112365,0.13
1747851718051798650,0.10300000000000001
1747851718059484935,0.07100000000000001
1747851718067171220,0.032
1747851718074857505,-0.019
1747851718082543790,-0.078
1747851718090230075,-0.132
1747851718097916360,-0.179
1747851718105602645,-0.214
1747851718113288930,-0.23800000000000002
1747851718120975215,-0.248
1747851718128661500,-0.251
1747851718136347785,-0.246
1747851718144034070,-0.23600000000000002
1747851718151720355,-0.226
1747851718159406640,-0.214
1747851718167092925,-0.201
1747851718174779210,-0.192
1747851718182465495,-0.189
1747851718190151780,-0.187
1747851718197838065,-0.179
1747851718205524350,-0.177
1747851718213210635,-0.179
1747851718220896920,-0.17400000000000002
1747851718228583205,-0.17200000000000001
1747851718236269546,-0.177
1747851718243955831,-0.17400000000000002
1747851718251642116,-0.167
1747851718259328401,-0.167
1747851718267014686,-0.17200000000000001
1747851718274700971,-0.17200000000000001
1747851718282387256,-0.17200000000000001
1747851718290073541,-0.17400000000000002
1747851718297759826,-0.169
1747851718305446111,-0.164
1747851718313132396,-0.167
1747851718320818681,-0.17400000000000002
1747851718328504966,-0.17200000000000001
1747851718336191251,-0.157
1747851718343877536,-0.14200000000000002
1747851718351563821,-0.13
1747851718359250106,-0.12
1747851718366936391,-0.105
1747851718374622676,-0.1
1747851718382308961,-0.12
1747851718389995246,-0.155
1747851718397681531,-0.167
1747851718405367816,-0.15
1747851718413054101,-0.14
1747851718420740386,-0.14200000000000002
1747851718428426671,-0.14
1747851718436112956,-0.135
1747851718443799241,-0.137
1747851718451485526,-0.145
1747851718459171811,-0.179
1747851718466858096,-0.246
1747851718474544381,-0.15
1747851718482230666,0.364
1747851718489916951,1.154
1747851718497603236,1.71
1747851718505289521,1.228
1747851718512975806,-0.184
1747851718520662091,-0.78
1747851718528348376,-0.253
1747851718536034661,-0.091
1747851718543720946,-0.297
1747851718551407231,-0.221
1747851718559093516,-0.132
1747851718566779801,-0.194
1747851718574466086,-0.17400000000000002
1747851718582152371,-0.113
1747851718589838656,-0.115
1747851718597524941,-0.10300000000000001
1747851718605211226,-0.066
1747851718612897511,-0.051000000000000004
1747851718620583796,-0.034
1747851718628270081,-0.002
1747851718635956366,0.017
1747851718643642651,0.039
1747851718651328936,0.07100000000000001
1747851718659015221,0.1
1747851718666701506,0.132
1747851718674387791,0.164
1747851718682074076,0.187
1747851718689760361,0.199
1747851718697446646,0.196
1747851718705132931,0.16
1747851718712819216,0.125
1747851718720505501,0.10300000000000001
1747851718728191786,0.066
1747851718735878071,0.019
1747851718743564356,-0.032
1747851718751250641,-0.096
1747851718758936926,-0.147
1747851718766623211,-0.177
1747851718774309496,-0.209
1747851718781995781,-0.241
1747851718789682066,-0.248
1747851718797368407,-0.233,91,650
1747851718805054692,-0.228
1747851718812740977,-0.233
1747851718820427262,-0.224
1747851718828113547,-0.196
1747851718835799832,-0.182
1747851718843486117,-0.182
1747851718851172402,-0.179
1747851718858858687,-0.169
1747851718866544972,-0.164
1747851718874231257,-0.16
1747851718881917542,-0.16
1747851718889603827,-0.162
1747851718897290112,-0.16
1747851718904976397,-0.16
1747851718912662682,-0.164
1747851718920348967,-0.16
1747851718928035252,-0.15
1747851718935721537,-0.157
1747851718943407822,-0.167
1747851718951094107,-0.162
1747851718958780392,-0.152
1747851718966466677,-0.157
1747851718974152962,-0.17200000000000001
1747851718981839247,-0.167
1747851718989525532,-0.14200000000000002
1747851718997211817,-0.128
1747851719004898102,-0.123
1747851719012584387,-0.11800000000000001
1747851719020270672,-0.105
1747851719027956957,-0.096
1747851719035643242,-0.113
1747851719043329527,-0.145
1747851719051015812,-0.155
1747851719058702097,-0.14
1747851719066388382,-0.132
1747851719074074667,-0.132
1747851719081760952,-0.13
1747851719089447237,-0.123
1747851719097133522,-0.125
1747851719104819807,-0.145
1747851719112506092,-0.189
1747851719120192377,-0.241
1747851719127878662,-0.073
1747851719135564947,0.534
1747851719143251232,1.314
1747851719150937517,1.649
1747851719158623802,0.896
1747851719166310087,-0.423
1747851719173996372,-0.6890000000000001
1747851719181682657,-0.16
1747851719189368942,-0.14
1747851719197055227,-0.292
1747851719204741512,-0.169
1747851719212427797,-0.115
1747851719220114082,-0.17200000000000001
1747851719227800367,-0.137
1747851719235486652,-0.088
1747851719243172937,-0.093
1747851719250859222,-0.083
1747851719258545507,-0.051000000000000004
1747851719266231792,-0.034
1747851719273918077,-0.017
1747851719281604362,0.014
1747851719289290647,0.046
1747851719296976932,0.073
1747851719304663217,0.10300000000000001
1747851719312349502,0.14
1747851719320035787,0.169
1747851719327722072,0.182
1747851719335408357,0.199
1747851719343094642,0.216
1747851719350780927,0.199
1747851719358467268,0.164
1747851719366153135,0.14
1747851719373839002,0.113
1747851719381524869,0.066
1747851719389210736,0.004
1747851719396896603,-0.059000000000000004
1747851719404582470,-0.115
1747851719412268337,-0.169
1747851719419954204,-0.209
1747851719427640071,-0.231
1747851719435325938,-0.248
1747851719443011805,-0.251
1747851719450697672,-0.246
1747851719458383539,-0.23800000000000002
1747851719466069406,-0.228
1747851719473755273,-0.219
1747851719481441140,-0.214
1747851719489127007,-0.20400000000000001
1747851719496812874,-0.194
1747851719504498741,-0.192
1747851719512184608,-0.184
1747851719519870475,-0.17400000000000002
1747851719527556342,-0.17400000000000002
1747851719535242209,-0.17200000000000001
1747851719542928076,-0.169
1747851719550613943,-0.17200000000000001
1747851719558299810,-0.169
1747851719565985677,-0.164
1747851719573671544,-0.169
1747851719581357411,-0.177
1747851719589043278,-0.17400000000000002
1747851719596729145,-0.17400000000000002
1747851719604415012,-0.177
1747851719612100879,-0.182
1747851719619786746,-0.184
1747851719627472613,-0.179
1747851719635158480,-0.167
1747851719642844347,-0.157
1747851719650530214,-0.147
1747851719658216081,-0.137
1747851719665901948,-0.128
1747851719673587815,-0.12
1747851719681273682,-0.137
1747851719688959549,-0.169
1747851719696645416,-0.179
1747851719704331283,-0.169
1747851719712017150,-0.162
1747851719719703017,-0.157
1747851719727388884,-0.152
1747851719735074751,-0.15
1747851719742760618,-0.152
1747851719750446485,-0.169
1747851719758132352,-0.216
1747851719765818219,-0.256
1747851719773504086,-0.041
1747851719781189953,0.588
1747851719788875820,1.331
1747851719796561687,1.587
1747851719804247554,0.74
1747851719811933421,-0.548
1747851719819619288,-0.6910000000000001
1747851719827305155,-0.157
1747851719834991022,-0.177
1747851719842676889,-0.312
1747851719850362756,-0.187
1747851719858048623,-0.155
1747851719865734490,-0.201
1747851719873420357,-0.162
1747851719881106224,-0.125
1747851719888792091,-0.128
1747851719896477958,-0.11
1747851719904163825,-0.08600000000000001
1747851719911849692,-0.068
1747851719919535611,-0.049,91,661
1747851719927221896,-0.024,,664
1747851719934908181,0.0
1747851719942594466,0.024
1747851719950280751,0.056
1747851719957967036,0.088
1747851719965653321,0.115
1747851719973339606,0.137
1747851719981025891,0.147
1747851719988712176,0.145
1747851719996398461,0.13
1747851720004084746,0.105
1747851720011771031,0.076
1747851720019457316,0.044
1747851720027143601,0.004
1747851720034829886,-0.046
1747851720042516171,-0.1
1747851720050202456,-0.155
1747851720057888741,-0.199
1747851720065575026,-0.233
1747851720073261311,-0.253
1747851720080947596,-0.265
1747851720088633881,-0.268
1747851720096320166,-0.263
1747851720104006451,-0.256
1747851720111692736,-0.243
1747851720119379021,-0.231
1747851720127065306,-0.221
1747851720134751591,-0.211
1747851720142437876,-0.20400000000000001
1747851720150124161,-0.196
1747851720157810446,-0.192
1747851720165496731,-0.187
1747851720173183016,-0.184
1747851720180869301,-0.182
1747851720188555586,-0.179
1747851720196241871,-0.177
1747851720203928156,-0.177
1747851720211614441,-0.177
1747851720219300726,-0.179
1747851720226987011,-0.179
1747851720234673296,-0.179
1747851720242359581,-0.179
1747851720250045866,-0.182
1747851720257732151,-0.179
1747851720265418436,-0.177
1747851720273104721,-0.17400000000000002
1747851720280791006,-0.179
1747851720288477291,-0.182
1747851720296163576,-0.17400000000000002
1747851720303849861,-0.16
1747851720311536146,-0.147
1747851720319222431,-0.137
1747851720326908716,-0.125
1747851720334595001,-0.11
1747851720342281286,-0.11800000000000001
1747851720349967571,-0.15
1747851720357653856,-0.17200000000000001
1747851720365340141,-0.16
1747851720373026426,-0.15
1747851720380712711,-0.15
1747851720388398996,-0.145
1747851720396085281,-0.137
1747851720403771566,-0.14
1747851720411457851,-0.152
1747851720419144136,-0.189
1747851720426830421,-0.251
1747851720434516706,-0.179
1747851720442202991,0.28300000000000003
1747851720449889276,1.061
1747851720457575561,1.678
1747851720465261846,1.353
1747851720472948131,-0.014
1747851720480634476,-0.787
1747851720488320761,-0.327
1747851720496007046,-0.066
1747851720503693331,-0.29
1747851720511379616,-0.26
1747851720519065901,-0.14200000000000002
1747851720526752186,-0.189
1747851720534438471,-0.192
1747851720542124756,-0.13
1747851720549811041,-0.125
1747851720557497326,-0.12
1747851720565183611,-0.08600000000000001
1747851720572869896,-0.068
1747851720580556181,-0.059000000000000004
1747851720588242466,-0.029
1747851720595928751,0.0
1747851720603615036,0.024
1747851720611301321,0.054
1747851720618987606,0.088
1747851720626673891,0.12
1747851720634360176,0.147
1747851720642046461,0.167
1747851720649732746,0.179
1747851720657419031,0.17200000000000001
1747851720665105316,0.155
1747851720672791601,0.132
1747851720680477886,0.10300000000000001
1747851720688164171,0.066
1747851720695850456,0.019
1747851720703536741,-0.036000000000000004
1747851720711223026,-0.1
1747851720718909311,-0.155
1747851720726595596,-0.196
1747851720734281881,-0.226
1747851720741968166,-0.243
1747851720749654451,-0.251
1747851720757340736,-0.248
1747851720765027021,-0.243
1747851720772713306,-0.233
1747851720780399591,-0.221
1747851720788085876,-0.211
1747851720795772161,-0.201
1747851720803458446,-0.194
1747851720811144731,-0.189
1747851720818831016,-0.184
1747851720826517301,-0.179
1747851720834203586,-0.177
1747851720841889871,-0.17400000000000002
1747851720849576156,-0.17200000000000001
1747851720857262441,-0.17200000000000001
1747851720864948726,-0.17200000000000001
1747851720872635011,-0.17200000000000001
1747851720880321296,-0.17200000000000001
1747851720888007581,-0.17200000000000001
1747851720895693866,-0.17200000000000001
1747851720903380151,-0.169
1747851720911066436,-0.169
1747851720918752721,-0.169
1747851720926439006,-0.167
1747851720934125291,-0.164
1747851720941811576,-0.164
1747851720949497861,-0.169
1747851720957184146,-0.167
1747851720964870431,-0.157
1747851720972556716,-0.14200000000000002
1747851720980243001,-0.13
1747851720987929286,-0.123
1747851720995615571,-0.11
1747851721003301856,-0.1
1747851721010988141,-0.115
1747851721018674426,-0.147
1747851721026360711,-0.157
1747851721034046996,-0.145
1747851721041733337,-0.14,91,651
1747851721049419831,-0.137
1747851721057106325,-0.132
1747851721064792819,-0.128
1747851721072479313,-0.13
1747851721080165807,-0.147
1747851721087852301,-0.199
1747851721095538795,-0.253
1747851721103225289,-0.093
1747851721110911783,0.489
1747851721118598277,1.299
1747851721126284771,1.747
1747851721133971265,1.036
1747851721141657759,-0.388
1747851721149344253,-0.74
1747851721157030747,-0.177
1747851721164717241,-0.128
1747851721172403735,-0.32
