time,ecg,hr,rr,marker
1747685134921851132,-0.044,86,736
1747685134929539020,-0.034
1747685134937226908,-0.051000000000000004
1747685134944914796,-0.069
1747685134952602684,-0.066
1747685134960290572,-0.059000000000000004
1747685134967978460,-0.064
1747685134975666348,-0.066
1747685134983354236,-0.059000000000000004
1747685134991042124,-0.056
1747685134998730012,-0.069
1747685135006417900,-0.064
1747685135014105788,0.116
1747685135021793676,0.509
1747685135029481564,0.675
1747685135037169452,0.259
1747685135044857340,-0.291
1747685135052545228,-0.405
1747685135060233116,-0.23900000000000002
1747685135067921004,-0.178
1747685135075608892,-0.14300000000000002
1747685135083296780,-0.049
1747685135090984668,-0.029
1747685135098672556,-0.061
1747685135106360444,-0.044
1747685135114048332,-0.019
1747685135121736220,-0.017
1747685135129424108,-0.009000000000000001
1747685135137111996,-0.012
1747685135144799884,-0.004
1747685135152487772,0.009000000000000001
1747685135160175660,0.0
1747685135167863548,-0.004
1747685135175551436,0.019
1747685135183239324,0.024
1747685135190927212,0.014
1747685135198615100,0.027
1747685135206302988,0.044
1747685135213990876,0.044
1747685135221678764,0.047
1747685135229366652,0.061
1747685135237054540,0.066
1747685135244742428,0.064
1747685135252430316,0.07100000000000001
1747685135260118204,0.079
1747685135267806092,0.076
1747685135275493980,0.084
1747685135283181868,0.08600000000000001
1747685135290869756,0.074
1747685135298557644,0.066
1747685135306245532,0.056
1747685135313933420,0.044
1747685135321621308,0.027
1747685135329309196,-0.004
1747685135336997084,-0.034
1747685135344684972,-0.059000000000000004
1747685135352372860,-0.079
1747685135360060748,-0.08600000000000001
1747685135367748636,-0.091
1747685135375436524,-0.10300000000000001
1747685135383124412,-0.10300000000000001
1747685135390812300,-0.094
1747685135398500188,-0.089
1747685135406188076,-0.08600000000000001
1747685135413875964,-0.08600000000000001
1747685135421563852,-0.084
1747685135429251740,-0.079
1747685135436939628,-0.076
1747685135444627516,-0.07100000000000001
1747685135452315404,-0.074
1747685135460003292,-0.081
1747685135467691180,-0.084
1747685135475379068,-0.074
1747685135483066978,-0.066
1747685135490754726,-0.07100000000000001
1747685135498442474,-0.079
1747685135506130222,-0.084
1747685135513817970,-0.074
1747685135521505718,-0.069
1747685135529193466,-0.089
1747685135536881214,-0.091
1747685135544568962,-0.069
1747685135552256710,-0.066
1747685135559944458,-0.079
1747685135567632206,-0.081
1747685135575319954,-0.079
1747685135583007702,-0.081
1747685135590695450,-0.079
1747685135598383198,-0.056
1747685135606070946,-0.034
1747685135613758694,-0.042
1747685135621446442,-0.049
1747685135629134190,-0.034
1747685135636821938,-0.034
1747685135644509686,-0.059000000000000004
1747685135652197434,-0.061
1747685135659885182,-0.056
1747685135667572930,-0.061
1747685135675260678,-0.061
1747685135682948426,-0.056
1747685135690636174,-0.059000000000000004
1747685135698323922,-0.061
1747685135706011670,-0.064
1747685135713699418,-0.022
1747685135721387166,0.197
1747685135729074914,0.561
1747685135736762662,0.596
1747685135744450410,0.10300000000000001
1747685135752138158,-0.343
1747685135759825906,-0.34600000000000003
1747685135767513654,-0.217
1747685135775201402,-0.18
1747685135782889150,-0.111
1747685135790576898,-0.039
1747685135798264646,-0.049
1747685135805952394,-0.056
1747685135813640142,-0.022
1747685135821327890,-0.007
1747685135829015638,-0.019
1747685135836703386,-0.012
1747685135844391134,-0.004
1747685135852078882,-0.002
1747685135859766630,0.009000000000000001
1747685135867454378,0.007
1747685135875142126,-0.002
1747685135882829874,0.009000000000000001
1747685135890517622,0.022
1747685135898205370,0.019
1747685135905893118,0.029
1747685135913580866,0.042
1747685135921268614,0.039
1747685135928956362,0.037
1747685135936644110,0.047
1747685135944331858,0.059000000000000004
1747685135952019606,0.066
1747685135959707354,0.07100000000000001
1747685135967395102,0.079
1747685135975082850,0.081
1747685135982770598,0.081
1747685135990458346,0.074
1747685135998146094,0.059000000000000004
1747685136005833842,0.051000000000000004
1747685136013521590,0.051000000000000004
1747685136021209338,0.037
1747685136028897086,0.012
1747685136036584834,-0.012
1747685136044272654,-0.049,85,736
1747685136051960681,-0.079,,705
1747685136059648708,-0.089
1747685136067336735,-0.098
1747685136075024762,-0.10300000000000001
1747685136082712789,-0.091
1747685136090400816,-0.089
1747685136098088843,-0.106
1747685136105776870,-0.106
1747685136113464897,-0.094
1747685136121152924,-0.098
1747685136128840951,-0.096
1747685136136528978,-0.084
1747685136144217005,-0.084
1747685136151905032,-0.089
1747685136159593059,-0.084
1747685136167281086,-0.076
1747685136174969113,-0.076
1747685136182657140,-0.076
1747685136190345167,-0.081
1747685136198033194,-0.08600000000000001
1747685136205721221,-0.079
1747685136213409248,-0.079
1747685136221097275,-0.084
1747685136228785302,-0.084
1747685136236473329,-0.076
1747685136244161356,-0.081
1747685136251849383,-0.084
1747685136259537410,-0.079
1747685136267225437,-0.084
1747685136274913464,-0.081
1747685136282601491,-0.076
1747685136290289518,-0.08600000000000001
1747685136297977545,-0.08600000000000001
1747685136305665572,-0.066
1747685136313353599,-0.054
1747685136321041626,-0.042
1747685136328729653,-0.034
1747685136336417680,-0.039
1747685136344105707,-0.044
1747685136351793734,-0.049
1747685136359481761,-0.061
1747685136367169788,-0.07100000000000001
1747685136374857815,-0.061
1747685136382545842,-0.056
1747685136390233869,-0.066
1747685136397921896,-0.061
1747685136405609923,-0.056
1747685136413297950,-0.066
1747685136420985977,-0.064
1747685136428674004,0.047
1747685136436362031,0.361
1747685136444050058,0.616
1747685136451738085,0.353
1747685136459426112,-0.202
1747685136467114139,-0.4
1747685136474802166,-0.257
1747685136482490193,-0.192
1747685136490178220,-0.17
1747685136497866247,-0.07100000000000001
1747685136505554274,-0.034
1747685136513242301,-0.056
1747685136520930328,-0.039
1747685136528618355,-0.019
1747685136536306382,-0.024
1747685136543994409,-0.019
1747685136551682436,-0.004
1747685136559370463,-0.004
1747685136567058490,-0.009000000000000001
1747685136574746517,-0.004
1747685136582434544,0.009000000000000001
1747685136590122571,0.012
1747685136597810598,0.012
1747685136605498674,0.017,85,716
1747685136613186353,0.022
1747685136620874032,0.029
1747685136628561711,0.034
1747685136636249390,0.044
1747685136643937069,0.054
1747685136651624748,0.056
1747685136659312427,0.066
1747685136667000106,0.081
1747685136674687785,0.079
1747685136682375464,0.076
1747685136690063143,0.079
1747685136697750822,0.074
1747685136705438501,0.069
1747685136713126180,0.069
1747685136720813859,0.069
1747685136728501538,0.056
1747685136736189217,0.019
1747685136743876896,-0.009000000000000001
1747685136751564575,-0.029
1747685136759252254,-0.056
1747685136766939933,-0.084
1747685136774627612,-0.094
1747685136782315291,-0.096
1747685136790002970,-0.101
1747685136797690649,-0.096
1747685136805378328,-0.096
1747685136813066007,-0.10300000000000001
1747685136820753686,-0.106
1747685136828441365,-0.098
1747685136836129044,-0.089
1747685136843816723,-0.08600000000000001
1747685136851504402,-0.08600000000000001
1747685136859192081,-0.08600000000000001
1747685136866879760,-0.08600000000000001
1747685136874567439,-0.091
1747685136882255118,-0.089
1747685136889942797,-0.081
1747685136897630476,-0.091
1747685136905318155,-0.10300000000000001
1747685136913005834,-0.091
1747685136920693513,-0.091
1747685136928381192,-0.098
1747685136936068871,-0.08600000000000001
1747685136943756550,-0.081
1747685136951444229,-0.098
1747685136959131908,-0.108
1747685136966819587,-0.094
1747685136974507266,-0.091
1747685136982194945,-0.098
1747685136989882624,-0.098
1747685136997570303,-0.091
1747685137005257982,-0.084
1747685137012945661,-0.074
1747685137020633340,-0.074
1747685137028321019,-0.069
1747685137036008698,-0.051000000000000004
1747685137043696377,-0.042
1747685137051384056,-0.056
1747685137059071735,-0.074
1747685137066759414,-0.074
1747685137074447093,-0.069
1747685137082134772,-0.066
1747685137089822451,-0.07100000000000001
1747685137097510130,-0.081
1747685137105197809,-0.074
1747685137112885488,-0.069
1747685137120573167,-0.081
1747685137128260846,-0.061
1747685137135948525,0.113
1747685137143636204,0.47500000000000003
1747685137151323883,0.613
1747685137159011562,0.165
1747685137166699259,-0.371
1747685137174387217,-0.43
1747685137182075175,-0.274
1747685137189763133,-0.252
1747685137197451091,-0.197
1747685137205139049,-0.069
1747685137212827007,-0.042
1747685137220514965,-0.064
1747685137228202923,-0.039
1747685137235890881,-0.017
1747685137243578839,-0.022
1747685137251266797,-0.014
1747685137258954755,-0.004
1747685137266642713,-0.007
1747685137274330671,-0.007
1747685137282018629,0.0
1747685137289706587,0.007
1747685137297394545,0.012
1747685137305082503,0.019
1747685137312770461,0.024
1747685137320458419,0.034
1747685137328146377,0.044
1747685137335834335,0.059000000000000004
1747685137343522293,0.066
1747685137351210251,0.061
1747685137358898209,0.074
1747685137366586167,0.084
1747685137374274125,0.091
1747685137381962083,0.108
1747685137389650041,0.108
1747685137397337999,0.091
1747685137405025957,0.094
1747685137412713915,0.108
1747685137420401873,0.094
1747685137428089831,0.074
1747685137435777789,0.059000000000000004
1747685137443465747,0.034
1747685137451153705,0.0
1747685137458841663,-0.034
1747685137466529621,-0.066
1747685137474217579,-0.091
1747685137481905537,-0.106
1747685137489593495,-0.106
1747685137497281453,-0.108
1747685137504969411,-0.111
1747685137512657369,-0.098
1747685137520345327,-0.08600000000000001
1747685137528033285,-0.089
1747685137535721243,-0.084
1747685137543409201,-0.079
1747685137551097159,-0.079
1747685137558785117,-0.07100000000000001
1747685137566473075,-0.066
1747685137574161033,-0.076
1747685137581848991,-0.07100000000000001
1747685137589536949,-0.064
1747685137597224907,-0.074
1747685137604912865,-0.081
1747685137612600823,-0.076
1747685137620288781,-0.07100000000000001
1747685137627976739,-0.074
1747685137635664697,-0.081
1747685137643352655,-0.074
1747685137651040613,-0.074
1747685137658728571,-0.081
1747685137666416529,-0.076
1747685137674104487,-0.076
1747685137681792445,-0.08600000000000001
1747685137689480403,-0.079
1747685137697168361,-0.069
1747685137704856319,-0.074
1747685137712544277,-0.066
1747685137720232235,-0.042
1747685137727920196,-0.032,85,705
1747685137735607805,-0.034,,711
1747685137743295414,-0.034
1747685137750983023,-0.047
1747685137758670632,-0.064
1747685137766358241,-0.064
1747685137774045850,-0.054
1747685137781733459,-0.056
1747685137789421068,-0.064
1747685137797108677,-0.061
1747685137804796286,-0.056
1747685137812483895,-0.056
1747685137820171504,-0.056
1747685137827859113,0.032
1747685137835546722,0.34800000000000003
1747685137843234331,0.665
1747685137850921940,0.482
1747685137858609549,-0.106
1747685137866297158,-0.425
1747685137873984767,-0.304
1747685137881672376,-0.17500000000000002
1747685137889359985,-0.165
1747685137897047594,-0.108
1747685137904735203,-0.047
1747685137912422812,-0.047
1747685137920110421,-0.054
1747685137927798030,-0.029
1747685137935485639,-0.007
1747685137943173248,-0.012
1747685137950860857,-0.017
1747685137958548466,-0.009000000000000001
1747685137966236075,-0.004
1747685137973923684,0.0
1747685137981611293,0.007
1747685137989298902,0.009000000000000001
1747685137996986511,0.007
1747685138004674120,0.014
1747685138012361729,0.032
1747685138020049338,0.037
1747685138027736947,0.034
1747685138035424556,0.044
1747685138043112165,0.059000000000000004
1747685138050799774,0.061
1747685138058487383,0.061
1747685138066174992,0.079
1747685138073862601,0.091
1747685138081550210,0.081
1747685138089237819,0.084
1747685138096925428,0.091
1747685138104613037,0.084
1747685138112300646,0.076
1747685138119988255,0.07100000000000001
1747685138127675864,0.059000000000000004
1747685138135363473,0.032
1747685138143051082,0.0
1747685138150738691,-0.032
1747685138158426300,-0.064
1747685138166113909,-0.08600000000000001
1747685138173801518,-0.094
1747685138181489127,-0.108
1747685138189176736,-0.11800000000000001
1747685138196864345,-0.111
1747685138204551954,-0.106
1747685138212239563,-0.101
1747685138219927172,-0.096
1747685138227614781,-0.098
1747685138235302390,-0.096
1747685138242989999,-0.079
1747685138250677608,-0.079
1747685138258365217,-0.081
1747685138266052826,-0.076
1747685138273740435,-0.081
1747685138281428044,-0.089
1747685138289115698,-0.079
1747685138296803586,-0.076
1747685138304491474,-0.089
1747685138312179362,-0.089
1747685138319867250,-0.079
1747685138327555138,-0.081
1747685138335243026,-0.094
1747685138342930914,-0.08600000000000001
1747685138350618802,-0.079
1747685138358306690,-0.089
1747685138365994578,-0.08600000000000001
1747685138373682466,-0.081
1747685138381370354,-0.084
1747685138389058242,-0.079
1747685138396746130,-0.074
1747685138404434018,-0.07100000000000001
1747685138412121906,-0.056
1747685138419809794,-0.049
1747685138427497682,-0.049
1747685138435185570,-0.047
1747685138442873458,-0.049
1747685138450561346,-0.059000000000000004
1747685138458249234,-0.066
1747685138465937122,-0.074
1747685138473625010,-0.074
1747685138481312898,-0.069
1747685138489000786,-0.061
1747685138496688674,-0.061
1747685138504376562,-0.076
1747685138512064450,-0.069
1747685138519752338,0.081
1747685138527440226,0.44
1747685138535128114,0.672
1747685138542816002,0.35100000000000003
1747685138550503890,-0.217
1747685138558191778,-0.403
1747685138565879666,-0.259
1747685138573567554,-0.19
1747685138581255442,-0.155
1747685138588943330,-0.069
1747685138596631218,-0.051000000000000004
1747685138604319106,-0.069
1747685138612006994,-0.044
1747685138619694882,-0.022
1747685138627382770,-0.027
1747685138635070658,-0.024
1747685138642758546,-0.009000000000000001
1747685138650446434,-0.009000000000000001
1747685138658134322,-0.019
1747685138665822210,-0.009000000000000001
1747685138673510098,0.002
1747685138681197986,0.004
1747685138688885874,0.014
1747685138696573762,0.019
1747685138704261650,0.012
1747685138711949538,0.017
1747685138719637426,0.037
1747685138727325314,0.047
1747685138735013202,0.047
1747685138742701090,0.059000000000000004
1747685138750388978,0.07100000000000001
1747685138758076866,0.069
1747685138765764754,0.074
1747685138773452642,0.084
1747685138781140530,0.081
1747685138788828418,0.074
1747685138796516306,0.07100000000000001
1747685138804204194,0.069
1747685138811892082,0.061
1747685138819579970,0.047
1747685138827267858,0.014
1747685138834955746,-0.019
1747685138842643634,-0.042
1747685138850331544,-0.074,85,705
1747685138858019501,-0.10300000000000001
1747685138865707458,-0.111
1747685138873395415,-0.10300000000000001
1747685138881083372,-0.108
1747685138888771329,-0.11800000000000001
1747685138896459286,-0.108
1747685138904147243,-0.096
1747685138911835200,-0.106
1747685138919523157,-0.108
1747685138927211114,-0.091
1747685138934899071,-0.081
1747685138942587028,-0.084
1747685138950274985,-0.079
1747685138957962942,-0.084
1747685138965650899,-0.091
1747685138973338856,-0.084
1747685138981026813,-0.079
1747685138988714770,-0.08600000000000001
1747685138996402727,-0.089
1747685139004090684,-0.084
1747685139011778641,-0.084
1747685139019466598,-0.084
1747685139027154555,-0.081
1747685139034842512,-0.084
1747685139042530469,-0.081
1747685139050218426,-0.079
1747685139057906383,-0.079
1747685139065594340,-0.074
1747685139073282297,-0.079
1747685139080970254,-0.096
1747685139088658211,-0.096
1747685139096346168,-0.076
1747685139104034125,-0.051000000000000004
1747685139111722082,-0.042
1747685139119410039,-0.051000000000000004
1747685139127097996,-0.049
1747685139134785953,-0.042
1747685139142473910,-0.064
1747685139150161867,-0.076
1747685139157849824,-0.061
1747685139165537781,-0.064
1747685139173225738,-0.076
1747685139180913695,-0.07100000000000001
1747685139188601652,-0.059000000000000004
1747685139196289609,-0.061
1747685139203977566,-0.064
1747685139211665523,-0.051000000000000004
1747685139219353480,0.061
1747685139227041437,0.39
1747685139234729394,0.638
1747685139242417351,0.363
1747685139250105308,-0.19
1747685139257793265,-0.41300000000000003
1747685139265481222,-0.277
1747685139273169179,-0.183
1747685139280857136,-0.16
1747685139288545093,-0.081
1747685139296233050,-0.042
1747685139303921007,-0.066
1747685139311608964,-0.056
1747685139319296921,-0.027
1747685139326984878,-0.022
1747685139334672835,-0.019
1747685139342360792,-0.009000000000000001
1747685139350048749,-0.012
1747685139357736706,-0.019
1747685139365424663,-0.007
1747685139373112620,0.002
1747685139380800577,0.0
1747685139388488534,0.007
1747685139396176491,0.012
1747685139403864448,0.017
1747685139411552477,0.029
1747685139419240295,0.044
1747685139426928113,0.047
1747685139434615931,0.047
1747685139442303749,0.056
1747685139449991567,0.07100000000000001
1747685139457679385,0.07100000000000001
1747685139465367203,0.07100000000000001
1747685139473055021,0.076
1747685139480742839,0.08600000000000001
1747685139488430657,0.08600000000000001
1747685139496118475,0.079
1747685139503806293,0.076
1747685139511494111,0.074
1747685139519181929,0.047
1747685139526869747,0.012
1747685139534557565,-0.012
1747685139542245383,-0.037
1747685139549933201,-0.069
1747685139557621019,-0.08600000000000001
1747685139565308837,-0.094
1747685139572996655,-0.108
1747685139580684473,-0.113
1747685139588372291,-0.101
1747685139596060109,-0.10300000000000001
1747685139603747927,-0.106
1747685139611435745,-0.094
1747685139619123563,-0.08600000000000001
1747685139626811381,-0.08600000000000001
1747685139634499199,-0.081
1747685139642187017,-0.081
1747685139649874835,-0.084
1747685139657562653,-0.084
1747685139665250471,-0.081
1747685139672938289,-0.081
1747685139680626107,-0.076
1747685139688313925,-0.076
1747685139696001743,-0.081
1747685139703689561,-0.089
1747685139711377379,-0.08600000000000001
1747685139719065197,-0.081
1747685139726753015,-0.08600000000000001
1747685139734440833,-0.08600000000000001
1747685139742128651,-0.076
1747685139749816469,-0.076
1747685139757504287,-0.08600000000000001
1747685139765192105,-0.081
1747685139772879923,-0.074
1747685139780567741,-0.076
1747685139788255559,-0.079
1747685139795943377,-0.084
1747685139803631195,-0.08600000000000001
1747685139811319013,-0.079
1747685139819006831,-0.07100000000000001
1747685139826694649,-0.054
1747685139834382467,-0.037
1747685139842070285,-0.034
1747685139849758103,-0.039
1747685139857445921,-0.051000000000000004
1747685139865133739,-0.059000000000000004
1747685139872821557,-0.064
1747685139880509375,-0.074
1747685139888197193,-0.069
1747685139895885011,-0.061
1747685139903572829,-0.066
1747685139911260647,-0.066
1747685139918948465,-0.066
1747685139926636283,-0.069
1747685139934324101,0.0
1747685139942011919,0.28400000000000003
1747685139949699737,0.606
1747685139957387555,0.465
1747685139965075373,-0.101
1747685139972763240,-0.423,85,695
1747685139980450919,-0.331
1747685139988138598,-0.232
1747685139995826277,-0.202
1747685140003513956,-0.108
1747685140011201635,-0.047
1747685140018889314,-0.059000000000000004
1747685140026576993,-0.051000000000000004
1747685140034264672,-0.034
1747685140041952351,-0.039
1747685140049640030,-0.039
1747685140057327709,-0.029
1747685140065015388,-0.019
1747685140072703067,-0.009000000000000001
1747685140080390746,-0.002
1747685140088078425,-0.002
1747685140095766104,0.002
1747685140103453783,0.007
1747685140111141462,0.009000000000000001
1747685140118829141,0.009000000000000001
1747685140126516820,0.017
1747685140134204499,0.029
1747685140141892178,0.044
1747685140149579857,0.056
1747685140157267536,0.059000000000000004
1747685140164955215,0.061
1747685140172642894,0.07100000000000001
1747685140180330573,0.081
1747685140188018252,0.08600000000000001
1747685140195705931,0.08600000000000001
1747685140203393610,0.076
1747685140211081289,0.07100000000000001
1747685140218768968,0.069
1747685140226456647,0.064
1747685140234144326,0.049
1747685140241832005,0.029
1747685140249519684,-0.004
1747685140257207363,-0.044
1747685140264895042,-0.074
1747685140272582721,-0.089
1747685140280270400,-0.108
1747685140287958079,-0.123
1747685140295645758,-0.126
1747685140303333437,-0.123
1747685140311021116,-0.113
1747685140318708795,-0.10300000000000001
1747685140326396474,-0.10300000000000001
1747685140334084153,-0.111
1747685140341771832,-0.113
1747685140349459511,-0.101
1747685140357147190,-0.089
1747685140364834869,-0.098
1747685140372522548,-0.101
1747685140380210227,-0.089
1747685140387897906,-0.089
1747685140395585585,-0.098
1747685140403273264,-0.096
1747685140410960943,-0.091
1747685140418648622,-0.098
1747685140426336301,-0.106
1747685140434023980,-0.106
1747685140441711659,-0.10300000000000001
1747685140449399338,-0.098
1747685140457087017,-0.089
1747685140464774696,-0.08600000000000001
1747685140472462375,-0.096
1747685140480150054,-0.101
1747685140487837733,-0.096
1747685140495525412,-0.101
1747685140503213091,-0.10300000000000001
1747685140510900770,-0.094
1747685140518588449,-0.096
1747685140526276128,-0.096
1747685140533963825,-0.076
1747685140541651783,-0.056
1747685140549339741,-0.042
1747685140557027699,-0.032
1747685140564715657,-0.056
1747685140572403615,-0.089
1747685140580091573,-0.089
1747685140587779531,-0.07100000000000001
1747685140595467489,-0.079
1747685140603155447,-0.091
1747685140610843405,-0.081
1747685140618531363,-0.069
1747685140626219321,-0.081
1747685140633907279,-0.081
1747685140641595237,-0.022
1747685140649283195,0.197
1747685140656971153,0.561
1747685140664659111,0.5730000000000001
1747685140672347069,-0.014
1747685140680035027,-0.497
1747685140687722985,-0.427
1747685140695410943,-0.274
1747685140703098901,-0.274
1747685140710786859,-0.188
1747685140718474817,-0.056
1747685140726162775,-0.044
1747685140733850733,-0.051000000000000004
1747685140741538691,-0.024
1747685140749226649,-0.024
1747685140756914607,-0.027
1747685140764602565,-0.007
1747685140772290523,-0.004
1747685140779978481,-0.014
1747685140787666439,-0.002
1747685140795354397,0.012
1747685140803042355,0.009000000000000001
1747685140810730313,0.012
1747685140818418271,0.027
1747685140826106229,0.032
1747685140833794187,0.032
1747685140841482145,0.047
1747685140849170103,0.056
1747685140856858061,0.059000000000000004
1747685140864546019,0.07100000000000001
1747685140872233977,0.094
1747685140879921935,0.108
1747685140887609893,0.10300000000000001
1747685140895297851,0.096
1747685140902985809,0.108
1747685140910673767,0.116
1747685140918361725,0.111
1747685140926049683,0.10300000000000001
1747685140933737641,0.08600000000000001
1747685140941425599,0.069
1747685140949113557,0.049
1747685140956801515,0.009000000000000001
1747685140964489473,-0.029
1747685140972177431,-0.061
1747685140979865389,-0.098
1747685140987553347,-0.11800000000000001
1747685140995241305,-0.116
1747685141002929263,-0.131
1747685141010617221,-0.138
1747685141018305179,-0.123
1747685141025993137,-0.128
1747685141033681095,-0.128
1747685141041369053,-0.10300000000000001
1747685141049057011,-0.094
1747685141056744969,-0.101
1747685141064432927,-0.096
1747685141072120885,-0.08600000000000001
1747685141079808843,-0.081
1747685141087496801,-0.084
1747685141095184762,-0.08600000000000001,85,690
1747685141102872371,-0.084,,700
1747685141110559980,-0.089
1747685141118247589,-0.094
1747685141125935198,-0.096
1747685141133622807,-0.096
1747685141141310416,-0.098
1747685141148998025,-0.098
1747685141156685634,-0.091
1747685141164373243,-0.089
1747685141172060852,-0.098
1747685141179748461,-0.10300000000000001
1747685141187436070,-0.094
1747685141195123679,-0.089
1747685141202811288,-0.089
1747685141210498897,-0.091
1747685141218186506,-0.094
1747685141225874115,-0.079
1747685141233561724,-0.059000000000000004
1747685141241249333,-0.064
1747685141248936942,-0.059000000000000004
1747685141256624551,-0.037
1747685141264312160,-0.044
1747685141271999769,-0.074
1747685141279687378,-0.081
1747685141287374987,-0.076
1747685141295062596,-0.074
1747685141302750205,-0.069
1747685141310437814,-0.069
1747685141318125423,-0.074
1747685141325813032,-0.076
1747685141333500641,-0.07100000000000001
1747685141341188250,-0.009000000000000001
1747685141348875859,0.257
1747685141356563468,0.62
1747685141364251077,0.534
1747685141371938686,-0.096
1747685141379626295,-0.512
1747685141387313904,-0.39
1747685141395001513,-0.23900000000000002
1747685141402689122,-0.23700000000000002
1747685141410376731,-0.15
1747685141418064340,-0.042
1747685141425751949,-0.037
1747685141433439558,-0.051000000000000004
1747685141441127167,-0.024
1747685141448814776,-0.009000000000000001
1747685141456502385,-0.017
1747685141464189994,-0.014
1747685141471877603,0.0
1747685141479565212,0.007
1747685141487252821,0.012
1747685141494940430,0.019
1747685141502628039,0.017
1747685141510315648,0.012
1747685141518003257,0.017
1747685141525690866,0.034
1747685141533378475,0.051000000000000004
1747685141541066084,0.061
1747685141548753693,0.066
1747685141556441302,0.07100000000000001
1747685141564128911,0.081
1747685141571816520,0.098
1747685141579504129,0.111
1747685141587191738,0.123
1747685141594879347,0.128
1747685141602566956,0.123
1747685141610254565,0.121
1747685141617942174,0.126
1747685141625629783,0.11800000000000001
1747685141633317392,0.10300000000000001
1747685141641005001,0.08600000000000001
1747685141648692610,0.051000000000000004
1747685141656380264,0.004,85,717
1747685141664068152,-0.037
1747685141671756040,-0.064
1747685141679443928,-0.08600000000000001
1747685141687131816,-0.106
1747685141694819704,-0.113
1747685141702507592,-0.123
1747685141710195480,-0.128
1747685141717883368,-0.11800000000000001
1747685141725571256,-0.106
1747685141733259144,-0.108
1747685141740947032,-0.106
1747685141748634920,-0.094
1747685141756322808,-0.084
1747685141764010696,-0.081
1747685141771698584,-0.07100000000000001
1747685141779386472,-0.066
1747685141787074360,-0.07100000000000001
1747685141794762248,-0.079
1747685141802450136,-0.074
1747685141810138024,-0.076
1747685141817825912,-0.081
1747685141825513800,-0.079
1747685141833201688,-0.074
1747685141840889576,-0.079
1747685141848577464,-0.079
1747685141856265352,-0.074
1747685141863953240,-0.069
1747685141871641128,-0.074
1747685141879329016,-0.079
1747685141887016904,-0.074
1747685141894704792,-0.069
1747685141902392680,-0.079
1747685141910080568,-0.081
1747685141917768456,-0.079
1747685141925456344,-0.076
1747685141933144232,-0.066
1747685141940832120,-0.049
1747685141948520008,-0.032
1747685141956207896,-0.022
1747685141963895784,-0.024
1747685141971583672,-0.039
1747685141979271560,-0.049
1747685141986959448,-0.059000000000000004
1747685141994647336,-0.069
1747685142002335224,-0.064
1747685142010023112,-0.049
1747685142017711000,-0.051000000000000004
1747685142025398888,-0.061
1747685142033086776,-0.064
1747685142040774664,-0.066
1747685142048462552,0.027
1747685142056150440,0.373
1747685142063838328,0.724
1747685142071526216,0.541
1747685142079214104,-0.089
1747685142086901992,-0.435
1747685142094589880,-0.309
1747685142102277768,-0.183
1747685142109965656,-0.17
1747685142117653544,-0.08600000000000001
1747685142125341432,-0.017
1747685142133029320,-0.037
1747685142140717208,-0.042
1747685142148405096,-0.014
1747685142156092984,-0.002
1747685142163780872,-0.004
1747685142171468760,0.002
1747685142179156648,0.017
1747685142186844536,0.019
1747685142194532424,0.014
1747685142202220312,0.012
1747685142209908200,0.012
1747685142217596110,0.022
1747685142225283858,0.032
1747685142232971606,0.042
1747685142240659354,0.054
1747685142248347102,0.061
1747685142256034850,0.061
1747685142263722598,0.069
1747685142271410346,0.084
1747685142279098094,0.096
1747685142286785842,0.10300000000000001
1747685142294473590,0.113
1747685142302161338,0.11800000000000001
1747685142309849086,0.113
1747685142317536834,0.121
1747685142325224582,0.123
1747685142332912330,0.116
1747685142340600078,0.108
1747685142348287826,0.098
1747685142355975574,0.064
1747685142363663322,0.022
1747685142371351070,-0.017
1747685142379038818,-0.054
1747685142386726566,-0.076
1747685142394414314,-0.081
1747685142402102062,-0.091
1747685142409789810,-0.10300000000000001
1747685142417477558,-0.098
1747685142425165306,-0.094
1747685142432853054,-0.096
1747685142440540802,-0.089
1747685142448228550,-0.081
1747685142455916298,-0.081
1747685142463604046,-0.079
1747685142471291794,-0.074
1747685142478979542,-0.07100000000000001
1747685142486667290,-0.064
1747685142494355038,-0.059000000000000004
1747685142502042786,-0.064
1747685142509730534,-0.069
1747685142517418282,-0.066
1747685142525106030,-0.07100000000000001
1747685142532793778,-0.079
1747685142540481526,-0.074
1747685142548169274,-0.066
1747685142555857022,-0.07100000000000001
1747685142563544770,-0.07100000000000001
1747685142571232518,-0.061
1747685142578920266,-0.069
1747685142586608014,-0.074
1747685142594295762,-0.069
1747685142601983510,-0.07100000000000001
1747685142609671258,-0.079
1747685142617359006,-0.074
1747685142625046754,-0.066
1747685142632734502,-0.069
1747685142640422250,-0.059000000000000004
1747685142648109998,-0.042
1747685142655797746,-0.037
1747685142663485494,-0.024
1747685142671173242,-0.017
1747685142678860990,-0.042
1747685142686548738,-0.064
1747685142694236486,-0.061
1747685142701924234,-0.059000000000000004
1747685142709611982,-0.059000000000000004
1747685142717299730,-0.054
1747685142724987478,-0.054
1747685142732675226,-0.059000000000000004
1747685142740362974,-0.066
1747685142748050722,-0.069
1747685142755738470,0.029
1747685142763426218,0.371
1747685142771113966,0.714
1747685142778801786,0.549,85,709
1747685142786489534,-0.051000000000000004,,698
1747685142794177282,-0.403
1747685142801865030,-0.306
1747685142809552778,-0.192
1747685142817240526,-0.168
1747685142824928274,-0.084
1747685142832616022,-0.034
1747685142840303770,-0.059000000000000004
1747685142847991518,-0.054
1747685142855679266,-0.024
1747685142863367014,-0.019
1747685142871054762,-0.024
1747685142878742510,-0.019
1747685142886430258,-0.014
1747685142894118006,-0.009000000000000001
1747685142901805754,-0.002
1747685142909493502,0.0
1747685142917181250,0.0
1747685142924868998,0.009000000000000001
1747685142932556746,0.019
1747685142940244494,0.024
1747685142947932242,0.027
1747685142955619990,0.032
1747685142963307738,0.044
1747685142970995486,0.056
1747685142978683234,0.066
1747685142986370982,0.076
1747685142994058730,0.084
1747685143001746478,0.096
1747685143009434226,0.10300000000000001
1747685143017121974,0.101
1747685143024809722,0.098
1747685143032497470,0.101
1747685143040185218,0.10300000000000001
1747685143047872966,0.096
1747685143055560714,0.066
1747685143063248462,0.027
1747685143070936210,-0.002
1747685143078623958,-0.027
1747685143086311706,-0.054
1747685143093999454,-0.081
1747685143101687202,-0.101
1747685143109374950,-0.108
1747685143117062698,-0.111
1747685143124750446,-0.111
1747685143132438194,-0.108
1747685143140125942,-0.113
1747685143147813690,-0.113
1747685143155501438,-0.098
1747685143163189186,-0.096
1747685143170876934,-0.096
1747685143178564682,-0.084
1747685143186252430,-0.079
1747685143193940178,-0.08600000000000001
1747685143201627926,-0.08600000000000001
1747685143209315674,-0.081
1747685143217003422,-0.084
1747685143224691170,-0.08600000000000001
1747685143232378918,-0.08600000000000001
1747685143240066666,-0.081
1747685143247754414,-0.081
1747685143255442162,-0.081
1747685143263129910,-0.079
1747685143270817658,-0.084
1747685143278505406,-0.094
1747685143286193154,-0.089
1747685143293880902,-0.084
1747685143301568650,-0.084
1747685143309256398,-0.076
1747685143316944146,-0.07100000000000001
1747685143324631894,-0.076
1747685143332319642,-0.079
1747685143340007458,-0.081
1747685143347694997,-0.089
1747685143355382536,-0.084
1747685143363070075,-0.066
1747685143370757614,-0.047
1747685143378445153,-0.039
1747685143386132692,-0.034
1747685143393820231,-0.034
1747685143401507770,-0.051000000000000004
1747685143409195309,-0.069
1747685143416882848,-0.066
1747685143424570387,-0.069
1747685143432257926,-0.074
1747685143439945465,-0.07100000000000001
1747685143447633004,-0.064
1747685143455320543,-0.066
1747685143463008082,-0.066
1747685143470695621,-0.069
1747685143478383160,0.002
1747685143486070699,0.311
1747685143493758238,0.648
1747685143501445777,0.47000000000000003
1747685143509133316,-0.138
1747685143516820855,-0.47200000000000003
1747685143524508394,-0.361
1747685143532195933,-0.242
1747685143539883472,-0.212
1747685143547571011,-0.113
1747685143555258550,-0.044
1747685143562946089,-0.064
1747685143570633628,-0.051000000000000004
1747685143578321167,-0.019
1747685143586008706,-0.019
1747685143593696245,-0.019
1747685143601383784,-0.022
1747685143609071323,-0.024
1747685143616758862,-0.009000000000000001
1747685143624446401,0.007
1747685143632133940,0.014
1747685143639821479,0.014
1747685143647509018,0.019
1747685143655196557,0.027
1747685143662884096,0.044
1747685143670571635,0.056
1747685143678259174,0.059000000000000004
1747685143685946713,0.074
1747685143693634252,0.094
1747685143701321791,0.10300000000000001
1747685143709009330,0.113
1747685143716696869,0.123
1747685143724384408,0.121
1747685143732071947,0.131
1747685143739759486,0.148
1747685143747447025,0.16
1747685143755134564,0.168
1747685143762822103,0.16
1747685143770509642,0.136
1747685143778197181,0.111
1747685143785884720,0.098
1747685143793572259,0.064
1747685143801259798,0.007
1747685143808947337,-0.032
1747685143816634876,-0.039
1747685143824322415,-0.051000000000000004
1747685143832009954,-0.079
1747685143839697493,-0.094
1747685143847385032,-0.079
1747685143855072571,-0.076
1747685143862760110,-0.089
1747685143870447649,-0.081
1747685143878135188,-0.066
1747685143885822727,-0.07100000000000001
1747685143893510266,-0.076
1747685143901197873,-0.064,85,706
1747685143908885831,-0.054
1747685143916573789,-0.064
1747685143924261747,-0.069
1747685143931949705,-0.061
1747685143939637663,-0.061
1747685143947325621,-0.061
1747685143955013579,-0.054
1747685143962701537,-0.059000000000000004
1747685143970389495,-0.069
1747685143978077453,-0.076
1747685143985765411,-0.076
1747685143993453369,-0.074
1747685144001141327,-0.069
1747685144008829285,-0.066
1747685144016517243,-0.07100000000000001
1747685144024205201,-0.076
1747685144031893159,-0.079
1747685144039581117,-0.081
1747685144047269075,-0.081
1747685144054957033,-0.074
1747685144062644991,-0.066
1747685144070332949,-0.056
1747685144078020907,-0.044
1747685144085708865,-0.034
1747685144093396823,-0.027
1747685144101084781,-0.032
1747685144108772739,-0.061
1747685144116460697,-0.084
1747685144124148655,-0.074
1747685144131836613,-0.066
1747685144139524571,-0.07100000000000001
1747685144147212529,-0.07100000000000001
1747685144154900487,-0.069
1747685144162588445,-0.074
1747685144170276403,-0.079
1747685144177964361,-0.039
1747685144185652319,0.18
1747685144193340277,0.5690000000000001
1747685144201028235,0.611
1747685144208716193,0.034
1747685144216404151,-0.484
1747685144224092109,-0.447
1747685144231780067,-0.28200000000000003
1747685144239468025,-0.269
1747685144247155983,-0.183
1747685144254843941,-0.054
1747685144262531899,-0.051000000000000004
1747685144270219857,-0.076
1747685144277907815,-0.042
1747685144285595773,-0.024
1747685144293283731,-0.037
1747685144300971689,-0.034
1747685144308659647,-0.024
1747685144316347605,-0.024
1747685144324035563,-0.019
1747685144331723521,-0.012
1747685144339411479,-0.007
1747685144347099437,-0.002
1747685144354787395,0.0
1747685144362475353,0.007
1747685144370163311,0.024
1747685144377851269,0.022
1747685144385539227,0.027
1747685144393227185,0.044
1747685144400915143,0.051000000000000004
1747685144408603101,0.061
1747685144416291059,0.076
1747685144423979017,0.089
1747685144431666975,0.096
1747685144439354933,0.089
1747685144447042891,0.089
1747685144454730849,0.098
1747685144462418810,0.089
1747685144470106419,0.07100000000000001
1747685144477794028,0.07100000000000001
1747685144485481637,0.051000000000000004
1747685144493169246,0.004
1747685144500856855,-0.037
1747685144508544464,-0.066
1747685144516232073,-0.091
1747685144523919682,-0.111
1747685144531607291,-0.126
1747685144539294900,-0.131
1747685144546982509,-0.131
1747685144554670118,-0.128
1747685144562357727,-0.126
1747685144570045336,-0.126
1747685144577732945,-0.121
1747685144585420554,-0.108
1747685144593108163,-0.10300000000000001
1747685144600795772,-0.10300000000000001
1747685144608483381,-0.098
1747685144616170990,-0.091
1747685144623858599,-0.091
1747685144631546208,-0.098
1747685144639233817,-0.098
1747685144646921426,-0.091
1747685144654609035,-0.096
1747685144662296644,-0.108
1747685144669984253,-0.10300000000000001
1747685144677671862,-0.098
1747685144685359471,-0.10300000000000001
1747685144693047080,-0.106
1747685144700734689,-0.098
1747685144708422298,-0.096
1747685144716109907,-0.098
1747685144723797516,-0.094
1747685144731485125,-0.098
1747685144739172734,-0.106
1747685144746860343,-0.098
1747685144754547952,-0.096
1747685144762235561,-0.096
1747685144769923170,-0.084
1747685144777610779,-0.081
1747685144785298388,-0.081
1747685144792985997,-0.059000000000000004
1747685144800673606,-0.037
1747685144808361215,-0.051000000000000004
1747685144816048824,-0.074
1747685144823736433,-0.076
1747685144831424042,-0.076
1747685144839111651,-0.079
1747685144846799260,-0.079
1747685144854486869,-0.07100000000000001
1747685144862174478,-0.064
1747685144869862087,-0.074
1747685144877549696,-0.096
1747685144885237305,-0.044
1747685144892924914,0.247
1747685144900612523,0.665
1747685144908300132,0.682
1747685144915987741,0.101
1747685144923675350,-0.435
1747685144931362959,-0.405
1747685144939050568,-0.2
1747685144946738177,-0.17
1747685144954425786,-0.123
1747685144962113395,-0.044
1747685144969801004,-0.064
1747685144977488613,-0.081
1747685144985176222,-0.047
1747685144992863831,-0.032
1747685145000551440,-0.034
1747685145008239049,-0.022
1747685145015926658,-0.019
1747685145023614312,-0.022,85,707
1747685145031302200,-0.019
1747685145038990088,-0.014
1747685145046677976,-0.009000000000000001
1747685145054365864,-0.009000000000000001
1747685145062053752,-0.004
1747685145069741640,0.007
1747685145077429528,0.009000000000000001
1747685145085117416,0.014
1747685145092805304,0.029
1747685145100493192,0.039
1747685145108181080,0.037
1747685145115868968,0.034
1747685145123556856,0.047
1747685145131244744,0.059000000000000004
1747685145138932632,0.061
1747685145146620520,0.066
1747685145154308408,0.069
1747685145161996296,0.069
1747685145169684184,0.07100000000000001
1747685145177372072,0.061
1747685145185059960,0.044
1747685145192747848,0.029
1747685145200435736,0.0
1747685145208123624,-0.032
1747685145215811512,-0.056
1747685145223499400,-0.079
1747685145231187288,-0.101
1747685145238875176,-0.108
1747685145246563064,-0.111
1747685145254250952,-0.113
1747685145261938840,-0.116
1747685145269626728,-0.113
1747685145277314616,-0.111
1747685145285002504,-0.096
1747685145292690392,-0.08600000000000001
1747685145300378280,-0.098
1747685145308066168,-0.108
1747685145315754056,-0.101
1747685145323441944,-0.091
1747685145331129832,-0.08600000000000001
1747685145338817720,-0.08600000000000001
1747685145346505608,-0.091
1747685145354193496,-0.089
1747685145361881384,-0.081
1747685145369569272,-0.084
1747685145377257160,-0.094
1747685145384945048,-0.094
1747685145392632936,-0.08600000000000001
1747685145400320824,-0.08600000000000001
1747685145408008712,-0.084
1747685145415696600,-0.076
1747685145423384488,-0.07100000000000001
1747685145431072376,-0.074
1747685145438760264,-0.081
1747685145446448152,-0.091
1747685145454136040,-0.101
1747685145461823928,-0.096
1747685145469511816,-0.079
1747685145477199704,-0.066
1747685145484887592,-0.056
1747685145492575480,-0.044
1747685145500263368,-0.027
1747685145507951256,-0.029
1747685145515639144,-0.064
1747685145523327032,-0.079
1747685145531014920,-0.061
1747685145538702808,-0.056
1747685145546390696,-0.066
1747685145554078584,-0.064
1747685145561766472,-0.061
1747685145569454360,-0.064
1747685145577142248,-0.074
1747685145584830158,-0.066,85,723
1747685145592517906,0.116,,702
1747685145600205654,0.539
1747685145607893402,0.749
1747685145615581150,0.319
1747685145623268898,-0.306
1747685145630956646,-0.437
1747685145638644394,-0.23700000000000002
1747685145646332142,-0.168
1747685145654019890,-0.138
1747685145661707638,-0.056
1747685145669395386,-0.049
1747685145677083134,-0.07100000000000001
1747685145684770882,-0.047
1747685145692458630,-0.034
1747685145700146378,-0.032
1747685145707834126,-0.022
1747685145715521874,-0.017
1747685145723209622,-0.014
1747685145730897370,-0.014
1747685145738585118,-0.009000000000000001
1747685145746272866,0.0
1747685145753960614,0.002
1747685145761648362,0.007
1747685145769336110,0.014
1747685145777023858,0.017
1747685145784711606,0.022
1747685145792399354,0.037
1747685145800087102,0.047
1747685145807774850,0.049
1747685145815462598,0.054
1747685145823150346,0.059000000000000004
1747685145830838094,0.069
1747685145838525842,0.076
1747685145846213590,0.076
1747685145853901338,0.069
1747685145861589086,0.066
1747685145869276834,0.066
1747685145876964582,0.061
1747685145884652330,0.056
1747685145892340078,0.039
1747685145900027826,0.007
1747685145907715574,-0.022
1747685145915403322,-0.047
1747685145923091070,-0.066
1747685145930778818,-0.079
1747685145938466566,-0.08600000000000001
1747685145946154314,-0.098
1747685145953842062,-0.106
1747685145961529810,-0.098
1747685145969217558,-0.098
1747685145976905306,-0.096
1747685145984593054,-0.094
1747685145992280802,-0.098
1747685145999968550,-0.091
1747685146007656298,-0.079
1747685146015344046,-0.084
1747685146023031794,-0.089
1747685146030719542,-0.081
1747685146038407290,-0.07100000000000001
1747685146046095038,-0.079
1747685146053782786,-0.089
1747685146061470534,-0.08600000000000001
1747685146069158282,-0.081
1747685146076846030,-0.079
1747685146084533778,-0.081
1747685146092221526,-0.081
1747685146099909274,-0.081
1747685146107597022,-0.08600000000000001
1747685146115284770,-0.08600000000000001
1747685146122972518,-0.079
1747685146130660266,-0.076
1747685146138348014,-0.074
1747685146146035834,-0.081
1747685146153723861,-0.089
1747685146161411888,-0.08600000000000001
1747685146169099915,-0.079
1747685146176787942,-0.07100000000000001
1747685146184475969,-0.066
1747685146192163996,-0.064
1747685146199852023,-0.054
1747685146207540050,-0.032
1747685146215228077,-0.027
1747685146222916104,-0.044
1747685146230604131,-0.054
1747685146238292158,-0.059000000000000004
1747685146245980185,-0.069
1747685146253668212,-0.07100000000000001
1747685146261356239,-0.066
1747685146269044266,-0.059000000000000004
1747685146276732293,-0.054
1747685146284420320,-0.064
1747685146292108347,-0.076
1747685146299796374,-0.014
1747685146307484401,0.262
1747685146315172428,0.645
1747685146322860455,0.623
1747685146330548482,0.054
1747685146338236509,-0.405
1747685146345924536,-0.358
1747685146353612563,-0.20700000000000002
1747685146361300590,-0.188
1747685146368988617,-0.126
1747685146376676644,-0.047
1747685146384364671,-0.049
1747685146392052698,-0.054
1747685146399740725,-0.037
1747685146407428752,-0.037
1747685146415116779,-0.029
1747685146422804806,-0.014
1747685146430492833,-0.022
1747685146438180860,-0.027
1747685146445868887,-0.002
1747685146453556914,0.007
1747685146461244941,-0.007
1747685146468932968,0.0
1747685146476620995,0.012
1747685146484309022,0.014
1747685146491997049,0.024
1747685146499685076,0.037
1747685146507373103,0.044
1747685146515061130,0.047
1747685146522749157,0.054
1747685146530437184,0.066
1747685146538125211,0.07100000000000001
1747685146545813238,0.064
1747685146553501265,0.069
1747685146561189292,0.079
1747685146568877319,0.076
1747685146576565346,0.079
1747685146584253373,0.084
1747685146591941400,0.079
1747685146599629427,0.061
1747685146607317454,0.037
1747685146615005481,0.012
1747685146622693508,-0.014
1747685146630381535,-0.044
1747685146638069562,-0.07100000000000001
1747685146645757589,-0.084
1747685146653445616,-0.084
1747685146661133643,-0.08600000000000001
1747685146668821670,-0.089
1747685146676509697,-0.08600000000000001
1747685146684197724,-0.084
1747685146691885751,-0.081
1747685146699573778,-0.089
1747685146707261854,-0.08600000000000001,85,707
1747685146714949533,-0.079
1747685146722637212,-0.081
1747685146730324891,-0.081
1747685146738012570,-0.074
1747685146745700249,-0.07100000000000001
1747685146753387928,-0.079
1747685146761075607,-0.08600000000000001
1747685146768763286,-0.084
1747685146776450965,-0.08600000000000001
1747685146784138644,-0.091
1747685146791826323,-0.089
1747685146799514002,-0.081
1747685146807201681,-0.089
1747685146814889360,-0.091
1747685146822577039,-0.08600000000000001
1747685146830264718,-0.084
1747685146837952397,-0.08600000000000001
1747685146845640076,-0.081
1747685146853327755,-0.079
1747685146861015434,-0.08600000000000001
1747685146868703113,-0.089
1747685146876390792,-0.084
1747685146884078471,-0.076
1747685146891766150,-0.074
1747685146899453829,-0.061
1747685146907141508,-0.044
1747685146914829187,-0.032
1747685146922516866,-0.037
1747685146930204545,-0.051000000000000004
1747685146937892224,-0.069
1747685146945579903,-0.07100000000000001
1747685146953267582,-0.064
1747685146960955261,-0.061
1747685146968642940,-0.061
1747685146976330619,-0.059000000000000004
1747685146984018298,-0.061
1747685146991705977,-0.064
1747685146999393656,-0.061
1747685147007081335,-0.002
1747685147014769014,0.272
1747685147022456693,0.65
1747685147030144372,0.581
1747685147037832051,-0.017
1747685147045519730,-0.427
1747685147053207409,-0.34800000000000003
1747685147060895088,-0.22
1747685147068582767,-0.202
1747685147076270446,-0.116
1747685147083958125,-0.037
1747685147091645804,-0.054
1747685147099333483,-0.056
1747685147107021162,-0.029
1747685147114708841,-0.024
1747685147122396520,-0.027
1747685147130084199,-0.019
1747685147137771878,-0.017
1747685147145459557,-0.012
1747685147153147236,0.0
1747685147160834915,0.004
1747685147168522594,0.002
1747685147176210273,0.004
1747685147183897952,0.017
1747685147191585631,0.027
1747685147199273310,0.029
1747685147206960989,0.042
1747685147214648668,0.054
1747685147222336347,0.056
1747685147230024026,0.059000000000000004
1747685147237711705,0.074
1747685147245399384,0.08600000000000001
1747685147253087063,0.08600000000000001
1747685147260774742,0.084
1747685147268462439,0.081
1747685147276150397,0.081
1747685147283838355,0.084
1747685147291526313,0.089
1747685147299214271,0.084
1747685147306902229,0.066
1747685147314590187,0.047
1747685147322278145,0.019
1747685147329966103,-0.017
1747685147337654061,-0.049
1747685147345342019,-0.061
1747685147353029977,-0.07100000000000001
1747685147360717935,-0.081
1747685147368405893,-0.089
1747685147376093851,-0.096
1747685147383781809,-0.101
1747685147391469767,-0.098
1747685147399157725,-0.094
1747685147406845683,-0.08600000000000001
1747685147414533641,-0.076
1747685147422221599,-0.076
1747685147429909557,-0.084
1747685147437597515,-0.08600000000000001
1747685147445285473,-0.079
1747685147452973431,-0.074
1747685147460661389,-0.084
1747685147468349347,-0.096
1747685147476037305,-0.098
1747685147483725263,-0.094
1747685147491413221,-0.091
1747685147499101179,-0.091
1747685147506789137,-0.091
1747685147514477095,-0.094
1747685147522165053,-0.096
1747685147529853011,-0.096
1747685147537540969,-0.089
1747685147545228927,-0.07100000000000001
1747685147552916885,-0.074
1747685147560604843,-0.101
1747685147568292801,-0.111
1747685147575980759,-0.096
1747685147583668717,-0.084
1747685147591356675,-0.074
1747685147599044633,-0.056
1747685147606732591,-0.042
1747685147614420549,-0.037
1747685147622108507,-0.059000000000000004
1747685147629796465,-0.08600000000000001
1747685147637484423,-0.084
1747685147645172381,-0.074
1747685147652860339,-0.081
1747685147660548297,-0.084
1747685147668236255,-0.084
1747685147675924213,-0.08600000000000001
1747685147683612171,-0.08600000000000001
1747685147691300129,-0.084
1747685147698988087,-0.049
1747685147706676045,0.14100000000000001
1747685147714364003,0.512
1747685147722051961,0.606
1747685147729739919,0.064
1747685147737427877,-0.489
1747685147745115835,-0.467
1747685147752803793,-0.279
1747685147760491751,-0.28400000000000003
1747685147768179709,-0.222
1747685147775867667,-0.066
1747685147783555625,-0.034
1747685147791243583,-0.061
1747685147798931541,-0.039
1747685147806619499,-0.019
1747685147814307457,-0.027
1747685147821995415,-0.027
1747685147829683376,-0.017,85,702
1747685147837370985,-0.007,,712
1747685147845058594,0.002
1747685147852746203,0.009000000000000001
1747685147860433812,0.007
1747685147868121421,0.012
1747685147875809030,0.024
1747685147883496639,0.032
1747685147891184248,0.029
1747685147898871857,0.047
1747685147906559466,0.061
1747685147914247075,0.059000000000000004
1747685147921934684,0.07100000000000001
1747685147929622293,0.084
1747685147937309902,0.079
1747685147944997511,0.091
1747685147952685120,0.11800000000000001
1747685147960372729,0.113
1747685147968060338,0.089
1747685147975747947,0.091
1747685147983435556,0.10300000000000001
1747685147991123165,0.096
1747685147998810774,0.079
1747685148006498383,0.051000000000000004
1747685148014185992,0.012
1747685148021873601,-0.029
1747685148029561210,-0.061
1747685148037248819,-0.084
1747685148044936428,-0.096
1747685148052624037,-0.108
1747685148060311646,-0.131
1747685148067999255,-0.138
1747685148075686864,-0.11800000000000001
1747685148083374473,-0.113
1747685148091062082,-0.123
1747685148098749691,-0.113
1747685148106437300,-0.101
1747685148114124909,-0.108
1747685148121812518,-0.113
1747685148129500127,-0.108
1747685148137187736,-0.106
1747685148144875345,-0.101
1747685148152562954,-0.094
1747685148160250563,-0.101
1747685148167938172,-0.111
1747685148175625781,-0.113
1747685148183313390,-0.121
1747685148191000999,-0.123
1747685148198688608,-0.113
1747685148206376217,-0.113
1747685148214063826,-0.11800000000000001
1747685148221751435,-0.116
1747685148229439044,-0.113
1747685148237126653,-0.113
1747685148244814262,-0.106
1747685148252501871,-0.113
1747685148260189480,-0.11800000000000001
1747685148267877089,-0.098
1747685148275564698,-0.079
1747685148283252307,-0.074
1747685148290939916,-0.056
1747685148298627525,-0.054
1747685148306315134,-0.089
1747685148314002743,-0.106
1747685148321690352,-0.101
1747685148329377961,-0.094
1747685148337065570,-0.091
1747685148344753179,-0.098
1747685148352440788,-0.10300000000000001
1747685148360128397,-0.094
1747685148367816006,-0.08600000000000001
1747685148375503615,-0.069
1747685148383191224,0.089
1747685148390878878,0.465
1747685148398566766,0.613
1747685148406254654,0.121
1747685148413942542,-0.467
1747685148421630430,-0.497
1747685148429318318,-0.291
1747685148437006206,-0.28200000000000003
1747685148444694094,-0.254
1747685148452381982,-0.113
1747685148460069870,-0.056
1747685148467757758,-0.064
1747685148475445646,-0.042
1747685148483133534,-0.022
1747685148490821422,-0.022
1747685148498509310,-0.027
1747685148506197198,-0.027
1747685148513885086,-0.024
1747685148521572974,-0.022
1747685148529260862,-0.007
1747685148536948750,0.007
1747685148544636638,0.009000000000000001
1747685148552324526,0.012
1747685148560012414,0.017
1747685148567700302,0.029
1747685148575388190,0.039
1747685148583076078,0.029
1747685148590763966,0.027
1747685148598451854,0.064
1747685148606139742,0.096
1747685148613827630,0.084
1747685148621515518,0.07100000000000001
1747685148629203406,0.091
1747685148636891294,0.116
1747685148644579182,0.108
1747685148652267070,0.069
1747685148659954958,0.049
1747685148667642846,0.064
1747685148675330734,0.066
1747685148683018622,0.034
1747685148690706510,-0.004
1747685148698394398,-0.044
1747685148706082286,-0.081
1747685148713770174,-0.113
1747685148721458062,-0.133
1747685148729145950,-0.14300000000000002
1747685148736833838,-0.15
1747685148744521726,-0.155
1747685148752209614,-0.153
1747685148759897502,-0.148
1747685148767585390,-0.153
1747685148775273278,-0.148
1747685148782961166,-0.131
1747685148790649054,-0.131
1747685148798336942,-0.145
1747685148806024830,-0.14300000000000002
1747685148813712718,-0.131
1747685148821400606,-0.131
1747685148829088494,-0.131
1747685148836776382,-0.128
1747685148844464270,-0.128
1747685148852152158,-0.123
1747685148859840046,-0.113
1747685148867527934,-0.123
1747685148875215822,-0.133
1747685148882903710,-0.128
1747685148890591598,-0.123
1747685148898279486,-0.123
1747685148905967374,-0.123
1747685148913655262,-0.121
1747685148921343150,-0.113
1747685148929031038,-0.096
1747685148936718926,-0.081
1747685148944406814,-0.07100000000000001
1747685148952094724,-0.056,85,707
1747685148959782472,-0.051000000000000004
1747685148967470220,-0.069
1747685148975157968,-0.08600000000000001
1747685148982845716,-0.084
1747685148990533464,-0.081
1747685148998221212,-0.094
1747685149005908960,-0.089
1747685149013596708,-0.064
1747685149021284456,-0.069
1747685149028972204,-0.089
1747685149036659952,-0.07100000000000001
1747685149044347700,0.08600000000000001
1747685149052035448,0.452
1747685149059723196,0.675
1747685149067410944,0.304
1747685149075098692,-0.316
1747685149082786440,-0.47700000000000004
1747685149090474188,-0.28400000000000003
1747685149098161936,-0.222
1747685149105849684,-0.20500000000000002
1747685149113537432,-0.076
1747685149121225180,-0.024
1747685149128912928,-0.054
1747685149136600676,-0.042
1747685149144288424,-0.024
1747685149151976172,-0.017
1747685149159663920,-0.007
1747685149167351668,-0.022
1747685149175039416,-0.027
1747685149182727164,-0.002
1747685149190414912,0.004
1747685149198102660,-0.002
1747685149205790408,0.017
1747685149213478156,0.042
1747685149221165904,0.019
1747685149228853652,-0.002
1747685149236541400,0.029
1747685149244229148,0.054
1747685149251916896,0.049
1747685149259604644,0.049
1747685149267292392,0.066
1747685149274980140,0.084
1747685149282667888,0.079
1747685149290355636,0.074
1747685149298043384,0.08600000000000001
1747685149305731132,0.096
1747685149313418880,0.091
1747685149321106628,0.08600000000000001
1747685149328794376,0.07100000000000001
1747685149336482124,0.054
1747685149344169872,0.047
1747685149351857620,0.017
1747685149359545368,-0.024
1747685149367233116,-0.051000000000000004
1747685149374920864,-0.081
1747685149382608612,-0.108
1747685149390296360,-0.11800000000000001
1747685149397984108,-0.11800000000000001
1747685149405671856,-0.116
1747685149413359604,-0.113
1747685149421047352,-0.111
1747685149428735100,-0.106
1747685149436422848,-0.098
1747685149444110596,-0.096
1747685149451798344,-0.101
1747685149459486092,-0.098
1747685149467173840,-0.089
1747685149474861588,-0.091
1747685149482549336,-0.091
1747685149490237084,-0.084
1747685149497924832,-0.091
1747685149505612580,-0.101
1747685149513300400,-0.089
1747685149520988148,-0.079
1747685149528675896,-0.08600000000000001
1747685149536363644,-0.101
1747685149544051392,-0.111
1747685149551739140,-0.108
1747685149559426888,-0.106
1747685149567114636,-0.101
1747685149574802384,-0.089
1747685149582490132,-0.076
1747685149590177880,-0.07100000000000001
1747685149597865628,-0.061
1747685149605553376,-0.047
1747685149613241124,-0.054
1747685149620928872,-0.081
1747685149628616620,-0.096
1747685149636304368,-0.096
1747685149643992116,-0.098
1747685149651679864,-0.091
1747685149659367612,-0.08600000000000001
1747685149667055360,-0.084
1747685149674743108,-0.081
1747685149682430856,-0.094
1747685149690118604,-0.074
1747685149697806352,0.155
1747685149705494100,0.5710000000000001
1747685149713181848,0.6920000000000001
1747685149720869596,0.227
1747685149728557344,-0.341
1747685149736245092,-0.43
1747685149743932840,-0.23500000000000001
1747685149751620588,-0.163
1747685149759308336,-0.133
1747685149766996084,-0.064
1747685149774683832,-0.059000000000000004
1747685149782371580,-0.074
1747685149790059328,-0.054
1747685149797747076,-0.034
1747685149805434824,-0.032
1747685149813122572,-0.027
1747685149820810320,-0.019
1747685149828498068,-0.019
1747685149836185816,-0.017
1747685149843873564,-0.009000000000000001
1747685149851561312,-0.004
1747685149859249060,-0.002
1747685149866936808,0.002
1747685149874624556,0.009000000000000001
1747685149882312304,0.012
1747685149890000052,0.022
1747685149897687800,0.039
1747685149905375548,0.042
1747685149913063296,0.044
1747685149920751044,0.054
1747685149928438792,0.059000000000000004
1747685149936126540,0.066
1747685149943814288,0.07100000000000001
1747685149951502036,0.066
1747685149959189784,0.069
1747685149966877532,0.07100000000000001
1747685149974565280,0.069
1747685149982253028,0.066
1747685149989940776,0.054
1747685149997628524,0.019
1747685150005316272,-0.014
1747685150013004020,-0.037
1747685150020691768,-0.061
1747685150028379516,-0.089
1747685150036067264,-0.096
1747685150043755012,-0.101
1747685150051442760,-0.11800000000000001
1747685150059130508,-0.126
1747685150066818256,-0.106
1747685150074506072,-0.098,85,693
1747685150082193960,-0.106,,678
1747685150089881848,-0.098
1747685150097569736,-0.096
1747685150105257624,-0.094
1747685150112945512,-0.079
1747685150120633400,-0.076
1747685150128321288,-0.089
1747685150136009176,-0.08600000000000001
1747685150143697064,-0.074
1747685150151384952,-0.079
1747685150159072840,-0.079
1747685150166760728,-0.066
1747685150174448616,-0.061
1747685150182136504,-0.074
1747685150189824392,-0.076
1747685150197512280,-0.066
1747685150205200168,-0.07100000000000001
1747685150212888056,-0.08600000000000001
1747685150220575944,-0.081
1747685150228263832,-0.066
1747685150235951720,-0.064
1747685150243639608,-0.056
1747685150251327496,-0.042
1747685150259015384,-0.029
1747685150266703272,-0.027
1747685150274391160,-0.042
1747685150282079048,-0.051000000000000004
1747685150289766936,-0.059000000000000004
1747685150297454824,-0.07100000000000001
1747685150305142712,-0.066
1747685150312830600,-0.059000000000000004
1747685150320518488,-0.064
1747685150328206376,-0.064
1747685150335894264,-0.061
1747685150343582152,-0.069
1747685150351270040,0.014
1747685150358957928,0.343
1747685150366645816,0.722
1747685150374333704,0.616
1747685150382021592,0.0
1747685150389709480,-0.41300000000000003
1747685150397397368,-0.314
1747685150405085256,-0.165
1747685150412773144,-0.158
1747685150420461032,-0.096
1747685150428148920,-0.037
1747685150435836808,-0.069
1747685150443524696,-0.069
1747685150451212584,-0.034
1747685150458900472,-0.032
1747685150466588360,-0.037
1747685150474276248,-0.019
1747685150481964136,-0.009000000000000001
1747685150489652024,-0.007
1747685150497339912,-0.007
1747685150505027800,-0.002
1747685150512715688,0.004
1747685150520403576,0.009000000000000001
1747685150528091464,0.012
1747685150535779352,0.024
1747685150543467240,0.037
1747685150551155128,0.042
1747685150558843016,0.047
1747685150566530904,0.059000000000000004
1747685150574218792,0.066
1747685150581906680,0.074
1747685150589594568,0.084
1747685150597282456,0.094
1747685150604970344,0.091
1747685150612658232,0.08600000000000001
1747685150620346120,0.081
1747685150628034008,0.091
1747685150635721922,0.094,85,663
1747685150643409531,0.07100000000000001
1747685150651097140,0.042
1747685150658784749,0.022
1747685150666472358,-0.007
1747685150674159967,-0.044
1747685150681847576,-0.066
1747685150689535185,-0.076
1747685150697222794,-0.08600000000000001
1747685150704910403,-0.089
1747685150712598012,-0.084
1747685150720285621,-0.089
1747685150727973230,-0.106
1747685150735660839,-0.096
1747685150743348448,-0.079
1747685150751036057,-0.081
1747685150758723666,-0.081
1747685150766411275,-0.076
1747685150774098884,-0.076
1747685150781786493,-0.074
1747685150789474102,-0.07100000000000001
1747685150797161711,-0.074
1747685150804849320,-0.07100000000000001
1747685150812536929,-0.069
1747685150820224538,-0.069
1747685150827912147,-0.066
1747685150835599756,-0.066
1747685150843287365,-0.069
1747685150850974974,-0.066
1747685150858662583,-0.069
1747685150866350192,-0.076
1747685150874037801,-0.07100000000000001
1747685150881725410,-0.064
1747685150889413019,-0.074
1747685150897100628,-0.084
1747685150904788237,-0.07100000000000001
1747685150912475846,-0.061
1747685150920163455,-0.066
1747685150927851064,-0.056
1747685150935538673,-0.034
1747685150943226282,-0.017
1747685150950913891,-0.024
1747685150958601500,-0.056
1747685150966289109,-0.074
1747685150973976718,-0.069
1747685150981664327,-0.064
1747685150989351936,-0.056
1747685150997039545,-0.054
1747685151004727154,-0.059000000000000004
1747685151012414763,-0.059000000000000004
1747685151020102372,-0.069
1747685151027789981,-0.061
1747685151035477590,0.098
1747685151043165199,0.482
1747685151050852808,0.685
1747685151058540417,0.301
1747685151066228026,-0.267
1747685151073915635,-0.405
1747685151081603244,-0.262
1747685151089290853,-0.20500000000000002
1747685151096978462,-0.165
1747685151104666071,-0.07100000000000001
1747685151112353680,-0.049
1747685151120041289,-0.066
1747685151127728898,-0.044
1747685151135416507,-0.027
1747685151143104116,-0.037
1747685151150791725,-0.037
1747685151158479334,-0.019
1747685151166166943,-0.009000000000000001
1747685151173854552,-0.009000000000000001
1747685151181542161,-0.007
1747685151189229770,0.002
1747685151196917420,0.012
1747685151204605447,0.012
1747685151212293474,0.014
1747685151219981501,0.022
1747685151227669528,0.029
1747685151235357555,0.042
1747685151243045582,0.054
1747685151250733609,0.061
1747685151258421636,0.066
1747685151266109663,0.07100000000000001
1747685151273797690,0.081
1747685151281485717,0.081
1747685151289173744,0.079
1747685151296861771,0.084
1747685151304549798,0.084
1747685151312237825,0.084
1747685151319925852,0.08600000000000001
1747685151327613879,0.079
1747685151335301906,0.054
1747685151342989933,0.019
1747685151350677960,-0.019
1747685151358365987,-0.051000000000000004
1747685151366054014,-0.061
1747685151373742041,-0.07100000000000001
1747685151381430068,-0.08600000000000001
1747685151389118095,-0.091
1747685151396806122,-0.089
1747685151404494149,-0.089
1747685151412182176,-0.08600000000000001
1747685151419870203,-0.081
1747685151427558230,-0.084
1747685151435246257,-0.079
1747685151442934284,-0.061
1747685151450622311,-0.061
1747685151458310338,-0.081
1747685151465998365,-0.084
1747685151473686392,-0.074
1747685151481374419,-0.074
1747685151489062446,-0.076
1747685151496750473,-0.07100000000000001
1747685151504438500,-0.076
1747685151512126527,-0.084
1747685151519814554,-0.076
1747685151527502581,-0.07100000000000001
1747685151535190608,-0.081
1747685151542878635,-0.079
1747685151550566662,-0.07100000000000001
1747685151558254689,-0.076
1747685151565942716,-0.079
1747685151573630743,-0.076
1747685151581318770,-0.08600000000000001
1747685151589006797,-0.094
1747685151596694824,-0.08600000000000001
1747685151604382851,-0.064
1747685151612070878,-0.047
1747685151619758905,-0.039
1747685151627446932,-0.034
1747685151635134959,-0.039
1747685151642822986,-0.056
1747685151650511013,-0.069
1747685151658199040,-0.066
1747685151665887067,-0.064
1747685151673575094,-0.069
1747685151681263121,-0.069
1747685151688951148,-0.064
1747685151696639175,-0.064
1747685151704327202,-0.074
1747685151712015229,-0.051000000000000004
1747685151719703256,0.136
1747685151727391283,0.522
1747685151735079310,0.665
1747685151742767337,0.22
1747685151750455364,-0.316
1747685151758143444,-0.395,87,652
1747685151765831332,-0.247,,658
1747685151773519220,-0.20700000000000002
1747685151781207108,-0.15
1747685151788894996,-0.061
1747685151796582884,-0.061
1747685151804270772,-0.07100000000000001
1747685151811958660,-0.044
1747685151819646548,-0.042
1747685151827334436,-0.039
1747685151835022324,-0.022
1747685151842710212,-0.022
1747685151850398100,-0.034
1747685151858085988,-0.024
1747685151865773876,-0.007
1747685151873461764,0.0
1747685151881149652,0.002
1747685151888837540,0.007
1747685151896525428,0.014
1747685151904213316,0.017
1747685151911901204,0.022
1747685151919589092,0.034
1747685151927276980,0.044
1747685151934964868,0.051000000000000004
1747685151942652756,0.059000000000000004
1747685151950340644,0.069
1747685151958028532,0.074
1747685151965716420,0.074
1747685151973404308,0.074
1747685151981092196,0.079
1747685151988780084,0.074
1747685151996467972,0.07100000000000001
1747685152004155860,0.066
1747685152011843748,0.049
1747685152019531636,0.034
1747685152027219524,0.014
1747685152034907412,-0.024
1747685152042595300,-0.064
1747685152050283188,-0.091
1747685152057971076,-0.098
1747685152065658964,-0.094
1747685152073346852,-0.101
1747685152081034740,-0.108
1747685152088722628,-0.106
1747685152096410516,-0.10300000000000001
1747685152104098404,-0.098
1747685152111786292,-0.08600000000000001
1747685152119474180,-0.084
1747685152127162068,-0.08600000000000001
1747685152134849956,-0.08600000000000001
1747685152142537844,-0.084
1747685152150225732,-0.089
1747685152157913620,-0.084
1747685152165601508,-0.081
1747685152173289396,-0.091
1747685152180977284,-0.08600000000000001
1747685152188665172,-0.079
1747685152196353060,-0.08600000000000001
1747685152204040948,-0.094
1747685152211728836,-0.08600000000000001
1747685152219416724,-0.084
1747685152227104612,-0.084
1747685152234792500,-0.079
1747685152242480388,-0.079
1747685152250168276,-0.091
1747685152257856164,-0.098
1747685152265544052,-0.091
1747685152273231940,-0.084
1747685152280919828,-0.074
1747685152288607716,-0.069
1747685152296295604,-0.061
1747685152303983492,-0.042
1747685152311671380,-0.037
1747685152319359290,-0.061
1747685152327047247,-0.076
1747685152334735204,-0.07100000000000001
1747685152342423161,-0.064
1747685152350111118,-0.066
1747685152357799075,-0.074
1747685152365487032,-0.074
1747685152373174989,-0.066
1747685152380862946,-0.061
1747685152388550903,0.044
1747685152396238860,0.395
1747685152403926817,0.6950000000000001
1747685152411614774,0.435
1747685152419302731,-0.163
1747685152426990688,-0.41300000000000003
1747685152434678645,-0.277
1747685152442366602,-0.195
1747685152450054559,-0.185
1747685152457742516,-0.094
1747685152465430473,-0.039
1747685152473118430,-0.07100000000000001
1747685152480806387,-0.069
1747685152488494344,-0.034
1747685152496182301,-0.037
1747685152503870258,-0.039
1747685152511558215,-0.019
1747685152519246172,-0.017
1747685152526934129,-0.024
1747685152534622086,-0.017
1747685152542310043,-0.012
1747685152549998000,-0.007
1747685152557685957,0.007
1747685152565373914,0.014
1747685152573061871,0.019
1747685152580749828,0.034
1747685152588437785,0.039
1747685152596125742,0.044
1747685152603813699,0.056
1747685152611501656,0.061
1747685152619189613,0.064
1747685152626877570,0.076
1747685152634565527,0.084
1747685152642253484,0.079
1747685152649941441,0.076
1747685152657629398,0.079
1747685152665317355,0.079
1747685152673005312,0.079
1747685152680693269,0.07100000000000001
1747685152688381226,0.042
1747685152696069183,-0.002
1747685152703757140,-0.047
1747685152711445097,-0.076
1747685152719133054,-0.081
1747685152726821011,-0.079
1747685152734508968,-0.089
1747685152742196925,-0.098
1747685152749884882,-0.10300000000000001
1747685152757572839,-0.101
1747685152765260796,-0.091
1747685152772948753,-0.091
1747685152780636710,-0.096
1747685152788324667,-0.08600000000000001
1747685152796012624,-0.076
1747685152803700581,-0.081
1747685152811388538,-0.08600000000000001
1747685152819076495,-0.084
1747685152826764452,-0.084
1747685152834452409,-0.08600000000000001
1747685152842140366,-0.081
1747685152849828323,-0.074
1747685152857516280,-0.074
1747685152865204237,-0.094
1747685152872892194,-0.10300000000000001
1747685152880580223,-0.089,87,681
1747685152888268041,-0.08600000000000001
1747685152895955859,-0.098
1747685152903643677,-0.098
1747685152911331495,-0.094
1747685152919019313,-0.096
1747685152926707131,-0.08600000000000001
1747685152934394949,-0.08600000000000001
1747685152942082767,-0.098
1747685152949770585,-0.076
1747685152957458403,-0.039
1747685152965146221,-0.049
1747685152972834039,-0.079
1747685152980521857,-0.084
1747685152988209675,-0.079
1747685152995897493,-0.079
1747685153003585311,-0.076
1747685153011273129,-0.076
1747685153018960947,-0.081
1747685153026648765,-0.08600000000000001
1747685153034336583,-0.051000000000000004
1747685153042024401,0.168
1747685153049712219,0.556
1747685153057400037,0.648
1747685153065087855,0.17500000000000002
1747685153072775673,-0.329
1747685153080463491,-0.376
1747685153088151309,-0.23500000000000001
1747685153095839127,-0.202
1747685153103526945,-0.15
1747685153111214763,-0.064
1747685153118902581,-0.066
1747685153126590399,-0.084
1747685153134278217,-0.061
1747685153141966035,-0.047
1747685153149653853,-0.049
1747685153157341671,-0.047
1747685153165029489,-0.042
1747685153172717307,-0.037
1747685153180405125,-0.024
1747685153188092943,-0.019
1747685153195780761,-0.024
1747685153203468579,-0.019
1747685153211156397,-0.009000000000000001
1747685153218844215,-0.002
1747685153226532033,0.009000000000000001
1747685153234219851,0.022
1747685153241907669,0.029
1747685153249595487,0.039
1747685153257283305,0.049
1747685153264971123,0.059000000000000004
1747685153272658941,0.064
1747685153280346759,0.066
1747685153288034577,0.069
1747685153295722395,0.07100000000000001
1747685153303410213,0.074
1747685153311098031,0.074
1747685153318785849,0.07100000000000001
1747685153326473667,0.061
1747685153334161485,0.042
1747685153341849303,0.017
1747685153349537121,-0.017
1747685153357224939,-0.044
1747685153364912757,-0.069
1747685153372600575,-0.101
1747685153380288393,-0.116
1747685153387976211,-0.111
1747685153395664029,-0.116
1747685153403351847,-0.11800000000000001
1747685153411039665,-0.106
1747685153418727483,-0.111
1747685153426415301,-0.11800000000000001
1747685153434103119,-0.106
1747685153441790986,-0.096
1747685153449479013,-0.098
1747685153457167040,-0.094
1747685153464855067,-0.08600000000000001
1747685153472543094,-0.091
1747685153480231121,-0.094
1747685153487919148,-0.089
1747685153495607175,-0.091
1747685153503295202,-0.096
1747685153510983229,-0.091
1747685153518671256,-0.091
1747685153526359283,-0.096
1747685153534047310,-0.096
1747685153541735337,-0.096
1747685153549423364,-0.101
1747685153557111391,-0.101
1747685153564799418,-0.10300000000000001
1747685153572487445,-0.113
1747685153580175472,-0.10300000000000001
1747685153587863499,-0.08600000000000001
1747685153595551526,-0.089
1747685153603239553,-0.089
1747685153610927580,-0.059000000000000004
1747685153618615607,-0.047
1747685153626303634,-0.074
1747685153633991661,-0.094
1747685153641679688,-0.08600000000000001
1747685153649367715,-0.081
1747685153657055742,-0.081
1747685153664743769,-0.081
1747685153672431796,-0.084
1747685153680119823,-0.089
1747685153687807850,-0.081
1747685153695495877,0.037
1747685153703183904,0.378
1747685153710871931,0.648
1747685153718559958,0.388
1747685153726247985,-0.183
1747685153733936012,-0.423
1747685153741624039,-0.304
1747685153749312066,-0.225
1747685153757000093,-0.2
1747685153764688120,-0.111
1747685153772376147,-0.069
1747685153780064174,-0.089
1747685153787752201,-0.084
1747685153795440228,-0.061
1747685153803128255,-0.056
1747685153810816282,-0.059000000000000004
1747685153818504309,-0.054
1747685153826192336,-0.049
1747685153833880363,-0.044
1747685153841568390,-0.034
1747685153849256417,-0.024
1747685153856944444,-0.014
1747685153864632471,-0.009000000000000001
1747685153872320498,-0.004
1747685153880008525,0.002
1747685153887696552,0.002
1747685153895384579,0.009000000000000001
1747685153903072606,0.024
1747685153910760633,0.037
1747685153918448660,0.047
1747685153926136687,0.059000000000000004
1747685153933824714,0.069
1747685153941512741,0.066
1747685153949200768,0.07100000000000001
1747685153956888795,0.081
1747685153964576822,0.069
1747685153972264849,0.054
1747685153979952876,0.056
1747685153987640903,0.054
1747685153995328930,0.024
1747685154003017006,-0.007,88,684
1747685154010704615,-0.039,,672
1747685154018392224,-0.07100000000000001
1747685154026079833,-0.096
1747685154033767442,-0.11800000000000001
1747685154041455051,-0.128
1747685154049142660,-0.126
1747685154056830269,-0.136
1747685154064517878,-0.14100000000000001
1747685154072205487,-0.131
1747685154079893096,-0.121
1747685154087580705,-0.116
1747685154095268314,-0.108
1747685154102955923,-0.113
1747685154110643532,-0.123
1747685154118331141,-0.116
1747685154126018750,-0.098
1747685154133706359,-0.101
1747685154141393968,-0.116
1747685154149081577,-0.113
1747685154156769186,-0.108
1747685154164456795,-0.116
1747685154172144404,-0.116
1747685154179832013,-0.10300000000000001
1747685154187519622,-0.108
1747685154195207231,-0.11800000000000001
1747685154202894840,-0.121
1747685154210582449,-0.126
1747685154218270058,-0.126
1747685154225957667,-0.113
1747685154233645276,-0.113
1747685154241332885,-0.106
1747685154249020494,-0.081
1747685154256708103,-0.07100000000000001
1747685154264395712,-0.091
1747685154272083321,-0.106
1747685154279770930,-0.096
1747685154287458539,-0.094
1747685154295146148,-0.106
1747685154302833757,-0.106
1747685154310521366,-0.096
1747685154318208975,-0.096
1747685154325896584,-0.10300000000000001
1747685154333584193,-0.049
1747685154341271802,0.225
1747685154348959411,0.606
1747685154356647020,0.546
1747685154364334629,-0.039
1747685154372022238,-0.452
1747685154379709847,-0.383
1747685154387397456,-0.262
1747685154395085065,-0.252
1747685154402772674,-0.168
1747685154410460283,-0.074
1747685154418147892,-0.079
1747685154425835501,-0.081
1747685154433523110,-0.056
1747685154441210719,-0.054
1747685154448898328,-0.056
1747685154456585937,-0.044
1747685154464273546,-0.032
1747685154471961155,-0.029
1747685154479648764,-0.024
1747685154487336373,-0.014
1747685154495023982,-0.009000000000000001
1747685154502711591,-0.004
1747685154510399200,0.002
1747685154518086809,0.009000000000000001
1747685154525774418,0.014
1747685154533462027,0.019
1747685154541149636,0.037
1747685154548837245,0.054
1747685154556524854,0.061
1747685154564212504,0.07100000000000001,88,650
1747685154571900462,0.08600000000000001
1747685154579588420,0.084
1747685154587276378,0.084
1747685154594964336,0.089
1747685154602652294,0.08600000000000001
1747685154610340252,0.081
1747685154618028210,0.081
1747685154625716168,0.074
1747685154633404126,0.054
1747685154641092084,0.027
1747685154648780042,-0.009000000000000001
1747685154656468000,-0.049
1747685154664155958,-0.08600000000000001
1747685154671843916,-0.11800000000000001
1747685154679531874,-0.123
1747685154687219832,-0.113
1747685154694907790,-0.116
1747685154702595748,-0.121
1747685154710283706,-0.116
1747685154717971664,-0.111
1747685154725659622,-0.101
1747685154733347580,-0.096
1747685154741035538,-0.094
1747685154748723496,-0.08600000000000001
1747685154756411454,-0.079
1747685154764099412,-0.081
1747685154771787370,-0.084
1747685154779475328,-0.079
1747685154787163286,-0.079
1747685154794851244,-0.08600000000000001
1747685154802539202,-0.089
1747685154810227160,-0.081
1747685154817915118,-0.074
1747685154825603076,-0.084
1747685154833291034,-0.096
1747685154840978992,-0.08600000000000001
1747685154848666950,-0.076
1747685154856354908,-0.08600000000000001
1747685154864042866,-0.094
1747685154871730824,-0.101
1747685154879418782,-0.098
1747685154887106740,-0.079
1747685154894794698,-0.069
1747685154902482656,-0.07100000000000001
1747685154910170614,-0.056
1747685154917858572,-0.032
1747685154925546530,-0.039
1747685154933234488,-0.069
1747685154940922446,-0.079
1747685154948610404,-0.066
1747685154956298362,-0.064
1747685154963986320,-0.066
1747685154971674278,-0.061
1747685154979362236,-0.059000000000000004
1747685154987050194,-0.076
1747685154994738152,-0.069
1747685155002426110,0.111
1747685155010114068,0.512
1747685155017802026,0.717
1747685155025489984,0.336
1747685155033177942,-0.23500000000000001
1747685155040865900,-0.385
1747685155048553858,-0.227
1747685155056241816,-0.17300000000000001
1747685155063929774,-0.155
1747685155071617732,-0.07100000000000001
1747685155079305690,-0.044
1747685155086993648,-0.064
1747685155094681606,-0.049
1747685155102369564,-0.032
1747685155110057522,-0.037
1747685155117745480,-0.039
1747685155125433441,-0.029
1747685155133121120,-0.022
1747685155140808799,-0.017
1747685155148496478,-0.009000000000000001
1747685155156184157,-0.009000000000000001
1747685155163871836,-0.007
1747685155171559515,0.009000000000000001
1747685155179247194,0.022
1747685155186934873,0.022
1747685155194622552,0.017
1747685155202310231,0.027
1747685155209997910,0.039
1747685155217685589,0.049
1747685155225373268,0.064
1747685155233060947,0.074
1747685155240748626,0.074
1747685155248436305,0.076
1747685155256123984,0.091
1747685155263811663,0.094
1747685155271499342,0.074
1747685155279187021,0.069
1747685155286874700,0.084
1747685155294562379,0.066
1747685155302250058,0.032
1747685155309937737,0.009000000000000001
1747685155317625416,-0.014
1747685155325313095,-0.049
1747685155333000774,-0.064
1747685155340688453,-0.076
1747685155348376132,-0.096
1747685155356063811,-0.101
1747685155363751490,-0.094
1747685155371439169,-0.094
1747685155379126848,-0.096
1747685155386814527,-0.089
1747685155394502206,-0.084
1747685155402189885,-0.079
1747685155409877564,-0.076
1747685155417565243,-0.081
1747685155425252922,-0.089
1747685155432940601,-0.084
1747685155440628280,-0.076
1747685155448315959,-0.076
1747685155456003638,-0.076
1747685155463691317,-0.079
1747685155471378996,-0.081
1747685155479066675,-0.074
1747685155486754354,-0.07100000000000001
1747685155494442033,-0.08600000000000001
1747685155502129712,-0.091
1747685155509817391,-0.079
1747685155517505070,-0.07100000000000001
1747685155525192749,-0.079
1747685155532880428,-0.08600000000000001
1747685155540568107,-0.08600000000000001
1747685155548255786,-0.089
1747685155555943465,-0.084
1747685155563631144,-0.07100000000000001
1747685155571318823,-0.066
1747685155579006502,-0.047
1747685155586694181,-0.024
1747685155594381860,-0.039
1747685155602069539,-0.069
1747685155609757218,-0.079
1747685155617444897,-0.066
1747685155625132576,-0.059000000000000004
1747685155632820255,-0.064
1747685155640507934,-0.069
1747685155648195613,-0.074
1747685155655883292,-0.076
1747685155663570971,-0.076
1747685155671258650,0.014
1747685155678946329,0.353
1747685155686634030,0.6900000000000001,89,656
1747685155694321848,0.509,,641
1747685155702009666,-0.07100000000000001
1747685155709697484,-0.39
1747685155717385302,-0.299
1747685155725073120,-0.195
1747685155732760938,-0.17500000000000002
1747685155740448756,-0.106
1747685155748136574,-0.059000000000000004
1747685155755824392,-0.066
1747685155763512210,-0.056
1747685155771200028,-0.042
1747685155778887846,-0.044
1747685155786575664,-0.039
1747685155794263482,-0.024
1747685155801951300,-0.019
1747685155809639118,-0.019
1747685155817326936,-0.014
1747685155825014754,-0.012
1747685155832702572,-0.012
1747685155840390390,-0.004
1747685155848078208,0.012
1747685155855766026,0.022
1747685155863453844,0.019
1747685155871141662,0.024
1747685155878829480,0.042
1747685155886517298,0.049
1747685155894205116,0.049
1747685155901892934,0.061
1747685155909580752,0.076
1747685155917268570,0.076
1747685155924956388,0.069
1747685155932644206,0.069
1747685155940332024,0.069
1747685155948019842,0.07100000000000001
1747685155955707660,0.074
1747685155963395478,0.061
1747685155971083296,0.039
1747685155978771114,0.014
1747685155986458932,-0.014
1747685155994146750,-0.047
1747685156001834568,-0.074
1747685156009522386,-0.091
1747685156017210204,-0.096
1747685156024898022,-0.098
1747685156032585840,-0.101
1747685156040273658,-0.101
1747685156047961476,-0.101
1747685156055649294,-0.101
1747685156063337112,-0.101
1747685156071024930,-0.098
1747685156078712748,-0.089
1747685156086400566,-0.084
1747685156094088384,-0.08600000000000001
1747685156101776202,-0.079
1747685156109464020,-0.074
1747685156117151838,-0.081
1747685156124839656,-0.084
1747685156132527474,-0.084
1747685156140215292,-0.08600000000000001
1747685156147903110,-0.081
1747685156155590928,-0.074
1747685156163278746,-0.076
1747685156170966564,-0.081
1747685156178654382,-0.074
1747685156186342200,-0.07100000000000001
1747685156194030018,-0.079
1747685156201717836,-0.074
1747685156209405654,-0.07100000000000001
1747685156217093472,-0.089
1747685156224781290,-0.096
1747685156232469108,-0.08600000000000001
1747685156240156926,-0.081
1747685156247844789,-0.079
1747685156255532746,-0.069
1747685156263220703,-0.056
1747685156270908660,-0.039
1747685156278596617,-0.027
1747685156286284574,-0.042
1747685156293972531,-0.064
1747685156301660488,-0.074
1747685156309348445,-0.074
1747685156317036402,-0.07100000000000001
1747685156324724359,-0.07100000000000001
1747685156332412316,-0.066
1747685156340100273,-0.061
1747685156347788230,-0.069
1747685156355476187,-0.076
1747685156363164144,0.029
1747685156370852101,0.373
1747685156378540058,0.672
1747685156386228015,0.445
1747685156393915972,-0.126
1747685156401603929,-0.393
1747685156409291886,-0.277
1747685156416979843,-0.195
1747685156424667800,-0.178
1747685156432355757,-0.094
1747685156440043714,-0.049
1747685156447731671,-0.069
1747685156455419628,-0.056
1747685156463107585,-0.029
1747685156470795542,-0.032
1747685156478483499,-0.039
1747685156486171456,-0.024
1747685156493859413,-0.014
1747685156501547370,-0.019
1747685156509235327,-0.019
1747685156516923284,-0.007
1747685156524611241,-0.004
1747685156532299198,-0.004
1747685156539987155,0.002
1747685156547675112,0.014
1747685156555363069,0.019
1747685156563051026,0.027
1747685156570738983,0.032
1747685156578426940,0.037
1747685156586114897,0.049
1747685156593802854,0.059000000000000004
1747685156601490811,0.066
1747685156609178768,0.079
1747685156616866725,0.074
1747685156624554682,0.054
1747685156632242639,0.059000000000000004
1747685156639930596,0.069
1747685156647618553,0.059000000000000004
1747685156655306510,0.054
1747685156662994467,0.047
1747685156670682424,0.012
1747685156678370381,-0.019
1747685156686058338,-0.039
1747685156693746295,-0.07100000000000001
1747685156701434252,-0.096
1747685156709122209,-0.096
1747685156716810166,-0.091
1747685156724498123,-0.10300000000000001
1747685156732186080,-0.116
1747685156739874037,-0.111
1747685156747561994,-0.098
1747685156755249951,-0.098
1747685156762937908,-0.098
1747685156770625865,-0.089
1747685156778313822,-0.081
1747685156786001779,-0.079
1747685156793689736,-0.089
1747685156801377693,-0.091
1747685156809065722,-0.084,89,665
1747685156816754655,-0.08600000000000001
1747685156824443588,-0.094
1747685156832132521,-0.091
1747685156839821454,-0.08600000000000001
1747685156847510387,-0.084
1747685156855199320,-0.08600000000000001
1747685156862888253,-0.089
1747685156870577186,-0.08600000000000001
1747685156878266119,-0.084
1747685156885955052,-0.08600000000000001
1747685156893643985,-0.091
1747685156901332918,-0.08600000000000001
1747685156909021851,-0.084
1747685156916710784,-0.091
1747685156924399717,-0.101
1747685156932088650,-0.098
1747685156939777583,-0.079
1747685156947466516,-0.07100000000000001
1747685156955155449,-0.074
1747685156962844382,-0.054
1747685156970533315,-0.029
1747685156978222248,-0.049
1747685156985911181,-0.076
1747685156993600114,-0.069
1747685157001289047,-0.066
1747685157008977980,-0.081
1747685157016666913,-0.079
1747685157024355846,-0.059000000000000004
1747685157032044779,-0.061
1747685157039733712,-0.079
1747685157047422645,-0.076
1747685157055111578,0.037
1747685157062800511,0.371
1747685157070489444,0.65
1747685157078178377,0.41500000000000004
1747685157085867310,-0.153
1747685157093556243,-0.403
1747685157101245176,-0.277
1747685157108934109,-0.195
1747685157116623042,-0.183
1747685157124311975,-0.091
1747685157132000908,-0.047
1747685157139689841,-0.069
1747685157147378774,-0.059000000000000004
1747685157155067707,-0.039
1747685157162756640,-0.039
1747685157170445573,-0.039
1747685157178134506,-0.034
1747685157185823439,-0.024
1747685157193512372,-0.012
1747685157201201305,-0.009000000000000001
1747685157208890238,-0.012
1747685157216579171,-0.009000000000000001
1747685157224268104,-0.002
1747685157231957037,0.0
1747685157239645970,0.009000000000000001
1747685157247334903,0.027
1747685157255023836,0.032
1747685157262712769,0.032
1747685157270401702,0.042
1747685157278090635,0.056
1747685157285779568,0.059000000000000004
1747685157293468501,0.056
1747685157301157434,0.061
1747685157308846367,0.066
1747685157316535300,0.061
1747685157324224233,0.056
1747685157331913166,0.061
1747685157339602099,0.056
1747685157347291032,0.039
1747685157354979965,0.027
1747685157362668898,0.014
1747685157370357867,-0.014
1747685157378044431,-0.051000000000000004
1747685157385730995,-0.079
1747685157393417559,-0.096
1747685157401104123,-0.108
1747685157408790687,-0.111
1747685157416477251,-0.111
1747685157424163815,-0.116
1747685157431850379,-0.111
1747685157439536943,-0.098
1747685157447223507,-0.094
1747685157454910071,-0.096
1747685157462596635,-0.098
1747685157470283199,-0.094
1747685157477969763,-0.091
1747685157485656327,-0.094
1747685157493342891,-0.096
1747685157501029455,-0.094
1747685157508716019,-0.08600000000000001
1747685157516402583,-0.089
1747685157524089147,-0.098
1747685157531775711,-0.098
1747685157539462275,-0.091
1747685157547148839,-0.089
1747685157554835403,-0.08600000000000001
1747685157562521967,-0.089
1747685157570208531,-0.089
1747685157577895095,-0.089
1747685157585581659,-0.091
1747685157593268223,-0.096
1747685157600954787,-0.091
1747685157608641351,-0.094
1747685157616327915,-0.10300000000000001
1747685157624014479,-0.10300000000000001
1747685157631701043,-0.084
1747685157639387607,-0.069
1747685157647074171,-0.069
1747685157654760735,-0.059000000000000004
1747685157662447299,-0.042
1747685157670133863,-0.056
1747685157677820427,-0.074
1747685157685506991,-0.07100000000000001
1747685157693193555,-0.079
1747685157700880119,-0.081
1747685157708566683,-0.074
1747685157716253247,-0.07100000000000001
1747685157723939811,-0.074
1747685157731626375,-0.076
1747685157739312939,-0.074
1747685157746999503,0.029
1747685157754686067,0.368
1747685157762372631,0.667
1747685157770059195,0.41300000000000003
1747685157777745759,-0.19
1747685157785432323,-0.455
1747685157793118887,-0.331
1747685157800805451,-0.23700000000000002
1747685157808492015,-0.21
1747685157816178579,-0.108
1747685157823865143,-0.047
1747685157831551707,-0.069
1747685157839238271,-0.056
1747685157846924835,-0.034
1747685157854611399,-0.034
1747685157862297963,-0.029
1747685157869984527,-0.022
1747685157877671091,-0.022
1747685157885357655,-0.024
1747685157893044219,-0.019
1747685157900730783,-0.004
1747685157908417347,0.004
1747685157916103911,0.012
1747685157923790475,0.017
1747685157931477070,0.017,90,671
1747685157939164679,0.029,,691
1747685157946852288,0.047
1747685157954539897,0.047
1747685157962227506,0.042
1747685157969915115,0.059000000000000004
1747685157977602724,0.079
1747685157985290333,0.081
1747685157992977942,0.084
1747685158000665551,0.094
1747685158008353160,0.094
1747685158016040769,0.079
1747685158023728378,0.07100000000000001
1747685158031415987,0.079
1747685158039103596,0.074
1747685158046791205,0.044
1747685158054478814,0.007
1747685158062166423,-0.024
1747685158069854032,-0.056
1747685158077541641,-0.084
1747685158085229250,-0.10300000000000001
1747685158092916859,-0.113
1747685158100604468,-0.116
1747685158108292077,-0.123
1747685158115979686,-0.131
1747685158123667295,-0.126
1747685158131354904,-0.113
1747685158139042513,-0.101
1747685158146730122,-0.098
1747685158154417731,-0.098
1747685158162105340,-0.094
1747685158169792949,-0.089
1747685158177480558,-0.091
1747685158185168167,-0.091
1747685158192855776,-0.089
1747685158200543385,-0.094
1747685158208230994,-0.091
1747685158215918603,-0.089
1747685158223606212,-0.096
1747685158231293821,-0.096
1747685158238981430,-0.094
1747685158246669039,-0.10300000000000001
1747685158254356648,-0.101
1747685158262044257,-0.089
1747685158269731866,-0.094
1747685158277419475,-0.108
1747685158285107084,-0.108
1747685158292794693,-0.10300000000000001
1747685158300482302,-0.096
1747685158308169911,-0.089
1747685158315857520,-0.08600000000000001
1747685158323545129,-0.074
1747685158331232738,-0.047
1747685158338920347,-0.047
1747685158346607956,-0.066
1747685158354295565,-0.076
1747685158361983174,-0.089
1747685158369670783,-0.094
1747685158377358392,-0.081
1747685158385046001,-0.079
1747685158392733610,-0.081
1747685158400421219,-0.081
1747685158408108828,-0.074
1747685158415796437,0.009000000000000001
1747685158423484046,0.324
1747685158431171655,0.667
1747685158438859264,0.484
1747685158446546873,-0.153
1747685158454234482,-0.487
1747685158461922091,-0.343
1747685158469609700,-0.232
1747685158477297309,-0.232
1747685158484984918,-0.128
1747685158492672576,-0.042
1747685158500360464,-0.066
1747685158508048352,-0.061
1747685158515736240,-0.027
1747685158523424128,-0.024
1747685158531112016,-0.027
1747685158538799904,-0.017
1747685158546487792,-0.009000000000000001
1747685158554175680,-0.007
1747685158561863568,-0.002
1747685158569551456,0.004
1747685158577239344,0.014
1747685158584927232,0.017
1747685158592615120,0.019
1747685158600303008,0.024
1747685158607990896,0.032
1747685158615678784,0.049
1747685158623366672,0.059000000000000004
1747685158631054560,0.061
1747685158638742448,0.074
1747685158646430336,0.081
1747685158654118224,0.079
1747685158661806112,0.094
1747685158669494000,0.10300000000000001
1747685158677181888,0.094
1747685158684869776,0.089
1747685158692557664,0.091
1747685158700245552,0.094
1747685158707933440,0.084
1747685158715621328,0.054
1747685158723309216,0.022
1747685158730997104,-0.007
1747685158738684992,-0.042
1747685158746372880,-0.076
1747685158754060768,-0.098
1747685158761748656,-0.108
1747685158769436544,-0.113
1747685158777124432,-0.121
1747685158784812320,-0.121
1747685158792500208,-0.116
1747685158800188096,-0.108
1747685158807875984,-0.10300000000000001
1747685158815563872,-0.094
1747685158823251760,-0.081
1747685158830939648,-0.081
1747685158838627536,-0.08600000000000001
1747685158846315424,-0.079
1747685158854003312,-0.079
1747685158861691200,-0.084
1747685158869379088,-0.076
1747685158877066976,-0.076
1747685158884754864,-0.081
1747685158892442752,-0.089
1747685158900130640,-0.094
1747685158907818528,-0.08600000000000001
1747685158915506416,-0.081
1747685158923194304,-0.08600000000000001
1747685158930882192,-0.081
1747685158938570080,-0.079
1747685158946257968,-0.08600000000000001
1747685158953945856,-0.089
1747685158961633744,-0.08600000000000001
1747685158969321632,-0.096
1747685158977009520,-0.101
1747685158984697408,-0.091
1747685158992385296,-0.079
1747685159000073184,-0.066
1747685159007761072,-0.061
1747685159015448960,-0.059000000000000004
1747685159023136848,-0.047
1747685159030824736,-0.044
1747685159038512624,-0.069
1747685159046200512,-0.084
1747685159053888422,-0.076,89,691
1747685159061576170,-0.069
1747685159069263918,-0.069
1747685159076951666,-0.066
1747685159084639414,-0.069
1747685159092327162,-0.074
1747685159100014910,-0.084
1747685159107702658,0.0
1747685159115390406,0.329
1747685159123078154,0.6970000000000001
1747685159130765902,0.5690000000000001
1747685159138453650,-0.037
1747685159146141398,-0.41300000000000003
1747685159153829146,-0.314
1747685159161516894,-0.19
1747685159169204642,-0.188
1747685159176892390,-0.116
1747685159184580138,-0.049
1747685159192267886,-0.07100000000000001
1747685159199955634,-0.076
1747685159207643382,-0.044
1747685159215331130,-0.042
1747685159223018878,-0.044
1747685159230706626,-0.027
1747685159238394374,-0.027
1747685159246082122,-0.032
1747685159253769870,-0.022
1747685159261457618,-0.014
1747685159269145366,-0.012
1747685159276833114,-0.002
1747685159284520862,0.007
1747685159292208610,0.009000000000000001
1747685159299896358,0.012
1747685159307584106,0.017
1747685159315271854,0.027
1747685159322959602,0.042
1747685159330647350,0.054
1747685159338335098,0.054
1747685159346022846,0.056
1747685159353710594,0.07100000000000001
1747685159361398342,0.076
1747685159369086090,0.07100000000000001
1747685159376773838,0.064
1747685159384461586,0.061
1747685159392149334,0.064
1747685159399837082,0.059000000000000004
1747685159407524830,0.037
1747685159415212578,0.004
1747685159422900326,-0.017
1747685159430588074,-0.042
1747685159438275822,-0.074
1747685159445963570,-0.098
1747685159453651318,-0.10300000000000001
1747685159461339066,-0.108
1747685159469026814,-0.121
1747685159476714562,-0.128
1747685159484402310,-0.121
1747685159492090058,-0.108
1747685159499777806,-0.10300000000000001
1747685159507465554,-0.101
1747685159515153302,-0.098
1747685159522841050,-0.096
1747685159530528798,-0.094
1747685159538216546,-0.08600000000000001
1747685159545904294,-0.089
1747685159553592042,-0.094
1747685159561279790,-0.08600000000000001
1747685159568967538,-0.084
1747685159576655286,-0.094
1747685159584343034,-0.098
1747685159592030782,-0.094
1747685159599718530,-0.091
1747685159607406278,-0.08600000000000001
1747685159615094098,-0.08600000000000001,89,692
1747685159622781707,-0.08600000000000001,,670
1747685159630469316,-0.084
1747685159638156925,-0.084
1747685159645844534,-0.091
1747685159653532143,-0.101
1747685159661219752,-0.101
1747685159668907361,-0.096
1747685159676594970,-0.084
1747685159684282579,-0.074
1747685159691970188,-0.07100000000000001
1747685159699657797,-0.07100000000000001
1747685159707345406,-0.059000000000000004
1747685159715033015,-0.039
1747685159722720624,-0.049
1747685159730408233,-0.076
1747685159738095842,-0.079
1747685159745783451,-0.066
1747685159753471060,-0.066
1747685159761158669,-0.069
1747685159768846278,-0.069
1747685159776533887,-0.066
1747685159784221496,-0.074
1747685159791909105,-0.079
1747685159799596714,0.07100000000000001
1747685159807284323,0.47200000000000003
1747685159814971932,0.714
1747685159822659541,0.368
1747685159830347150,-0.222
1747685159838034759,-0.42
1747685159845722368,-0.267
1747685159853409977,-0.185
1747685159861097586,-0.16
1747685159868785195,-0.076
1747685159876472804,-0.051000000000000004
1747685159884160413,-0.074
1747685159891848022,-0.054
1747685159899535631,-0.037
1747685159907223240,-0.044
1747685159914910849,-0.034
1747685159922598458,-0.014
1747685159930286067,-0.017
1747685159937973676,-0.029
1747685159945661285,-0.019
1747685159953348894,-0.002
1747685159961036503,0.002
1747685159968724112,0.0
1747685159976411721,0.007
1747685159984099330,0.017
1747685159991786939,0.019
1747685159999474548,0.024
1747685160007162157,0.039
1747685160014849766,0.056
1747685160022537375,0.056
1747685160030224984,0.054
1747685160037912593,0.066
1747685160045600202,0.081
1747685160053287811,0.079
1747685160060975420,0.069
1747685160068663029,0.07100000000000001
1747685160076350638,0.07100000000000001
1747685160084038247,0.061
1747685160091725856,0.044
1747685160099413465,0.027
1747685160107101074,-0.002
1747685160114788683,-0.034
1747685160122476292,-0.059000000000000004
1747685160130163901,-0.084
1747685160137851510,-0.10300000000000001
1747685160145539119,-0.111
1747685160153226728,-0.116
1747685160160914337,-0.116
1747685160168601946,-0.113
1747685160176289600,-0.108
1747685160183977279,-0.108
1747685160191664958,-0.108
1747685160199352637,-0.106
1747685160207040316,-0.096
1747685160214727995,-0.08600000000000001
1747685160222415674,-0.089
1747685160230103353,-0.091
1747685160237791032,-0.091
1747685160245478711,-0.094
1747685160253166390,-0.094
1747685160260854069,-0.091
1747685160268541748,-0.089
1747685160276229427,-0.091
1747685160283917106,-0.091
1747685160291604785,-0.091
1747685160299292464,-0.091
1747685160306980143,-0.096
1747685160314667822,-0.096
1747685160322355501,-0.094
1747685160330043180,-0.089
1747685160337730859,-0.08600000000000001
1747685160345418538,-0.094
1747685160353106217,-0.10300000000000001
1747685160360793896,-0.10300000000000001
1747685160368481575,-0.094
1747685160376169254,-0.084
1747685160383856933,-0.074
1747685160391544612,-0.066
1747685160399232291,-0.051000000000000004
1747685160406919970,-0.044
1747685160414607649,-0.066
1747685160422295328,-0.079
1747685160429983007,-0.07100000000000001
1747685160437670686,-0.069
1747685160445358365,-0.074
1747685160453046044,-0.076
1747685160460733723,-0.079
1747685160468421402,-0.076
1747685160476109081,-0.081
1747685160483796760,-0.079
1747685160491484439,0.066
1747685160499172118,0.455
1747685160506859797,0.6950000000000001
1747685160514547476,0.34800000000000003
1747685160522235155,-0.23700000000000002
1747685160529922834,-0.42
1747685160537610513,-0.267
1747685160545298192,-0.19
1747685160552985871,-0.168
1747685160560673550,-0.08600000000000001
1747685160568361229,-0.054
1747685160576048908,-0.07100000000000001
1747685160583736587,-0.059000000000000004
1747685160591424266,-0.037
1747685160599111945,-0.032
1747685160606799624,-0.032
1747685160614487303,-0.029
1747685160622174982,-0.019
1747685160629862661,-0.014
1747685160637550340,-0.012
1747685160645238019,-0.004
1747685160652925698,0.0
1747685160660613377,0.004
1747685160668301056,0.017
1747685160675988735,0.029
1747685160683676414,0.034
1747685160691364093,0.034
1747685160699051772,0.039
1747685160706739451,0.049
1747685160714427130,0.064
1747685160722114809,0.07100000000000001
1747685160729802488,0.076
1747685160737490185,0.079,89,692
1747685160745178143,0.084
1747685160752866101,0.08600000000000001
1747685160760554059,0.079
1747685160768242017,0.07100000000000001
1747685160775929975,0.074
1747685160783617933,0.061
1747685160791305891,0.034
1747685160798993849,0.009000000000000001
1747685160806681807,-0.022
1747685160814369765,-0.051000000000000004
1747685160822057723,-0.069
1747685160829745681,-0.084
1747685160837433639,-0.096
1747685160845121597,-0.096
1747685160852809555,-0.098
1747685160860497513,-0.106
1747685160868185471,-0.108
1747685160875873429,-0.096
1747685160883561387,-0.091
1747685160891249345,-0.08600000000000001
1747685160898937303,-0.089
1747685160906625261,-0.089
1747685160914313219,-0.081
1747685160922001177,-0.07100000000000001
1747685160929689135,-0.069
1747685160937377093,-0.074
1747685160945065051,-0.079
1747685160952753009,-0.076
1747685160960440967,-0.079
1747685160968128925,-0.084
1747685160975816883,-0.079
1747685160983504841,-0.076
1747685160991192799,-0.081
1747685160998880757,-0.081
1747685161006568715,-0.079
1747685161014256673,-0.084
1747685161021944631,-0.089
1747685161029632589,-0.089
1747685161037320547,-0.089
1747685161045008505,-0.079
1747685161052696463,-0.069
1747685161060384421,-0.061
1747685161068072379,-0.047
1747685161075760337,-0.034
1747685161083448295,-0.047
1747685161091136253,-0.066
1747685161098824211,-0.066
1747685161106512169,-0.059000000000000004
1747685161114200127,-0.059000000000000004
1747685161121888085,-0.059000000000000004
1747685161129576043,-0.064
1747685161137264001,-0.069
1747685161144951959,-0.074
1747685161152639917,-0.079
1747685161160327875,0.004
1747685161168015833,0.316
1747685161175703791,0.672
1747685161183391749,0.5660000000000001
1747685161191079707,-0.022
1747685161198767665,-0.41500000000000004
1747685161206455623,-0.333
1747685161214143581,-0.2
1747685161221831539,-0.185
1747685161229519497,-0.113
1747685161237207455,-0.044
1747685161244895413,-0.059000000000000004
1747685161252583371,-0.059000000000000004
1747685161260271329,-0.029
1747685161267959287,-0.024
1747685161275647245,-0.029
1747685161283335203,-0.017
1747685161291023161,-0.014
1747685161298711122,-0.014
1747685161306398731,-0.012
1747685161314086340,-0.007
1747685161321773949,0.0
1747685161329461558,0.009000000000000001
1747685161337149167,0.009000000000000001
1747685161344836776,0.017
1747685161352524385,0.034
1747685161360211994,0.042
1747685161367899603,0.042
1747685161375587212,0.049
1747685161383274821,0.066
1747685161390962430,0.074
1747685161398650039,0.074
1747685161406337648,0.076
1747685161414025257,0.081
1747685161421712866,0.079
1747685161429400475,0.074
1747685161437088084,0.074
1747685161444775693,0.064
1747685161452463302,0.049
1747685161460150911,0.032
1747685161467838520,0.012
1747685161475526129,-0.022
1747685161483213738,-0.059000000000000004
1747685161490901347,-0.079
1747685161498588956,-0.096
1747685161506276565,-0.111
1747685161513964174,-0.11800000000000001
1747685161521651783,-0.116
1747685161529339392,-0.106
1747685161537027001,-0.106
1747685161544714610,-0.11800000000000001
1747685161552402219,-0.116
1747685161560089828,-0.10300000000000001
1747685161567777437,-0.096
1747685161575465046,-0.096
1747685161583152655,-0.094
1747685161590840264,-0.091
1747685161598527873,-0.089
1747685161606215482,-0.091
1747685161613903091,-0.08600000000000001
1747685161621590700,-0.084
1747685161629278309,-0.094
1747685161636965918,-0.098
1747685161644653527,-0.089
1747685161652341136,-0.094
1747685161660028745,-0.098
1747685161667716354,-0.094
1747685161675403963,-0.094
1747685161683091572,-0.098
1747685161690779181,-0.101
1747685161698466790,-0.096
1747685161706154399,-0.096
1747685161713842008,-0.101
1747685161721529617,-0.094
1747685161729217226,-0.076
1747685161736904835,-0.064
1747685161744592444,-0.059000000000000004
1747685161752280053,-0.054
1747685161759967662,-0.061
1747685161767655271,-0.079
1747685161775342880,-0.089
1747685161783030489,-0.08600000000000001
1747685161790718098,-0.081
1747685161798405707,-0.076
1747685161806093316,-0.079
1747685161813780925,-0.081
1747685161821468534,-0.081
1747685161829156143,-0.08600000000000001
1747685161836843752,-0.014
1747685161844531361,0.28200000000000003
1747685161852218970,0.633
1747685161859906624,0.524,89,689
1747685161867594512,-0.049
1747685161875282400,-0.41000000000000003
1747685161882970288,-0.331
1747685161890658176,-0.22
1747685161898346064,-0.197
1747685161906033952,-0.121
1747685161913721840,-0.064
1747685161921409728,-0.076
1747685161929097616,-0.07100000000000001
1747685161936785504,-0.051000000000000004
1747685161944473392,-0.054
1747685161952161280,-0.054
1747685161959849168,-0.037
1747685161967537056,-0.022
1747685161975224944,-0.024
1747685161982912832,-0.037
1747685161990600720,-0.029
1747685161998288608,-0.012
1747685162005976496,-0.007
1747685162013664384,-0.007
1747685162021352272,0.0
1747685162029040160,0.009000000000000001
1747685162036728048,0.014
1747685162044415936,0.027
1747685162052103824,0.044
1747685162059791712,0.051000000000000004
1747685162067479600,0.051000000000000004
1747685162075167488,0.056
1747685162082855376,0.061
1747685162090543264,0.061
1747685162098231152,0.064
1747685162105919040,0.064
1747685162113606928,0.059000000000000004
1747685162121294816,0.056
1747685162128982704,0.051000000000000004
1747685162136670592,0.032
1747685162144358480,0.012
1747685162152046368,-0.017
1747685162159734256,-0.051000000000000004
1747685162167422144,-0.076
1747685162175110032,-0.098
1747685162182797920,-0.108
1747685162190485808,-0.106
1747685162198173696,-0.108
1747685162205861584,-0.113
1747685162213549472,-0.106
1747685162221237360,-0.101
1747685162228925248,-0.101
1747685162236613136,-0.094
1747685162244301024,-0.091
1747685162251988912,-0.089
1747685162259676800,-0.084
1747685162267364688,-0.08600000000000001
1747685162275052576,-0.089
1747685162282740464,-0.089
1747685162290428352,-0.08600000000000001
1747685162298116240,-0.08600000000000001
1747685162305804128,-0.089
1747685162313492016,-0.091
1747685162321179904,-0.091
1747685162328867792,-0.091
1747685162336555680,-0.091
1747685162344243568,-0.08600000000000001
1747685162351931456,-0.084
1747685162359619344,-0.08600000000000001
1747685162367307232,-0.091
1747685162374995120,-0.089
1747685162382683008,-0.08600000000000001
1747685162390370896,-0.089
1747685162398058784,-0.091
1747685162405746672,-0.094
1747685162413434560,-0.089
1747685162421122470,-0.079
1747685162428810218,-0.066
1747685162436497966,-0.054
1747685162444185714,-0.047
1747685162451873462,-0.049
1747685162459561210,-0.069
1747685162467248958,-0.081
1747685162474936706,-0.081
1747685162482624454,-0.079
1747685162490312202,-0.079
1747685162497999950,-0.081
1747685162505687698,-0.079
1747685162513375446,-0.076
1747685162521063194,-0.084
1747685162528750942,-0.081
1747685162536438690,0.066
1747685162544126438,0.435
1747685162551814186,0.65
1747685162559501934,0.306
1747685162567189682,-0.254
1747685162574877430,-0.43
1747685162582565178,-0.291
1747685162590252926,-0.217
1747685162597940674,-0.183
1747685162605628422,-0.091
1747685162613316170,-0.061
1747685162621003918,-0.079
1747685162628691666,-0.061
1747685162636379414,-0.044
1747685162644067162,-0.044
1747685162651754910,-0.034
1747685162659442658,-0.019
1747685162667130406,-0.019
1747685162674818154,-0.027
1747685162682505902,-0.019
1747685162690193650,-0.007
1747685162697881398,-0.002
1747685162705569146,0.002
1747685162713256894,0.012
1747685162720944642,0.017
1747685162728632390,0.017
1747685162736320138,0.024
1747685162744007886,0.042
1747685162751695634,0.059000000000000004
1747685162759383382,0.066
1747685162767071130,0.069
1747685162774758878,0.076
1747685162782446626,0.081
1747685162790134374,0.074
1747685162797822122,0.069
1747685162805509870,0.066
1747685162813197618,0.064
1747685162820885366,0.059000000000000004
1747685162828573114,0.051000000000000004
1747685162836260862,0.039
1747685162843948610,0.009000000000000001
1747685162851636358,-0.029
1747685162859324106,-0.066
1747685162867011854,-0.094
1747685162874699602,-0.108
1747685162882387350,-0.11800000000000001
1747685162890075098,-0.116
1747685162897762846,-0.108
1747685162905450594,-0.111
1747685162913138342,-0.11800000000000001
1747685162920826090,-0.113
1747685162928513838,-0.101
1747685162936201586,-0.089
1747685162943889334,-0.081
1747685162951577082,-0.089
1747685162959264830,-0.096
1747685162966952578,-0.094
1747685162974640326,-0.091
1747685162982328146,-0.084,88,691
1747685162990015894,-0.076,,672
1747685162997703642,-0.084
1747685163005391390,-0.098
1747685163013079138,-0.10300000000000001
1747685163020766886,-0.098
1747685163028454634,-0.096
1747685163036142382,-0.094
1747685163043830130,-0.094
1747685163051517878,-0.091
1747685163059205626,-0.081
1747685163066893374,-0.084
1747685163074581122,-0.101
1747685163082268870,-0.111
1747685163089956618,-0.101
1747685163097644366,-0.084
1747685163105332114,-0.076
1747685163113019862,-0.066
1747685163120707610,-0.056
1747685163128395358,-0.051000000000000004
1747685163136083106,-0.054
1747685163143770854,-0.069
1747685163151458602,-0.079
1747685163159146350,-0.074
1747685163166834098,-0.081
1747685163174521846,-0.084
1747685163182209594,-0.069
1747685163189897342,-0.069
1747685163197585090,-0.084
1747685163205272838,-0.076
1747685163212960586,0.014
1747685163220648334,0.321
1747685163228336082,0.66
1747685163236023830,0.492
1747685163243711578,-0.14100000000000001
1747685163251399326,-0.489
1747685163259087074,-0.358
1747685163266774822,-0.242
1747685163274462570,-0.232
1747685163282150318,-0.131
1747685163289838066,-0.044
1747685163297525814,-0.056
1747685163305213562,-0.054
1747685163312901310,-0.022
1747685163320589058,-0.022
1747685163328276806,-0.022
1747685163335964554,-0.004
1747685163343652302,-0.002
1747685163351340050,-0.002
1747685163359027798,0.007
1747685163366715546,0.009000000000000001
1747685163374403294,0.012
1747685163382091042,0.024
1747685163389778790,0.037
1747685163397466538,0.034
1747685163405154286,0.037
1747685163412842034,0.047
1747685163420529782,0.061
1747685163428217530,0.074
1747685163435905278,0.084
1747685163443593026,0.096
1747685163451280774,0.10300000000000001
1747685163458968522,0.10300000000000001
1747685163466656270,0.106
1747685163474344018,0.108
1747685163482031766,0.106
1747685163489719514,0.094
1747685163497407262,0.08600000000000001
1747685163505095010,0.081
1747685163512782758,0.061
1747685163520470506,0.032
1747685163528158254,0.0
1747685163535846002,-0.042
1747685163543533818,-0.081
1747685163551221357,-0.10300000000000001
1747685163558908896,-0.113
1747685163566596435,-0.11800000000000001
1747685163574283974,-0.11800000000000001
1747685163581971513,-0.111
1747685163589659052,-0.106
1747685163597346591,-0.10300000000000001
1747685163605034130,-0.098
1747685163612721669,-0.084
1747685163620409208,-0.074
1747685163628096747,-0.076
1747685163635784286,-0.074
1747685163643471825,-0.069
1747685163651159364,-0.069
1747685163658846903,-0.074
1747685163666534442,-0.074
1747685163674221981,-0.07100000000000001
1747685163681909520,-0.079
1747685163689597059,-0.081
1747685163697284598,-0.081
1747685163704972137,-0.084
1747685163712659676,-0.08600000000000001
1747685163720347215,-0.08600000000000001
1747685163728034754,-0.081
1747685163735722293,-0.081
1747685163743409832,-0.089
1747685163751097371,-0.08600000000000001
1747685163758784910,-0.079
1747685163766472449,-0.089
1747685163774159988,-0.091
1747685163781847527,-0.08600000000000001
1747685163789535066,-0.084
1747685163797222605,-0.076
1747685163804910144,-0.061
1747685163812597683,-0.056
1747685163820285222,-0.049
1747685163827972761,-0.042
1747685163835660300,-0.044
1747685163843347839,-0.061
1747685163851035378,-0.07100000000000001
1747685163858722917,-0.07100000000000001
1747685163866410456,-0.074
1747685163874097995,-0.07100000000000001
1747685163881785534,-0.061
1747685163889473073,-0.061
1747685163897160612,-0.074
1747685163904848151,-0.084
1747685163912535690,-0.022
1747685163920223229,0.272
1747685163927910768,0.667
1747685163935598307,0.638
1747685163943285846,0.07100000000000001
1747685163950973385,-0.385
1747685163958660924,-0.35100000000000003
1747685163966348463,-0.202
1747685163974036002,-0.178
1747685163981723541,-0.113
1747685163989411080,-0.049
1747685163997098619,-0.066
1747685164004786158,-0.069
1747685164012473697,-0.042
1747685164020161236,-0.037
1747685164027848775,-0.034
1747685164035536314,-0.024
1747685164043223853,-0.019
1747685164050911392,-0.017
1747685164058598931,-0.009000000000000001
1747685164066286470,0.0
1747685164073974009,0.004
1747685164081661548,0.007
1747685164089349087,0.017
1747685164097036626,0.027
1747685164104724233,0.027,88,677
1747685164112412191,0.022
1747685164120100149,0.034
1747685164127788107,0.054
1747685164135476065,0.059000000000000004
1747685164143164023,0.066
1747685164150851981,0.079
1747685164158539939,0.08600000000000001
1747685164166227897,0.08600000000000001
1747685164173915855,0.084
1747685164181603813,0.079
1747685164189291771,0.076
1747685164196979729,0.074
1747685164204667687,0.069
1747685164212355645,0.056
1747685164220043603,0.029
1747685164227731561,-0.002
1747685164235419519,-0.029
1747685164243107477,-0.059000000000000004
1747685164250795435,-0.089
1747685164258483393,-0.101
1747685164266171351,-0.101
1747685164273859309,-0.10300000000000001
1747685164281547267,-0.106
1747685164289235225,-0.101
1747685164296923183,-0.101
1747685164304611141,-0.098
1747685164312299099,-0.08600000000000001
1747685164319987057,-0.084
1747685164327675015,-0.08600000000000001
1747685164335362973,-0.079
1747685164343050931,-0.07100000000000001
1747685164350738889,-0.076
1747685164358426847,-0.081
1747685164366114805,-0.076
1747685164373802763,-0.076
1747685164381490721,-0.084
1747685164389178679,-0.084
1747685164396866637,-0.084
1747685164404554595,-0.08600000000000001
1747685164412242553,-0.081
1747685164419930511,-0.074
1747685164427618469,-0.074
1747685164435306427,-0.076
1747685164442994385,-0.081
1747685164450682343,-0.089
1747685164458370301,-0.08600000000000001
1747685164466058259,-0.076
1747685164473746217,-0.076
1747685164481434175,-0.084
1747685164489122133,-0.081
1747685164496810091,-0.076
1747685164504498049,-0.084
1747685164512186007,-0.084
1747685164519873965,-0.061
1747685164527561923,-0.039
1747685164535249881,-0.042
1747685164542937839,-0.042
1747685164550625797,-0.034
1747685164558313755,-0.047
1747685164566001713,-0.064
1747685164573689671,-0.059000000000000004
1747685164581377629,-0.064
1747685164589065587,-0.074
1747685164596753545,-0.064
1747685164604441503,-0.051000000000000004
1747685164612129461,-0.059000000000000004
1747685164619817419,-0.076
1747685164627505377,-0.084
1747685164635193335,0.017
1747685164642881293,0.361
1747685164650569251,0.7020000000000001
1747685164658257209,0.536
1747685164665945170,-0.051000000000000004,88,696
1747685164673632779,-0.393,,679
1747685164681320388,-0.299
1747685164689007997,-0.192
1747685164696695606,-0.17500000000000002
1747685164704383215,-0.096
1747685164712070824,-0.047
1747685164719758433,-0.066
1747685164727446042,-0.059000000000000004
1747685164735133651,-0.037
1747685164742821260,-0.037
1747685164750508869,-0.027
1747685164758196478,-0.007
1747685164765884087,-0.007
1747685164773571696,-0.019
1747685164781259305,-0.012
1747685164788946914,0.0
1747685164796634523,-0.004
1747685164804322132,0.004
1747685164812009741,0.024
1747685164819697350,0.029
1747685164827384959,0.029
1747685164835072568,0.039
1747685164842760177,0.044
1747685164850447786,0.044
1747685164858135395,0.059000000000000004
1747685164865823004,0.079
1747685164873510613,0.079
1747685164881198222,0.074
1747685164888885831,0.08600000000000001
1747685164896573440,0.091
1747685164904261049,0.079
1747685164911948658,0.07100000000000001
1747685164919636267,0.07100000000000001
1747685164927323876,0.064
1747685164935011485,0.049
1747685164942699094,0.024
1747685164950386703,-0.009000000000000001
1747685164958074312,-0.037
1747685164965761921,-0.054
1747685164973449530,-0.084
1747685164981137139,-0.106
1747685164988824748,-0.106
1747685164996512357,-0.101
1747685165004199966,-0.101
1747685165011887575,-0.10300000000000001
1747685165019575184,-0.10300000000000001
1747685165027262793,-0.101
1747685165034950402,-0.094
1747685165042638011,-0.084
1747685165050325620,-0.079
1747685165058013229,-0.081
1747685165065700838,-0.084
1747685165073388447,-0.076
1747685165081076056,-0.07100000000000001
1747685165088763665,-0.074
1747685165096451274,-0.079
1747685165104138883,-0.081
1747685165111826492,-0.076
1747685165119514101,-0.076
1747685165127201710,-0.081
1747685165134889319,-0.08600000000000001
1747685165142576928,-0.08600000000000001
1747685165150264537,-0.081
1747685165157952146,-0.079
1747685165165639755,-0.076
1747685165173327364,-0.079
1747685165181014973,-0.079
1747685165188702582,-0.076
1747685165196390191,-0.079
1747685165204077800,-0.076
1747685165211765409,-0.074
1747685165219453018,-0.074
1747685165227140672,-0.074
1747685165234828560,-0.069
1747685165242516448,-0.069
1747685165250204336,-0.074
1747685165257892224,-0.079
1747685165265580112,-0.076
1747685165273268000,-0.059000000000000004
1747685165280955888,-0.037
1747685165288643776,-0.032
1747685165296331664,-0.037
1747685165304019552,-0.034
1747685165311707440,-0.039
1747685165319395328,-0.056
1747685165327083216,-0.064
1747685165334771104,-0.061
1747685165342458992,-0.056
1747685165350146880,-0.051000000000000004
1747685165357834768,-0.054
1747685165365522656,-0.061
1747685165373210544,-0.061
1747685165380898432,-0.069
1747685165388586320,-0.017
1747685165396274208,0.254
1747685165403962096,0.633
1747685165411649984,0.598
1747685165419337872,0.056
1747685165427025760,-0.361
1747685165434713648,-0.329
1747685165442401536,-0.20700000000000002
1747685165450089424,-0.18
1747685165457777312,-0.108
1747685165465465200,-0.047
1747685165473153088,-0.061
1747685165480840976,-0.059000000000000004
1747685165488528864,-0.034
1747685165496216752,-0.034
1747685165503904640,-0.034
1747685165511592528,-0.019
1747685165519280416,-0.012
1747685165526968304,-0.012
1747685165534656192,-0.012
1747685165542344080,-0.009000000000000001
1747685165550031968,-0.004
1747685165557719856,0.002
1747685165565407744,0.007
1747685165573095632,0.009000000000000001
1747685165580783520,0.019
1747685165588471408,0.029
1747685165596159296,0.039
1747685165603847184,0.049
1747685165611535072,0.054
1747685165619222960,0.056
1747685165626910848,0.064
1747685165634598736,0.074
1747685165642286624,0.076
1747685165649974512,0.069
1747685165657662400,0.064
1747685165665350288,0.061
1747685165673038176,0.064
1747685165680726064,0.056
1747685165688413952,0.044
1747685165696101840,0.027
1747685165703789728,-0.002
1747685165711477616,-0.032
1747685165719165504,-0.056
1747685165726853392,-0.079
1747685165734541280,-0.094
1747685165742229168,-0.106
1747685165749917056,-0.113
1747685165757604944,-0.111
1747685165765292832,-0.108
1747685165772980720,-0.106
1747685165780668608,-0.098
1747685165788356518,-0.096,88,701
1747685165796044057,-0.098
1747685165803731596,-0.091
1747685165811419135,-0.084
1747685165819106674,-0.081
1747685165826794213,-0.081
1747685165834481752,-0.081
1747685165842169291,-0.081
1747685165849856830,-0.081
1747685165857544369,-0.081
1747685165865231908,-0.08600000000000001
1747685165872919447,-0.089
1747685165880606986,-0.091
1747685165888294525,-0.094
1747685165895982064,-0.091
1747685165903669603,-0.08600000000000001
1747685165911357142,-0.089
1747685165919044681,-0.096
1747685165926732220,-0.094
1747685165934419759,-0.08600000000000001
1747685165942107298,-0.084
1747685165949794837,-0.08600000000000001
1747685165957482376,-0.08600000000000001
1747685165965169915,-0.079
1747685165972857454,-0.076
1747685165980544993,-0.084
1747685165988232532,-0.081
1747685165995920071,-0.074
1747685166003607610,-0.084
1747685166011295149,-0.096
1747685166018982688,-0.096
1747685166026670227,-0.08600000000000001
1747685166034357766,-0.061
1747685166042045305,-0.037
1747685166049732844,-0.039
1747685166057420383,-0.047
1747685166065107922,-0.042
1747685166072795461,-0.059000000000000004
1747685166080483000,-0.079
1747685166088170539,-0.07100000000000001
1747685166095858078,-0.066
1747685166103545617,-0.07100000000000001
1747685166111233156,-0.066
1747685166118920695,-0.064
1747685166126608234,-0.07100000000000001
1747685166134295773,-0.079
1747685166141983312,-0.07100000000000001
1747685166149670851,0.044
1747685166157358390,0.388
1747685166165045929,0.667
1747685166172733468,0.41000000000000003
1747685166180421007,-0.178
1747685166188108546,-0.43
1747685166195796085,-0.296
1747685166203483624,-0.20500000000000002
1747685166211171163,-0.19
1747685166218858702,-0.098
1747685166226546241,-0.049
1747685166234233780,-0.069
1747685166241921319,-0.059000000000000004
1747685166249608858,-0.029
1747685166257296397,-0.027
1747685166264983936,-0.024
1747685166272671475,-0.017
1747685166280359014,-0.022
1747685166288046553,-0.022
1747685166295734092,-0.012
1747685166303421631,-0.002
1747685166311109170,0.002
1747685166318796709,0.009000000000000001
1747685166326484248,0.017
1747685166334171787,0.024
1747685166341859326,0.032
1747685166349546933,0.042
1747685166357234472,0.047
1747685166364922011,0.059000000000000004
1747685166372609550,0.07100000000000001
1747685166380297089,0.084
1747685166387984628,0.096
1747685166395672167,0.098
1747685166403359706,0.089
1747685166411047245,0.084
1747685166418734784,0.089
1747685166426422323,0.084
1747685166434109862,0.074
1747685166441797401,0.066
1747685166449484940,0.051000000000000004
1747685166457172479,0.024
1747685166464860018,-0.009000000000000001
1747685166472547557,-0.044
1747685166480235096,-0.074
1747685166487922635,-0.089
1747685166495610174,-0.094
1747685166503297713,-0.101
1747685166510985252,-0.113
1747685166518672791,-0.11800000000000001
1747685166526360330,-0.108
1747685166534047869,-0.094
1747685166541735408,-0.091
1747685166549422947,-0.094
1747685166557110486,-0.089
1747685166564798025,-0.081
1747685166572485564,-0.081
1747685166580173103,-0.08600000000000001
1747685166587860642,-0.089
1747685166595548181,-0.081
1747685166603235720,-0.076
1747685166610923259,-0.076
1747685166618610798,-0.074
1747685166626298337,-0.07100000000000001
1747685166633985876,-0.081
1747685166641673415,-0.089
1747685166649360954,-0.081
1747685166657048493,-0.079
1747685166664736032,-0.08600000000000001
1747685166672423571,-0.081
1747685166680111110,-0.079
1747685166687798649,-0.08600000000000001
1747685166695486188,-0.081
1747685166703173727,-0.07100000000000001
1747685166710861266,-0.074
1747685166718548805,-0.079
