time,ecg,hr,rr,marker
1748285545116261719,-0.019,60,884
1748285545123948840,-0.017
1748285545131635961,-0.017
1748285545139323082,-0.019
1748285545147010203,-0.014
1748285545154697324,-0.014
1748285545162384445,-0.024
1748285545170071566,-0.058
1748285545177758687,-0.019
1748285545185445808,0.382
1748285545193132929,1.102
1748285545200820050,1.35
1748285545208507171,0.5660000000000001
1748285545216194292,-0.46900000000000003
1748285545223881413,-0.642
1748285545231568534,-0.28200000000000003
1748285545239255655,-0.199
1748285545246942776,-0.187
1748285545254629897,-0.043000000000000003
1748285545262317018,-0.012
1748285545270004139,-0.051000000000000004
1748285545277691260,-0.019
1748285545285378381,0.004
1748285545293065502,0.0
1748285545300752623,0.009000000000000001
1748285545308439744,0.024
1748285545316126865,0.026000000000000002
1748285545323813986,0.031
1748285545331501107,0.041
1748285545339188228,0.048
1748285545346875349,0.055
1748285545354562470,0.065
1748285545362249591,0.07200000000000001
1748285545369936712,0.082
1748285545377623833,0.092
1748285545385310954,0.10400000000000001
1748285545392998075,0.116
1748285545400685196,0.131
1748285545408372317,0.15
1748285545416059438,0.167
1748285545423746559,0.184
1748285545431433680,0.20400000000000001
1748285545439120801,0.221
1748285545446807922,0.233
1748285545454495043,0.243
1748285545462182164,0.245
1748285545469869285,0.245
1748285545477556406,0.243
1748285545485243527,0.231
1748285545492930648,0.20400000000000001
1748285545500617769,0.158
1748285545508304890,0.10200000000000001
1748285545515992011,0.046
1748285545523679132,-0.009000000000000001
1748285545531366253,-0.055
1748285545539053374,-0.09
1748285545546740495,-0.107
1748285545554427616,-0.116
1748285545562114737,-0.121
1748285545569801858,-0.11900000000000001
1748285545577488979,-0.114
1748285545585176100,-0.109
1748285545592863221,-0.10400000000000001
1748285545600550342,-0.097
1748285545608237463,-0.09
1748285545615924584,-0.08700000000000001
1748285545623611705,-0.085
1748285545631298826,-0.082
1748285545638985947,-0.08
1748285545646673068,-0.077
1748285545654360189,-0.077
1748285545662047310,-0.08
1748285545669734431,-0.08
1748285545677421620,-0.08
1748285545685108741,-0.08
1748285545692795862,-0.082
1748285545700482983,-0.082
1748285545708170104,-0.082
1748285545715857225,-0.082
1748285545723544346,-0.082
1748285545731231467,-0.082
1748285545738918588,-0.082
1748285545746605709,-0.082
1748285545754292830,-0.08
1748285545761979951,-0.075
1748285545769667072,-0.07200000000000001
1748285545777354193,-0.07
1748285545785041314,-0.068
1748285545792728435,-0.068
1748285545800415556,-0.065
1748285545808102677,-0.063
1748285545815789798,-0.06
1748285545823476919,-0.06
1748285545831164040,-0.06
1748285545838851161,-0.055
1748285545846538282,-0.053
1748285545854225403,-0.051000000000000004
1748285545861912524,-0.048
1748285545869599645,-0.048
1748285545877286766,-0.046
1748285545884973887,-0.043000000000000003
1748285545892661008,-0.043000000000000003
1748285545900348129,-0.041
1748285545908035250,-0.041
1748285545915722371,-0.036000000000000004
1748285545923409492,-0.036000000000000004
1748285545931096613,-0.038
1748285545938783734,-0.036000000000000004
1748285545946470855,-0.036000000000000004
1748285545954157976,-0.034
1748285545961845097,-0.031
1748285545969532218,-0.029
1748285545977219339,-0.029
1748285545984906460,-0.029
1748285545992593581,-0.026000000000000002
1748285546000280702,-0.026000000000000002
1748285546007967823,-0.026000000000000002
1748285546015654944,-0.024
1748285546023342065,-0.024
1748285546031029186,-0.026000000000000002
1748285546038716307,-0.024
1748285546046403428,-0.019
1748285546054090549,-0.019
1748285546061777670,-0.021
1748285546069464791,-0.021
1748285546077151912,-0.024
1748285546084839033,-0.031
1748285546092526154,-0.034
1748285546100213275,-0.034
1748285546107900396,-0.029
1748285546115587517,-0.017
1748285546123274638,-0.004
1748285546130961759,0.004
1748285546138648880,0.019
1748285546146336001,0.017
1748285546154023122,-0.009000000000000001
1748285546161710243,-0.024
1748285546169397364,-0.019
1748285546177084485,-0.024
1748285546184771606,-0.024
1748285546192458727,-0.017
1748285546200145848,-0.019
1748285546207832969,-0.041
1748285546215520090,-0.085
1748285546223207211,0.0
1748285546230894332,0.496
1748285546238581517,1.204,60,888
1748285546246268360,1.309
1748285546253955203,0.455
1748285546261642046,-0.47600000000000003
1748285546269328889,-0.537
1748285546277015732,-0.218
1748285546284702575,-0.199
1748285546292389418,-0.187
1748285546300076261,-0.063
1748285546307763104,-0.058
1748285546315449947,-0.085
1748285546323136790,-0.048
1748285546330823633,-0.031
1748285546338510476,-0.038
1748285546346197319,-0.026000000000000002
1748285546353884162,-0.014
1748285546361571005,-0.009000000000000001
1748285546369257848,-0.002
1748285546376944691,0.002
1748285546384631534,0.009000000000000001
1748285546392318377,0.017
1748285546400005220,0.026000000000000002
1748285546407692063,0.036000000000000004
1748285546415378906,0.043000000000000003
1748285546423065749,0.053
1748285546430752592,0.068
1748285546438439435,0.08
1748285546446126278,0.09
1748285546453813121,0.107
1748285546461499964,0.124
1748285546469186807,0.136
1748285546476873650,0.153
1748285546484560493,0.17
1748285546492247336,0.18
1748285546499934179,0.189
1748285546507621022,0.192
1748285546515307865,0.192
1748285546522994708,0.194
1748285546530681551,0.189
1748285546538368394,0.17200000000000001
1748285546546055237,0.14300000000000002
1748285546553742080,0.10200000000000001
1748285546561428923,0.055
1748285546569115766,0.007
1748285546576802609,-0.041
1748285546584489452,-0.077
1748285546592176295,-0.10200000000000001
1748285546599863138,-0.11900000000000001
1748285546607549981,-0.126
1748285546615236824,-0.126
1748285546622923667,-0.126
1748285546630610510,-0.124
1748285546638297353,-0.11900000000000001
1748285546645984196,-0.114
1748285546653671039,-0.111
1748285546661357882,-0.107
1748285546669044725,-0.107
1748285546676731568,-0.10400000000000001
1748285546684418411,-0.10200000000000001
1748285546692105254,-0.099
1748285546699792097,-0.099
1748285546707478940,-0.099
1748285546715165783,-0.10400000000000001
1748285546722852626,-0.10400000000000001
1748285546730539469,-0.10400000000000001
1748285546738226312,-0.107
1748285546745913155,-0.109
1748285546753599998,-0.111
1748285546761286841,-0.111
1748285546768973684,-0.109
1748285546776660527,-0.107
1748285546784347370,-0.107
1748285546792034213,-0.107
1748285546799721070,-0.10400000000000001,61,867
1748285546807408052,-0.10400000000000001
1748285546815095034,-0.10400000000000001
1748285546822782016,-0.10200000000000001
1748285546830468998,-0.097
1748285546838155980,-0.094
1748285546845842962,-0.094
1748285546853529944,-0.094
1748285546861216926,-0.094
1748285546868903908,-0.092
1748285546876590890,-0.09
1748285546884277872,-0.09
1748285546891964854,-0.08700000000000001
1748285546899651836,-0.085
1748285546907338818,-0.082
1748285546915025800,-0.08
1748285546922712782,-0.08
1748285546930399764,-0.08
1748285546938086746,-0.077
1748285546945773728,-0.075
1748285546953460710,-0.075
1748285546961147692,-0.07200000000000001
1748285546968834674,-0.07200000000000001
1748285546976521656,-0.07200000000000001
1748285546984208638,-0.07
1748285546991895620,-0.07
1748285546999582602,-0.07
1748285547007269584,-0.07
1748285547014956566,-0.068
1748285547022643548,-0.065
1748285547030330530,-0.07
1748285547038017512,-0.08
1748285547045704494,-0.08700000000000001
1748285547053391476,-0.08700000000000001
1748285547061078458,-0.082
1748285547068765440,-0.07
1748285547076452422,-0.053
1748285547084139404,-0.046
1748285547091826386,-0.034
1748285547099513368,-0.031
1748285547107200350,-0.058
1748285547114887332,-0.075
1748285547122574314,-0.07200000000000001
1748285547130261296,-0.075
1748285547137948278,-0.075
1748285547145635260,-0.07
1748285547153322242,-0.07
1748285547161009224,-0.09
1748285547168696206,-0.128
1748285547176383188,-0.07200000000000001
1748285547184070170,0.367
1748285547191757152,1.085
1748285547199444134,1.272
1748285547207131116,0.464
1748285547214818098,-0.52
1748285547222505080,-0.644
1748285547230192062,-0.296
1748285547237879044,-0.243
1748285547245566026,-0.23800000000000002
1748285547253253008,-0.109
1748285547260939990,-0.092
1748285547268626972,-0.128
1748285547276313954,-0.092
1748285547284000936,-0.068
1748285547291687918,-0.075
1748285547299374900,-0.063
1748285547307061882,-0.048
1748285547314748864,-0.046
1748285547322435846,-0.038
1748285547330122828,-0.029
1748285547337809810,-0.024
1748285547345496792,-0.017
1748285547353183774,-0.007
1748285547360870793,0.002
1748285547368557914,0.012
1748285547376245035,0.021
1748285547383932156,0.036000000000000004
1748285547391619277,0.051000000000000004
1748285547399306398,0.063
1748285547406993519,0.077
1748285547414680640,0.097
1748285547422367761,0.116
1748285547430054882,0.133
1748285547437742003,0.15
1748285547445429124,0.163
1748285547453116245,0.17
1748285547460803366,0.177
1748285547468490487,0.177
1748285547476177608,0.17500000000000002
1748285547483864729,0.16
1748285547491551850,0.136
1748285547499238971,0.097
1748285547506926092,0.048
1748285547514613213,-0.009000000000000001
1748285547522300334,-0.063
1748285547529987455,-0.109
1748285547537674576,-0.145
1748285547545361697,-0.167
1748285547553048818,-0.17500000000000002
1748285547560735939,-0.182
1748285547568423060,-0.182
1748285547576110181,-0.17500000000000002
1748285547583797302,-0.17200000000000001
1748285547591484423,-0.167
1748285547599171544,-0.158
1748285547606858665,-0.153
1748285547614545786,-0.15
1748285547622232907,-0.145
1748285547629920028,-0.14100000000000001
1748285547637607149,-0.136
1748285547645294270,-0.133
1748285547652981391,-0.133
1748285547660668512,-0.131
1748285547668355633,-0.128
1748285547676042754,-0.128
1748285547683729875,-0.131
1748285547691416996,-0.131
1748285547699104117,-0.126
1748285547706791238,-0.126
1748285547714478359,-0.131
1748285547722165480,-0.131
1748285547729852601,-0.124
1748285547737539722,-0.121
1748285547745226843,-0.11900000000000001
1748285547752913964,-0.116
1748285547760601085,-0.116
1748285547768288206,-0.116
1748285547775975327,-0.114
1748285547783662448,-0.111
1748285547791349569,-0.111
1748285547799036690,-0.109
1748285547806723811,-0.10400000000000001
1748285547814410932,-0.107
1748285547822098053,-0.107
1748285547829785174,-0.10200000000000001
1748285547837472295,-0.097
1748285547845159416,-0.099
1748285547852846537,-0.10200000000000001
1748285547860533658,-0.099
1748285547868220779,-0.099
1748285547875907900,-0.097
1748285547883595021,-0.094
1748285547891282142,-0.094
1748285547898969263,-0.094
1748285547906656384,-0.094
1748285547914343505,-0.092
1748285547922030690,-0.094,62,868
1748285547929717811,-0.097
1748285547937404932,-0.094
1748285547945092053,-0.092
1748285547952779174,-0.094
1748285547960466295,-0.099
1748285547968153416,-0.097
1748285547975840537,-0.097
1748285547983527658,-0.099
1748285547991214779,-0.099
1748285547998901900,-0.107
1748285548006589021,-0.116
1748285548014276142,-0.116
1748285548021963263,-0.116
1748285548029650384,-0.11900000000000001
1748285548037337505,-0.111
1748285548045024626,-0.08700000000000001
1748285548052711747,-0.077
1748285548060398868,-0.07200000000000001
1748285548068085989,-0.07200000000000001
1748285548075773110,-0.094
1748285548083460231,-0.121
1748285548091147352,-0.124
1748285548098834473,-0.116
1748285548106521594,-0.11900000000000001
1748285548114208715,-0.128
1748285548121895836,-0.126
1748285548129582957,-0.133
1748285548137270078,-0.17500000000000002
1748285548144957199,-0.114
1748285548152644320,0.352
1748285548160331441,1.063
1748285548168018562,1.199
1748285548175705683,0.36
1748285548183392804,-0.598
1748285548191079925,-0.681
1748285548198767046,-0.34500000000000003
1748285548206454167,-0.306
1748285548214141288,-0.294
1748285548221828409,-0.165
1748285548229515530,-0.155
1748285548237202651,-0.184
1748285548244889772,-0.14300000000000002
1748285548252576893,-0.121
1748285548260264014,-0.126
1748285548267951135,-0.114
1748285548275638256,-0.10200000000000001
1748285548283325377,-0.099
1748285548291012498,-0.08700000000000001
1748285548298699619,-0.075
1748285548306386740,-0.068
1748285548314073861,-0.06
1748285548321760982,-0.048
1748285548329448103,-0.041
1748285548337135224,-0.031
1748285548344822345,-0.019
1748285548352509466,-0.004
1748285548360196587,0.009000000000000001
1748285548367883708,0.024
1748285548375570829,0.041
1748285548383257950,0.058
1748285548390945071,0.08
1748285548398632192,0.097
1748285548406319313,0.114
1748285548414006434,0.131
1748285548421693555,0.138
1748285548429380676,0.145
1748285548437067797,0.15
1748285548444754918,0.153
1748285548452442039,0.145
1748285548460129160,0.126
1748285548467816281,0.092
1748285548475503402,0.046
1748285548483190587,-0.004
1748285548490877708,-0.053
1748285548498564829,-0.099
1748285548506251950,-0.136
1748285548513939071,-0.15
1748285548521626192,-0.158
1748285548529313313,-0.165
1748285548537000434,-0.158
1748285548544687555,-0.145
1748285548552374676,-0.138
1748285548560061797,-0.131
1748285548567748918,-0.116
1748285548575436039,-0.10400000000000001
1748285548583123160,-0.094
1748285548590810281,-0.08700000000000001
1748285548598497402,-0.082
1748285548606184523,-0.077
1748285548613871644,-0.075
1748285548621558765,-0.07200000000000001
1748285548629245886,-0.07
1748285548636933007,-0.065
1748285548644620128,-0.06
1748285548652307249,-0.058
1748285548659994370,-0.055
1748285548667681491,-0.055
1748285548675368612,-0.051000000000000004
1748285548683055733,-0.046
1748285548690742854,-0.046
1748285548698429975,-0.041
1748285548706117096,-0.034
1748285548713804217,-0.034
1748285548721491338,-0.031
1748285548729178459,-0.024
1748285548736865580,-0.021
1748285548744552701,-0.019
1748285548752239822,-0.014
1748285548759926943,-0.009000000000000001
1748285548767614064,-0.004
1748285548775301185,0.0
1748285548782988306,0.002
1748285548790675427,0.002
1748285548798362548,0.004
1748285548806049669,0.009000000000000001
1748285548813736790,0.014
1748285548821423911,0.017
1748285548829111032,0.021
1748285548836798153,0.024
1748285548844485274,0.026000000000000002
1748285548852172395,0.029
1748285548859859516,0.026000000000000002
1748285548867546637,0.017
1748285548875233758,0.012
1748285548882920879,0.017
1748285548890608000,0.021
1748285548898295121,0.034
1748285548905982242,0.051000000000000004
1748285548913669363,0.058
1748285548921356484,0.065
1748285548929043605,0.065
1748285548936730726,0.043000000000000003
1748285548944417847,0.026000000000000002
1748285548952104968,0.029
1748285548959792089,0.026000000000000002
1748285548967479210,0.021
1748285548975166331,0.026000000000000002
1748285548982853452,0.026000000000000002
1748285548990540573,0.014
1748285548998227694,-0.021
1748285549005914815,0.029
1748285549013601936,0.459
1748285549021289057,1.165
1748285549028976178,1.335
1748285549036663299,0.518
1748285549044350484,-0.445,63,1044
1748285549052037605,-0.554,,954
1748285549059724726,-0.226
1748285549067411847,-0.177
1748285549075098968,-0.163
1748285549082786089,-0.029
1748285549090473210,-0.014
1748285549098160331,-0.051000000000000004
1748285549105847452,-0.021
1748285549113534573,0.002
1748285549121221694,-0.004
1748285549128908815,0.004
1748285549136595936,0.017
1748285549144283057,0.019
1748285549151970178,0.024
1748285549159657299,0.031
1748285549167344420,0.036000000000000004
1748285549175031541,0.036000000000000004
1748285549182718662,0.046
1748285549190405783,0.058
1748285549198092904,0.065
1748285549205780025,0.07200000000000001
1748285549213467146,0.08
1748285549221154267,0.092
1748285549228841388,0.109
1748285549236528509,0.124
1748285549244215630,0.136
1748285549251902751,0.155
1748285549259589872,0.177
1748285549267276993,0.194
1748285549274964114,0.201
1748285549282651235,0.20600000000000002
1748285549290338356,0.209
1748285549298025477,0.20400000000000001
1748285549305712598,0.192
1748285549313399719,0.177
1748285549321086840,0.14100000000000001
1748285549328773961,0.085
1748285549336461082,0.026000000000000002
1748285549344148203,-0.031
1748285549351835324,-0.09
1748285549359522445,-0.133
1748285549367209566,-0.165
1748285549374896687,-0.189
1748285549382583808,-0.199
1748285549390270929,-0.199
1748285549397958050,-0.194
1748285549405645171,-0.187
1748285549413332292,-0.184
1748285549421019413,-0.182
1748285549428706534,-0.17200000000000001
1748285549436393655,-0.165
1748285549444080776,-0.16
1748285549451767897,-0.155
1748285549459455018,-0.153
1748285549467142139,-0.153
1748285549474829260,-0.155
1748285549482516381,-0.158
1748285549490203502,-0.158
1748285549497890623,-0.163
1748285549505577744,-0.163
1748285549513264865,-0.165
1748285549520951986,-0.167
1748285549528639107,-0.17
1748285549536326228,-0.17
1748285549544013349,-0.17200000000000001
1748285549551700470,-0.17200000000000001
1748285549559387591,-0.17
1748285549567074712,-0.17
1748285549574761833,-0.17200000000000001
1748285549582448954,-0.17200000000000001
1748285549590136075,-0.17500000000000002
1748285549597823196,-0.17200000000000001
1748285549605510385,-0.17
1748285549613197506,-0.167
1748285549620884627,-0.165
1748285549628571748,-0.163
1748285549636258869,-0.16
1748285549643945990,-0.16
1748285549651633111,-0.163
1748285549659320232,-0.17200000000000001
1748285549667007353,-0.177
1748285549674694474,-0.177
1748285549682381595,-0.17500000000000002
1748285549690068716,-0.165
1748285549697755837,-0.145
1748285549705442958,-0.131
1748285549713130079,-0.116
1748285549720817200,-0.111
1748285549728504321,-0.131
1748285549736191442,-0.153
1748285549743878563,-0.15
1748285549751565684,-0.15
1748285549759252805,-0.155
1748285549766939926,-0.15
1748285549774627047,-0.148
1748285549782314168,-0.16
1748285549790001289,-0.199
1748285549797688410,-0.165
1748285549805375531,0.226
1748285549813062652,0.961
1748285549820749773,1.2550000000000001
1748285549828436894,0.493
1748285549836124015,-0.5690000000000001
1748285549843811136,-0.776
1748285549851498257,-0.41300000000000003
1748285549859185378,-0.318
1748285549866872499,-0.318
1748285549874559620,-0.177
1748285549882246741,-0.138
1748285549889933862,-0.177
1748285549897620983,-0.148
1748285549905308104,-0.11900000000000001
1748285549912995225,-0.121
1748285549920682346,-0.107
1748285549928369467,-0.09
1748285549936056588,-0.08700000000000001
1748285549943743709,-0.08
1748285549951430830,-0.07
1748285549959117951,-0.06
1748285549966805072,-0.053
1748285549974492193,-0.048
1748285549982179314,-0.034
1748285549989866435,-0.021
1748285549997553556,-0.009000000000000001
1748285550005240677,0.007
1748285550012927798,0.021
1748285550020614919,0.038
1748285550028302040,0.063
1748285550035989161,0.08700000000000001
1748285550043676282,0.107
1748285550051363403,0.128
1748285550059050524,0.148
1748285550066737645,0.16
1748285550074424766,0.17
1748285550082111887,0.17500000000000002
1748285550089799008,0.17200000000000001
1748285550097486129,0.163
1748285550105173250,0.138
1748285550112860371,0.097
1748285550120547492,0.041
1748285550128234613,-0.026000000000000002
1748285550135921734,-0.092
1748285550143608855,-0.153
1748285550151295976,-0.201
1748285550158983097,-0.228
1748285550166670282,-0.25,62,968
1748285550174357403,-0.257
1748285550182044524,-0.248
1748285550189731645,-0.23800000000000002
1748285550197418766,-0.233
1748285550205105887,-0.228
1748285550212793008,-0.218
1748285550220480129,-0.209
1748285550228167250,-0.199
1748285550235854371,-0.189
1748285550243541492,-0.184
1748285550251228613,-0.184
1748285550258915734,-0.182
1748285550266602855,-0.182
1748285550274289976,-0.184
1748285550281977097,-0.184
1748285550289664218,-0.182
1748285550297351339,-0.182
1748285550305038460,-0.187
1748285550312725581,-0.182
1748285550320412702,-0.17200000000000001
1748285550328099823,-0.17200000000000001
1748285550335786944,-0.177
1748285550343474065,-0.17200000000000001
1748285550351161186,-0.17200000000000001
1748285550358848307,-0.177
1748285550366535428,-0.17200000000000001
1748285550374222549,-0.16
1748285550381909670,-0.158
1748285550389596791,-0.163
1748285550397283912,-0.167
1748285550404971033,-0.167
1748285550412658154,-0.167
1748285550420345275,-0.163
1748285550428032396,-0.153
1748285550435719517,-0.136
1748285550443406638,-0.121
1748285550451093759,-0.10200000000000001
1748285550458780880,-0.092
1748285550466468001,-0.114
1748285550474155122,-0.136
1748285550481842243,-0.133
1748285550489529364,-0.131
1748285550497216485,-0.133
1748285550504903606,-0.126
1748285550512590727,-0.121
1748285550520277848,-0.126
1748285550527964969,-0.145
1748285550535652090,-0.121
1748285550543339211,0.192
1748285550551026332,0.89
1748285550558713453,1.262
1748285550566400574,0.547
1748285550574087695,-0.596
1748285550581774816,-0.866
1748285550589461937,-0.46900000000000003
1748285550597149058,-0.34500000000000003
1748285550604836179,-0.335
1748285550612523300,-0.15
1748285550620210421,-0.07200000000000001
1748285550627897542,-0.116
1748285550635584663,-0.094
1748285550643271784,-0.058
1748285550650958905,-0.063
1748285550658646026,-0.055
1748285550666333147,-0.036000000000000004
1748285550674020268,-0.029
1748285550681707389,-0.024
1748285550689394510,-0.014
1748285550697081631,-0.004
1748285550704768752,0.002
1748285550712455873,0.014
1748285550720142994,0.024
1748285550727830179,0.036000000000000004
1748285550735517300,0.048
1748285550743204421,0.065
1748285550750891542,0.077
1748285550758578663,0.094
1748285550766265784,0.116
1748285550773952905,0.138
1748285550781640026,0.163
1748285550789327147,0.184
1748285550797014268,0.20400000000000001
1748285550804701389,0.221
1748285550812388510,0.231
1748285550820075631,0.231
1748285550827762752,0.226
1748285550835449873,0.216
1748285550843136994,0.189
1748285550850824115,0.14100000000000001
1748285550858511236,0.075
1748285550866198357,0.002
1748285550873885478,-0.068
1748285550881572599,-0.128
1748285550889259720,-0.177
1748285550896946841,-0.211
1748285550904633962,-0.228
1748285550912321083,-0.233
1748285550920008204,-0.231
1748285550927695325,-0.226
1748285550935382446,-0.216
1748285550943069567,-0.20400000000000001
1748285550950756688,-0.192
1748285550958443809,-0.18
1748285550966130930,-0.167
1748285550973818051,-0.163
1748285550981505172,-0.155
1748285550989192293,-0.148
1748285550996879414,-0.145
1748285551004566535,-0.145
1748285551012253656,-0.148
1748285551019940777,-0.15
1748285551027627898,-0.15
1748285551035315019,-0.153
1748285551043002140,-0.155
1748285551050689261,-0.155
1748285551058376382,-0.155
1748285551066063503,-0.153
1748285551073750624,-0.153
1748285551081437745,-0.153
1748285551089124866,-0.15
1748285551096811987,-0.15
1748285551104499108,-0.15
1748285551112186229,-0.145
1748285551119873350,-0.14300000000000002
1748285551127560471,-0.145
1748285551135247592,-0.153
1748285551142934713,-0.158
1748285551150621834,-0.158
1748285551158308955,-0.145
1748285551165996076,-0.121
1748285551173683197,-0.10200000000000001
1748285551181370318,-0.097
1748285551189057439,-0.09
1748285551196744560,-0.085
1748285551204431681,-0.107
1748285551212118802,-0.126
1748285551219805923,-0.11900000000000001
1748285551227493044,-0.116
1748285551235180165,-0.116
1748285551242867286,-0.111
1748285551250554407,-0.109
1748285551258241528,-0.124
1748285551265928649,-0.17
1748285551273615770,-0.14100000000000001
1748285551281302891,0.294
1748285551288990076,1.06,62,861
1748285551296677128,1.318
1748285551304364180,0.491
1748285551312051232,-0.5710000000000001
1748285551319738284,-0.6930000000000001
1748285551327425336,-0.306
1748285551335112388,-0.257
1748285551342799440,-0.262
1748285551350486492,-0.126
1748285551358173544,-0.107
1748285551365860596,-0.14300000000000002
1748285551373547648,-0.109
1748285551381234700,-0.085
1748285551388921752,-0.092
1748285551396608804,-0.08
1748285551404295856,-0.065
1748285551411982908,-0.065
1748285551419669960,-0.058
1748285551427357012,-0.043000000000000003
1748285551435044064,-0.038
1748285551442731116,-0.034
1748285551450418168,-0.021
1748285551458105220,-0.012
1748285551465792272,-0.004
1748285551473479324,0.009000000000000001
1748285551481166376,0.029
1748285551488853428,0.041
1748285551496540480,0.055
1748285551504227532,0.075
1748285551511914584,0.094
1748285551519601636,0.116
1748285551527288688,0.138
1748285551534975740,0.158
1748285551542662792,0.17
1748285551550349844,0.177
1748285551558036896,0.184
1748285551565723948,0.184
1748285551573411000,0.17500000000000002
1748285551581098052,0.15
1748285551588785104,0.107
1748285551596472156,0.046
1748285551604159208,-0.017
1748285551611846260,-0.077
1748285551619533312,-0.126
1748285551627220364,-0.165
1748285551634907416,-0.187
1748285551642594468,-0.197
1748285551650281520,-0.199
1748285551657968572,-0.199
1748285551665655624,-0.197
1748285551673342676,-0.189
1748285551681029728,-0.184
1748285551688716780,-0.18
1748285551696403832,-0.17500000000000002
1748285551704090884,-0.17200000000000001
1748285551711777936,-0.167
1748285551719464988,-0.163
1748285551727152040,-0.158
1748285551734839092,-0.158
1748285551742526144,-0.158
1748285551750213196,-0.158
1748285551757900248,-0.155
1748285551765587300,-0.155
1748285551773274352,-0.155
1748285551780961404,-0.153
1748285551788648456,-0.155
1748285551796335508,-0.155
1748285551804022560,-0.155
1748285551811709612,-0.153
1748285551819396664,-0.15
1748285551827083716,-0.148
1748285551834770768,-0.148
1748285551842457820,-0.145
1748285551850144890,-0.14300000000000002,63,793
1748285551857832081,-0.138
1748285551865519272,-0.14100000000000001
1748285551873206463,-0.14100000000000001
1748285551880893654,-0.133
1748285551888580845,-0.128
1748285551896268036,-0.128
1748285551903955227,-0.126
1748285551911642418,-0.124
1748285551919329609,-0.121
1748285551927016800,-0.116
1748285551934703991,-0.116
1748285551942391182,-0.116
1748285551950078373,-0.114
1748285551957765564,-0.114
1748285551965452755,-0.121
1748285551973139946,-0.128
1748285551980827137,-0.126
1748285551988514328,-0.111
1748285551996201519,-0.092
1748285552003888710,-0.07200000000000001
1748285552011575901,-0.07
1748285552019263092,-0.065
1748285552026950283,-0.058
1748285552034637474,-0.07200000000000001
1748285552042324665,-0.094
1748285552050011856,-0.092
1748285552057699047,-0.09
1748285552065386238,-0.094
1748285552073073429,-0.09
1748285552080760620,-0.085
1748285552088447811,-0.092
1748285552096135002,-0.131
1748285552103822193,-0.131
1748285552111509384,0.199
1748285552119196575,0.927
1748285552126883766,1.345
1748285552134570957,0.734
1748285552142258148,-0.367
1748285552149945339,-0.717
1748285552157632530,-0.357
1748285552165319721,-0.226
1748285552173006912,-0.262
1748285552180694103,-0.138
1748285552188381294,-0.085
1748285552196068485,-0.128
1748285552203755676,-0.10400000000000001
1748285552211442867,-0.07
1748285552219130058,-0.077
1748285552226817249,-0.07200000000000001
1748285552234504440,-0.058
1748285552242191631,-0.053
1748285552249878822,-0.051000000000000004
1748285552257566013,-0.038
1748285552265253204,-0.029
1748285552272940395,-0.026000000000000002
1748285552280627586,-0.017
1748285552288314777,-0.007
1748285552296001968,0.004
1748285552303689159,0.014
1748285552311376350,0.026000000000000002
1748285552319063541,0.038
1748285552326750732,0.055
1748285552334437923,0.07
1748285552342125114,0.085
1748285552349812305,0.107
1748285552357499496,0.126
1748285552365186687,0.14300000000000002
1748285552372873878,0.155
1748285552380561069,0.165
1748285552388248260,0.17
1748285552395935451,0.17500000000000002
1748285552403622642,0.17500000000000002
1748285552411309874,0.167
1748285552418996995,0.14100000000000001
1748285552426684116,0.097
1748285552434371237,0.043000000000000003
1748285552442058358,-0.012
1748285552449745479,-0.063
1748285552457432600,-0.109
1748285552465119721,-0.14300000000000002
1748285552472806842,-0.163
1748285552480493963,-0.17
1748285552488181084,-0.17500000000000002
1748285552495868205,-0.177
1748285552503555326,-0.177
1748285552511242447,-0.17200000000000001
1748285552518929568,-0.165
1748285552526616689,-0.163
1748285552534303810,-0.155
1748285552541990931,-0.15
1748285552549678052,-0.15
1748285552557365173,-0.148
1748285552565052294,-0.148
1748285552572739415,-0.148
1748285552580426536,-0.145
1748285552588113657,-0.14300000000000002
1748285552595800778,-0.14300000000000002
1748285552603487899,-0.14300000000000002
1748285552611175020,-0.14300000000000002
1748285552618862141,-0.145
1748285552626549262,-0.145
1748285552634236383,-0.14300000000000002
1748285552641923504,-0.14300000000000002
1748285552649610625,-0.14300000000000002
1748285552657297746,-0.14300000000000002
1748285552664984867,-0.14100000000000001
1748285552672671988,-0.138
1748285552680359109,-0.133
1748285552688046230,-0.128
1748285552695733351,-0.126
1748285552703420472,-0.126
1748285552711107593,-0.124
1748285552718794714,-0.121
1748285552726481835,-0.116
1748285552734168956,-0.111
1748285552741856077,-0.111
1748285552749543198,-0.111
1748285552757230319,-0.109
1748285552764917440,-0.10400000000000001
1748285552772604561,-0.10200000000000001
1748285552780291682,-0.10200000000000001
1748285552787978803,-0.099
1748285552795665924,-0.099
1748285552803353045,-0.097
1748285552811040166,-0.092
1748285552818727287,-0.092
1748285552826414408,-0.09
1748285552834101529,-0.08700000000000001
1748285552841788650,-0.08700000000000001
1748285552849475771,-0.08700000000000001
1748285552857162892,-0.085
1748285552864850013,-0.082
1748285552872537134,-0.082
1748285552880224255,-0.082
1748285552887911376,-0.082
1748285552895598497,-0.082
1748285552903285618,-0.08
1748285552910972739,-0.077
1748285552918659860,-0.075
1748285552926346981,-0.075
1748285552934034102,-0.077
1748285552941721223,-0.077
1748285552949408344,-0.07200000000000001
1748285552957095465,-0.07200000000000001
1748285552964782586,-0.07200000000000001
1748285552972469771,-0.07200000000000001,64,738
1748285552980156614,-0.07200000000000001
1748285552987843457,-0.07
1748285552995530300,-0.07
1748285553003217143,-0.068
1748285553010903986,-0.068
1748285553018590829,-0.065
1748285553026277672,-0.063
1748285553033964515,-0.063
1748285553041651358,-0.065
1748285553049338201,-0.063
1748285553057025044,-0.065
1748285553064711887,-0.075
1748285553072398730,-0.08
1748285553080085573,-0.08
1748285553087772416,-0.075
1748285553095459259,-0.063
1748285553103146102,-0.048
1748285553110832945,-0.036000000000000004
1748285553118519788,-0.024
1748285553126206631,-0.026000000000000002
1748285553133893474,-0.051000000000000004
1748285553141580317,-0.063
1748285553149267160,-0.063
1748285553156954003,-0.065
1748285553164640846,-0.068
1748285553172327689,-0.063
1748285553180014532,-0.06
1748285553187701375,-0.08
1748285553195388218,-0.133
1748285553203075061,-0.094
1748285553210761904,0.34500000000000003
1748285553218448747,1.09
1748285553226135590,1.357
1748285553233822433,0.608
1748285553241509276,-0.425
1748285553249196119,-0.61
1748285553256882962,-0.255
1748285553264569805,-0.209
1748285553272256648,-0.23800000000000002
1748285553279943491,-0.114
1748285553287630334,-0.09
1748285553295317177,-0.128
1748285553303004020,-0.097
1748285553310690863,-0.07200000000000001
1748285553318377706,-0.08
1748285553326064549,-0.068
1748285553333751392,-0.055
1748285553341438235,-0.055
1748285553349125078,-0.048
1748285553356811921,-0.038
1748285553364498764,-0.031
1748285553372185607,-0.026000000000000002
1748285553379872450,-0.019
1748285553387559293,-0.009000000000000001
1748285553395246136,0.0
1748285553402932979,0.012
1748285553410619822,0.019
1748285553418306665,0.029
1748285553425993508,0.038
1748285553433680351,0.051000000000000004
1748285553441367194,0.065
1748285553449054037,0.082
1748285553456740880,0.097
1748285553464427723,0.109
1748285553472114566,0.11900000000000001
1748285553479801409,0.126
1748285553487488252,0.131
1748285553495175095,0.131
1748285553502861938,0.131
1748285553510548781,0.136
1748285553518235624,0.133
1748285553525922467,0.114
1748285553533609324,0.077
1748285553541296515,0.031
1748285553548983706,-0.014
1748285553556670897,-0.055
1748285553564358088,-0.092
1748285553572045279,-0.121
1748285553579732470,-0.14100000000000001
1748285553587419661,-0.15
1748285553595106852,-0.158
1748285553602794043,-0.16
1748285553610481234,-0.158
1748285553618168425,-0.155
1748285553625855616,-0.153
1748285553633542807,-0.15
1748285553641229998,-0.145
1748285553648917189,-0.14300000000000002
1748285553656604380,-0.14100000000000001
1748285553664291571,-0.14100000000000001
1748285553671978762,-0.14100000000000001
1748285553679665953,-0.14100000000000001
1748285553687353144,-0.14100000000000001
1748285553695040335,-0.14100000000000001
1748285553702727526,-0.14100000000000001
1748285553710414717,-0.14300000000000002
1748285553718101908,-0.145
1748285553725789099,-0.14100000000000001
1748285553733476290,-0.133
1748285553741163481,-0.133
1748285553748850672,-0.138
1748285553756537863,-0.14100000000000001
1748285553764225054,-0.138
1748285553771912245,-0.136
1748285553779599436,-0.133
1748285553787286627,-0.131
1748285553794973818,-0.128
1748285553802661009,-0.128
1748285553810348200,-0.126
1748285553818035391,-0.126
1748285553825722582,-0.124
1748285553833409773,-0.11900000000000001
1748285553841096964,-0.114
1748285553848784155,-0.114
1748285553856471346,-0.111
1748285553864158537,-0.111
1748285553871845728,-0.109
1748285553879532919,-0.10400000000000001
1748285553887220110,-0.097
1748285553894907301,-0.10200000000000001
1748285553902594492,-0.10400000000000001
1748285553910281683,-0.10200000000000001
1748285553917968874,-0.099
1748285553925656065,-0.092
1748285553933343256,-0.09
1748285553941030447,-0.08700000000000001
1748285553948717638,-0.08700000000000001
1748285553956404829,-0.08700000000000001
1748285553964092020,-0.08700000000000001
1748285553971779211,-0.085
1748285553979466402,-0.082
1748285553987153593,-0.082
1748285553994840784,-0.085
1748285554002527975,-0.082
1748285554010215166,-0.077
1748285554017902357,-0.07200000000000001
1748285554025589548,-0.07200000000000001
1748285554033276739,-0.077
1748285554040963930,-0.077
1748285554048651121,-0.075
1748285554056338312,-0.07200000000000001
1748285554064025503,-0.068
1748285554071712694,-0.07
1748285554079399885,-0.075
1748285554087087076,-0.075
1748285554094774308,-0.077,65,737
1748285554102461220,-0.085
1748285554110148132,-0.08
1748285554117835044,-0.07
1748285554125521956,-0.063
1748285554133208868,-0.053
1748285554140895780,-0.038
1748285554148582692,-0.024
1748285554156269604,-0.036000000000000004
1748285554163956516,-0.06
1748285554171643428,-0.068
1748285554179330340,-0.063
1748285554187017252,-0.068
1748285554194704164,-0.07
1748285554202391076,-0.065
1748285554210077988,-0.068
1748285554217764900,-0.08700000000000001
1748285554225451812,-0.10400000000000001
1748285554233138724,0.08
1748285554240825636,0.6950000000000001
1748285554248512548,1.304
1748285554256199460,1.024
1748285554263886372,-0.07
1748285554271573284,-0.747
1748285554279260196,-0.51
1748285554286947108,-0.257
1748285554294634020,-0.289
1748285554302320932,-0.182
1748285554310007844,-0.063
1748285554317694756,-0.097
1748285554325381668,-0.10200000000000001
1748285554333068580,-0.053
1748285554340755492,-0.046
1748285554348442404,-0.048
1748285554356129316,-0.031
1748285554363816228,-0.024
1748285554371503140,-0.024
1748285554379190052,-0.017
1748285554386876964,-0.004
1748285554394563876,0.002
1748285554402250788,0.012
1748285554409937700,0.019
1748285554417624612,0.029
1748285554425311524,0.041
1748285554432998436,0.051000000000000004
1748285554440685348,0.063
1748285554448372260,0.077
1748285554456059172,0.09
1748285554463746084,0.10400000000000001
1748285554471432996,0.121
1748285554479119908,0.138
1748285554486806820,0.155
1748285554494493732,0.167
1748285554502180644,0.177
1748285554509867556,0.184
1748285554517554468,0.184
1748285554525241380,0.182
1748285554532928292,0.17500000000000002
1748285554540615204,0.163
1748285554548302116,0.136
1748285554555989028,0.094
1748285554563675940,0.041
1748285554571362852,-0.017
1748285554579049764,-0.07200000000000001
1748285554586736676,-0.11900000000000001
1748285554594423588,-0.153
1748285554602110500,-0.177
1748285554609797412,-0.187
1748285554617484324,-0.189
1748285554625171236,-0.189
1748285554632858148,-0.18
1748285554640545060,-0.17
1748285554648231972,-0.163
1748285554655918944,-0.153
1748285554663606065,-0.14300000000000002
1748285554671293186,-0.136
1748285554678980307,-0.128
1748285554686667428,-0.124
1748285554694354549,-0.121
1748285554702041670,-0.11900000000000001
1748285554709728791,-0.11900000000000001
1748285554717415912,-0.121
1748285554725103033,-0.124
1748285554732790154,-0.124
1748285554740477275,-0.124
1748285554748164396,-0.126
1748285554755851517,-0.126
1748285554763538638,-0.126
1748285554771225759,-0.124
1748285554778912880,-0.124
1748285554786600001,-0.121
1748285554794287122,-0.11900000000000001
1748285554801974243,-0.116
1748285554809661364,-0.114
1748285554817348485,-0.111
1748285554825035606,-0.111
1748285554832722727,-0.107
1748285554840409848,-0.10400000000000001
1748285554848096969,-0.10400000000000001
1748285554855784090,-0.10200000000000001
1748285554863471211,-0.099
1748285554871158332,-0.097
1748285554878845453,-0.094
1748285554886532574,-0.092
1748285554894219695,-0.09
1748285554901906816,-0.08700000000000001
1748285554909593937,-0.085
1748285554917281058,-0.082
1748285554924968179,-0.08
1748285554932655300,-0.08
1748285554940342421,-0.075
1748285554948029542,-0.07200000000000001
1748285554955716663,-0.07200000000000001
1748285554963403784,-0.07
1748285554971090905,-0.07
1748285554978778026,-0.07
1748285554986465147,-0.065
1748285554994152268,-0.065
1748285555001839389,-0.065
1748285555009526510,-0.063
1748285555017213631,-0.06
1748285555024900752,-0.06
1748285555032587873,-0.068
1748285555040274994,-0.07200000000000001
1748285555047962115,-0.075
1748285555055649236,-0.07
1748285555063336357,-0.063
1748285555071023478,-0.048
1748285555078710599,-0.034
1748285555086397720,-0.021
1748285555094084841,-0.014
1748285555101771962,-0.031
1748285555109459083,-0.055
1748285555117146204,-0.055
1748285555124833325,-0.053
1748285555132520446,-0.055
1748285555140207567,-0.053
1748285555147894688,-0.048
1748285555155581809,-0.058
1748285555163268930,-0.094
1748285555170956051,-0.116
1748285555178643172,0.148
1748285555186330293,0.849
1748285555194017414,1.377
1748285555201704535,0.931
1748285555209391656,-0.182
1748285555217078841,-0.6930000000000001,67,832
1748285555224765962,-0.377
1748285555232453083,-0.192
1748285555240140204,-0.24
1748285555247827325,-0.133
1748285555255514446,-0.055
1748285555263201567,-0.097
1748285555270888688,-0.085
1748285555278575809,-0.046
1748285555286262930,-0.051000000000000004
1748285555293950051,-0.051000000000000004
1748285555301637172,-0.034
1748285555309324293,-0.026000000000000002
1748285555317011414,-0.024
1748285555324698535,-0.014
1748285555332385656,-0.007
1748285555340072777,-0.002
1748285555347759898,0.004
1748285555355447019,0.014
1748285555363134140,0.026000000000000002
1748285555370821261,0.036000000000000004
1748285555378508382,0.043000000000000003
1748285555386195503,0.055
1748285555393882624,0.07200000000000001
1748285555401569745,0.08700000000000001
1748285555409256866,0.10400000000000001
1748285555416943987,0.124
1748285555424631108,0.14300000000000002
1748285555432318229,0.163
1748285555440005350,0.18
1748285555447692471,0.189
1748285555455379592,0.197
1748285555463066713,0.199
1748285555470753834,0.197
1748285555478440955,0.189
1748285555486128076,0.17200000000000001
1748285555493815197,0.138
1748285555501502318,0.09
1748285555509189439,0.036000000000000004
1748285555516876560,-0.019
1748285555524563681,-0.068
1748285555532250802,-0.109
1748285555539937923,-0.136
1748285555547625044,-0.153
1748285555555312165,-0.158
1748285555562999286,-0.16
1748285555570686407,-0.158
1748285555578373528,-0.15
1748285555586060649,-0.145
1748285555593747770,-0.14100000000000001
1748285555601434891,-0.133
1748285555609122012,-0.128
1748285555616809133,-0.124
1748285555624496254,-0.121
1748285555632183375,-0.11900000000000001
1748285555639870496,-0.116
1748285555647557617,-0.116
1748285555655244738,-0.114
1748285555662931859,-0.111
1748285555670618980,-0.114
1748285555678306101,-0.114
1748285555685993222,-0.114
1748285555693680343,-0.114
1748285555701367464,-0.114
1748285555709054585,-0.114
1748285555716741706,-0.114
1748285555724428827,-0.114
1748285555732115948,-0.111
1748285555739803069,-0.107
1748285555747490190,-0.107
1748285555755177311,-0.10400000000000001
1748285555762864432,-0.099
1748285555770551553,-0.097
1748285555778238738,-0.097,68,1098
1748285555785925859,-0.094
1748285555793612980,-0.092
1748285555801300101,-0.09
1748285555808987222,-0.08700000000000001
1748285555816674343,-0.085
1748285555824361464,-0.082
1748285555832048585,-0.08
1748285555839735706,-0.08
1748285555847422827,-0.077
1748285555855109948,-0.077
1748285555862797069,-0.075
1748285555870484190,-0.07200000000000001
1748285555878171311,-0.07
1748285555885858432,-0.068
1748285555893545553,-0.065
1748285555901232674,-0.063
1748285555908919795,-0.06
1748285555916606916,-0.06
1748285555924294037,-0.058
1748285555931981158,-0.058
1748285555939668279,-0.055
1748285555947355400,-0.055
1748285555955042521,-0.055
1748285555962729642,-0.055
1748285555970416763,-0.053
1748285555978103884,-0.053
1748285555985791005,-0.051000000000000004
1748285555993478126,-0.051000000000000004
1748285556001165247,-0.051000000000000004
1748285556008852368,-0.048
1748285556016539489,-0.048
1748285556024226610,-0.048
1748285556031913731,-0.046
1748285556039600852,-0.046
1748285556047287973,-0.046
1748285556054975094,-0.043000000000000003
1748285556062662215,-0.043000000000000003
1748285556070349336,-0.043000000000000003
1748285556078036457,-0.043000000000000003
1748285556085723578,-0.043000000000000003
1748285556093410699,-0.041
1748285556101097820,-0.041
1748285556108784941,-0.038
1748285556116472062,-0.038
1748285556124159183,-0.038
1748285556131846304,-0.038
1748285556139533425,-0.036000000000000004
1748285556147220546,-0.034
1748285556154907667,-0.036000000000000004
1748285556162594788,-0.038
1748285556170281909,-0.046
1748285556177969030,-0.051000000000000004
1748285556185656151,-0.053
1748285556193343272,-0.051000000000000004
1748285556201030393,-0.041
1748285556208717514,-0.026000000000000002
1748285556216404635,-0.017
1748285556224091756,-0.004
1748285556231778877,0.002
1748285556239465998,-0.014
1748285556247153119,-0.038
1748285556254840240,-0.041
1748285556262527361,-0.036000000000000004
1748285556270214482,-0.041
1748285556277901603,-0.041
1748285556285588724,-0.038
1748285556293275845,-0.051000000000000004
1748285556300962966,-0.094
1748285556308650087,-0.109
1748285556316337208,0.211
1748285556324024329,0.936
1748285556331711450,1.3860000000000001
1748285556339398639,0.858
1748285556347085760,-0.221
1748285556354772881,-0.649
1748285556362460002,-0.326
1748285556370147123,-0.18
1748285556377834244,-0.231
1748285556385521365,-0.126
1748285556393208486,-0.07
1748285556400895607,-0.114
1748285556408582728,-0.097
1748285556416269849,-0.063
1748285556423956970,-0.068
1748285556431644091,-0.065
1748285556439331212,-0.048
1748285556447018333,-0.043000000000000003
1748285556454705454,-0.041
1748285556462392575,-0.034
1748285556470079696,-0.029
1748285556477766817,-0.021
1748285556485453938,-0.014
1748285556493141059,-0.004
1748285556500828180,0.002
1748285556508515301,0.009000000000000001
1748285556516202422,0.021
1748285556523889543,0.031
1748285556531576664,0.041
1748285556539263785,0.051000000000000004
1748285556546950906,0.065
1748285556554638027,0.08
1748285556562325148,0.094
1748285556570012269,0.107
1748285556577699390,0.121
1748285556585386511,0.131
1748285556593073632,0.136
1748285556600760753,0.138
1748285556608447874,0.138
1748285556616134995,0.136
1748285556623822116,0.128
1748285556631509237,0.109
1748285556639196358,0.077
1748285556646883479,0.036000000000000004
1748285556654570600,-0.012
1748285556662257721,-0.058
1748285556669944842,-0.097
1748285556677631963,-0.128
1748285556685319084,-0.15
1748285556693006205,-0.163
1748285556700693326,-0.17
1748285556708380447,-0.17
1748285556716067568,-0.167
1748285556723754689,-0.165
1748285556731441810,-0.16
1748285556739128931,-0.158
1748285556746816052,-0.153
1748285556754503173,-0.15
1748285556762190294,-0.148
1748285556769877415,-0.145
1748285556777564536,-0.14300000000000002
1748285556785251657,-0.14100000000000001
1748285556792938778,-0.14100000000000001
1748285556800625899,-0.14100000000000001
1748285556808313020,-0.14100000000000001
1748285556816000141,-0.14300000000000002
1748285556823687262,-0.14100000000000001
1748285556831374383,-0.14100000000000001
1748285556839061504,-0.14100000000000001
1748285556846748625,-0.14300000000000002
1748285556854435746,-0.14300000000000002
1748285556862122867,-0.14100000000000001
1748285556869809988,-0.138
1748285556877497109,-0.138
1748285556885184230,-0.136
1748285556892871351,-0.133
1748285556900558536,-0.133,67,1026
1748285556908245657,-0.131
1748285556915932778,-0.128
1748285556923619899,-0.128
1748285556931307020,-0.128
1748285556938994141,-0.126
1748285556946681262,-0.124
1748285556954368383,-0.121
1748285556962055504,-0.116
1748285556969742625,-0.114
1748285556977429746,-0.111
1748285556985116867,-0.109
1748285556992803988,-0.107
1748285557000491109,-0.10400000000000001
1748285557008178230,-0.099
1748285557015865351,-0.099
1748285557023552472,-0.099
1748285557031239593,-0.097
1748285557038926714,-0.092
1748285557046613835,-0.09
1748285557054300956,-0.08700000000000001
1748285557061988077,-0.085
1748285557069675198,-0.085
1748285557077362319,-0.082
1748285557085049440,-0.08
1748285557092736561,-0.08
1748285557100423682,-0.08
1748285557108110803,-0.077
1748285557115797924,-0.075
1748285557123485045,-0.07200000000000001
1748285557131172166,-0.07200000000000001
1748285557138859287,-0.075
1748285557146546408,-0.07200000000000001
1748285557154233529,-0.07
1748285557161920650,-0.068
1748285557169607771,-0.068
1748285557177294892,-0.065
1748285557184982013,-0.063
1748285557192669134,-0.063
1748285557200356255,-0.063
1748285557208043376,-0.06
1748285557215730497,-0.058
1748285557223417618,-0.058
1748285557231104739,-0.06
1748285557238791860,-0.055
1748285557246478981,-0.053
1748285557254166102,-0.053
1748285557261853223,-0.055
1748285557269540344,-0.053
1748285557277227465,-0.051000000000000004
1748285557284914586,-0.051000000000000004
1748285557292601707,-0.051000000000000004
1748285557300288828,-0.051000000000000004
1748285557307975949,-0.046
1748285557315663070,-0.046
1748285557323350191,-0.046
1748285557331037312,-0.043000000000000003
1748285557338724433,-0.043000000000000003
1748285557346411554,-0.046
1748285557354098675,-0.043000000000000003
1748285557361785796,-0.041
1748285557369472917,-0.048
1748285557377160038,-0.055
1748285557384847159,-0.055
1748285557392534280,-0.053
1748285557400221401,-0.051000000000000004
1748285557407908522,-0.041
1748285557415595643,-0.026000000000000002
1748285557423282764,-0.014
1748285557430969885,0.0
1748285557438657006,-0.004
1748285557446344127,-0.031
1748285557454031248,-0.041
1748285557461718433,-0.036000000000000004
1748285557469405554,-0.038
1748285557477092675,-0.043000000000000003
1748285557484779796,-0.038
1748285557492466917,-0.041
1748285557500154038,-0.07
1748285557507841159,-0.114
1748285557515528280,0.053
1748285557523215401,0.659
1748285557530902522,1.289
1748285557538589643,1.133
1748285557546276764,0.133
1748285557553963885,-0.62
1748285557561651006,-0.467
1748285557569338127,-0.189
1748285557577025248,-0.221
1748285557584712369,-0.165
1748285557592399490,-0.06
1748285557600086611,-0.085
1748285557607773732,-0.094
1748285557615460853,-0.053
1748285557623147974,-0.046
1748285557630835095,-0.048
1748285557638522216,-0.034
1748285557646209337,-0.024
1748285557653896458,-0.024
1748285557661583579,-0.014
1748285557669270700,-0.004
1748285557676957821,0.002
1748285557684644942,0.012
1748285557692332063,0.019
1748285557700019184,0.026000000000000002
1748285557707706305,0.036000000000000004
1748285557715393426,0.046
1748285557723080547,0.055
1748285557730767668,0.068
1748285557738454789,0.082
1748285557746141910,0.094
1748285557753829031,0.107
1748285557761516152,0.121
1748285557769203273,0.136
1748285557776890394,0.15
1748285557784577515,0.16
1748285557792264636,0.165
1748285557799951757,0.167
1748285557807638878,0.167
1748285557815325999,0.165
1748285557823013120,0.158
1748285557830700241,0.14300000000000002
1748285557838387362,0.121
1748285557846074483,0.08700000000000001
1748285557853761604,0.043000000000000003
1748285557861448725,0.0
1748285557869135846,-0.038
1748285557876822967,-0.075
1748285557884510088,-0.10200000000000001
1748285557892197209,-0.11900000000000001
1748285557899884330,-0.128
1748285557907571451,-0.131
1748285557915258572,-0.128
1748285557922945693,-0.124
1748285557930632814,-0.11900000000000001
1748285557938319935,-0.116
1748285557946007056,-0.111
1748285557953694177,-0.107
1748285557961381298,-0.10400000000000001
1748285557969068419,-0.099
1748285557976755540,-0.094
1748285557984442661,-0.094
1748285557992129782,-0.097
1748285557999816903,-0.097
1748285558007504024,-0.097
1748285558015191145,-0.097
1748285558022878330,-0.097,66,944
1748285558030565451,-0.097
1748285558038252572,-0.099
1748285558045939693,-0.099
1748285558053626814,-0.099
1748285558061313935,-0.097
1748285558069001056,-0.097
1748285558076688177,-0.097
1748285558084375298,-0.094
1748285558092062419,-0.094
1748285558099749540,-0.094
1748285558107436661,-0.092
1748285558115123782,-0.08700000000000001
1748285558122810903,-0.085
1748285558130498024,-0.082
1748285558138185145,-0.08
1748285558145872266,-0.077
1748285558153559387,-0.075
1748285558161246508,-0.07
1748285558168933629,-0.068
1748285558176620750,-0.068
1748285558184307871,-0.07
1748285558191994992,-0.065
1748285558199682113,-0.063
1748285558207369234,-0.058
1748285558215056355,-0.055
1748285558222743476,-0.053
1748285558230430597,-0.051000000000000004
1748285558238117718,-0.051000000000000004
1748285558245804839,-0.048
1748285558253491960,-0.046
1748285558261179081,-0.046
1748285558268866202,-0.046
1748285558276553323,-0.046
1748285558284240444,-0.046
1748285558291927565,-0.043000000000000003
1748285558299614686,-0.041
1748285558307301807,-0.038
1748285558314988928,-0.038
1748285558322676049,-0.038
1748285558330363170,-0.036000000000000004
1748285558338050291,-0.036000000000000004
1748285558345737412,-0.036000000000000004
1748285558353424533,-0.034
1748285558361111654,-0.031
1748285558368798775,-0.029
1748285558376485896,-0.026000000000000002
1748285558384173017,-0.026000000000000002
1748285558391860138,-0.029
1748285558399547259,-0.029
1748285558407234380,-0.026000000000000002
1748285558414921501,-0.024
1748285558422608622,-0.024
1748285558430295743,-0.024
1748285558437982864,-0.024
1748285558445669985,-0.021
1748285558453357106,-0.021
1748285558461044227,-0.021
1748285558468731348,-0.024
1748285558476418469,-0.029
1748285558484105590,-0.034
1748285558491792711,-0.034
1748285558499479832,-0.029
1748285558507166953,-0.017
1748285558514854074,-0.004
1748285558522541195,0.007
1748285558530228316,0.021
1748285558537915437,0.019
1748285558545602558,-0.007
1748285558553289679,-0.019
1748285558560976800,-0.014
1748285558568663921,-0.019
1748285558576351042,-0.024
1748285558584038227,-0.014
1748285558591725348,-0.012
1748285558599412469,-0.036000000000000004
1748285558607099590,-0.075
1748285558614786711,0.068
1748285558622473832,0.639
1748285558630160953,1.289
1748285558637848074,1.177
1748285558645535195,0.177
1748285558653222316,-0.62
1748285558660909437,-0.496
1748285558668596558,-0.201
1748285558676283679,-0.218
1748285558683970800,-0.153
1748285558691657921,-0.031
1748285558699345042,-0.051000000000000004
1748285558707032163,-0.063
1748285558714719284,-0.024
1748285558722406405,-0.017
1748285558730093526,-0.019
1748285558737780647,-0.002
1748285558745467768,0.004
1748285558753154889,0.007
1748285558760842010,0.014
1748285558768529131,0.024
1748285558776216252,0.029
1748285558783903373,0.036000000000000004
1748285558791590494,0.046
1748285558799277615,0.055
1748285558806964736,0.068
1748285558814651857,0.077
1748285558822338978,0.085
1748285558830026099,0.099
1748285558837713220,0.111
1748285558845400341,0.124
1748285558853087462,0.136
1748285558860774583,0.155
1748285558868461704,0.17200000000000001
1748285558876148825,0.184
1748285558883835946,0.194
1748285558891523067,0.199
1748285558899210188,0.199
1748285558906897309,0.197
1748285558914584430,0.194
1748285558922271551,0.187
1748285558929958672,0.167
1748285558937645793,0.131
1748285558945332914,0.08700000000000001
1748285558953020035,0.038
1748285558960707156,-0.012
1748285558968394277,-0.065
1748285558976081398,-0.10400000000000001
1748285558983768519,-0.126
1748285558991455640,-0.14100000000000001
1748285558999142761,-0.15
1748285559006829882,-0.15
1748285559014517003,-0.145
1748285559022204124,-0.14100000000000001
1748285559029891245,-0.133
1748285559037578366,-0.126
1748285559045265487,-0.11900000000000001
1748285559052952608,-0.111
1748285559060639729,-0.107
1748285559068326850,-0.10200000000000001
1748285559076013971,-0.10200000000000001
1748285559083701092,-0.099
1748285559091388213,-0.099
1748285559099075334,-0.10400000000000001
1748285559106762455,-0.10400000000000001
1748285559114449576,-0.10200000000000001
1748285559122136697,-0.10400000000000001
1748285559129823818,-0.107
1748285559137510939,-0.109
1748285559145198128,-0.109,66,1137
1748285559152885249,-0.109
1748285559160572370,-0.109
1748285559168259491,-0.107
1748285559175946612,-0.107
1748285559183633733,-0.10400000000000001
1748285559191320854,-0.10400000000000001
1748285559199007975,-0.10200000000000001
1748285559206695096,-0.099
1748285559214382217,-0.099
1748285559222069338,-0.097
1748285559229756459,-0.094
1748285559237443580,-0.094
1748285559245130701,-0.092
1748285559252817822,-0.09
1748285559260504943,-0.08700000000000001
1748285559268192064,-0.08700000000000001
1748285559275879185,-0.085
1748285559283566306,-0.082
1748285559291253427,-0.08
1748285559298940548,-0.08
1748285559306627669,-0.077
1748285559314314790,-0.075
1748285559322001911,-0.07200000000000001
1748285559329689032,-0.075
1748285559337376153,-0.07200000000000001
1748285559345063274,-0.068
1748285559352750395,-0.068
1748285559360437516,-0.068
1748285559368124637,-0.065
1748285559375811758,-0.063
1748285559383498879,-0.063
1748285559391186000,-0.06
1748285559398873121,-0.058
1748285559406560242,-0.058
1748285559414247363,-0.055
1748285559421934484,-0.053
1748285559429621605,-0.053
1748285559437308726,-0.055
1748285559444995847,-0.053
1748285559452682968,-0.051000000000000004
1748285559460370089,-0.051000000000000004
1748285559468057210,-0.048
1748285559475744331,-0.048
1748285559483431452,-0.048
1748285559491118573,-0.048
1748285559498805694,-0.053
1748285559506492815,-0.06
1748285559514179936,-0.06
1748285559521867057,-0.053
1748285559529554178,-0.048
1748285559537241299,-0.038
1748285559544928420,-0.026000000000000002
1748285559552615541,-0.012
1748285559560302662,-0.002
1748285559567989783,-0.019
1748285559575676904,-0.046
1748285559583364025,-0.046
1748285559591051146,-0.043000000000000003
1748285559598738267,-0.046
1748285559606425388,-0.043000000000000003
1748285559614112509,-0.038
1748285559621799630,-0.051000000000000004
1748285559629486751,-0.08700000000000001
1748285559637173872,-0.07200000000000001
1748285559644860993,0.265
1748285559652548114,0.963
1748285559660235235,1.326
1748285559667922356,0.6980000000000001
1748285559675609477,-0.364
1748285559683296598,-0.6930000000000001
1748285559690983719,-0.34700000000000003
1748285559698670840,-0.214
1748285559706358025,-0.228
1748285559714044868,-0.097
1748285559721731711,-0.041
1748285559729418554,-0.082
1748285559737105397,-0.058
1748285559744792240,-0.026000000000000002
1748285559752479083,-0.034
1748285559760165926,-0.031
1748285559767852769,-0.014
1748285559775539612,-0.009000000000000001
1748285559783226455,-0.007
1748285559790913298,0.002
1748285559798600141,0.009000000000000001
1748285559806286984,0.017
1748285559813973827,0.026000000000000002
1748285559821660670,0.034
1748285559829347513,0.043000000000000003
1748285559837034356,0.055
1748285559844721199,0.065
1748285559852408042,0.075
1748285559860094885,0.09
1748285559867781728,0.10200000000000001
1748285559875468571,0.116
1748285559883155414,0.133
1748285559890842257,0.153
1748285559898529100,0.167
1748285559906215943,0.18
1748285559913902786,0.189
1748285559921589629,0.194
1748285559929276472,0.194
1748285559936963315,0.192
1748285559944650158,0.187
1748285559952337001,0.17
1748285559960023844,0.14300000000000002
1748285559967710687,0.099
1748285559975397530,0.051000000000000004
1748285559983084373,-0.002
1748285559990771216,-0.051000000000000004
1748285559998458059,-0.092
1748285560006144902,-0.124
1748285560013831745,-0.14100000000000001
1748285560021518588,-0.148
1748285560029205431,-0.153
1748285560036892274,-0.153
1748285560044579117,-0.145
1748285560052265960,-0.138
1748285560059952803,-0.131
1748285560067639646,-0.126
1748285560075326489,-0.11900000000000001
1748285560083013332,-0.114
1748285560090700175,-0.111
1748285560098387018,-0.107
1748285560106073861,-0.10200000000000001
1748285560113760704,-0.10200000000000001
1748285560121447547,-0.099
1748285560129134390,-0.10200000000000001
1748285560136821233,-0.10400000000000001
1748285560144508076,-0.10400000000000001
1748285560152194919,-0.107
1748285560159881762,-0.109
1748285560167568605,-0.109
1748285560175255448,-0.109
1748285560182942291,-0.109
1748285560190629134,-0.109
1748285560198315977,-0.107
1748285560206002820,-0.10400000000000001
1748285560213689663,-0.10400000000000001
1748285560221376506,-0.10400000000000001
1748285560229063349,-0.10200000000000001
1748285560236750192,-0.099
1748285560244437035,-0.097
1748285560252123878,-0.094
1748285560259810721,-0.092
1748285560267497578,-0.09,65,1202
1748285560275184769,-0.09
1748285560282871960,-0.09
1748285560290559151,-0.08700000000000001
1748285560298246342,-0.082
1748285560305933533,-0.08
1748285560313620724,-0.08
1748285560321307915,-0.077
1748285560328995106,-0.075
1748285560336682297,-0.07200000000000001
1748285560344369488,-0.07
1748285560352056679,-0.068
1748285560359743870,-0.065
1748285560367431061,-0.063
1748285560375118252,-0.06
1748285560382805443,-0.06
1748285560390492634,-0.06
1748285560398179825,-0.058
1748285560405867016,-0.058
1748285560413554207,-0.055
1748285560421241398,-0.055
1748285560428928589,-0.055
1748285560436615780,-0.053
1748285560444302971,-0.051000000000000004
1748285560451990162,-0.051000000000000004
1748285560459677353,-0.051000000000000004
1748285560467364544,-0.048
1748285560475051735,-0.048
1748285560482738926,-0.046
1748285560490426117,-0.046
1748285560498113308,-0.048
1748285560505800499,-0.046
1748285560513487690,-0.046
1748285560521174881,-0.046
1748285560528862072,-0.046
1748285560536549263,-0.043000000000000003
1748285560544236454,-0.043000000000000003
1748285560551923645,-0.048
1748285560559610836,-0.055
1748285560567298027,-0.055
1748285560574985218,-0.055
1748285560582672409,-0.048
1748285560590359600,-0.038
1748285560598046791,-0.026000000000000002
1748285560605733982,-0.012
1748285560613421173,0.002
1748285560621108364,-0.009000000000000001
1748285560628795555,-0.036000000000000004
1748285560636482746,-0.043000000000000003
1748285560644169937,-0.041
1748285560651857128,-0.046
1748285560659544319,-0.043000000000000003
1748285560667231510,-0.036000000000000004
1748285560674918701,-0.043000000000000003
1748285560682605892,-0.075
1748285560690293083,-0.10400000000000001
1748285560697980274,0.08700000000000001
1748285560705667465,0.71
1748285560713354656,1.301
1748285560721041847,1.058
1748285560728729038,0.031
1748285560736416229,-0.656
1748285560744103420,-0.462
1748285560751790611,-0.20400000000000001
1748285560759477802,-0.231
1748285560767164993,-0.155
1748285560774852184,-0.058
1748285560782539375,-0.085
1748285560790226566,-0.08700000000000001
1748285560797913757,-0.046
1748285560805600948,-0.043000000000000003
1748285560813288139,-0.046
1748285560820975330,-0.031
1748285560828662562,-0.024,64,1100
1748285560836349474,-0.021
1748285560844036386,-0.014
1748285560851723298,-0.004
1748285560859410210,0.002
1748285560867097122,0.009000000000000001
1748285560874784034,0.019
1748285560882470946,0.029
1748285560890157858,0.041
1748285560897844770,0.051000000000000004
1748285560905531682,0.063
1748285560913218594,0.075
1748285560920905506,0.085
1748285560928592418,0.099
1748285560936279330,0.116
1748285560943966242,0.131
1748285560951653154,0.145
1748285560959340066,0.16
1748285560967026978,0.17
1748285560974713890,0.17500000000000002
1748285560982400802,0.177
1748285560990087714,0.177
1748285560997774626,0.17500000000000002
1748285561005461538,0.165
1748285561013148450,0.14300000000000002
1748285561020835362,0.114
1748285561028522274,0.07
1748285561036209186,0.021
1748285561043896098,-0.024
1748285561051583010,-0.065
1748285561059269922,-0.10400000000000001
1748285561066956834,-0.131
1748285561074643746,-0.14300000000000002
1748285561082330658,-0.145
1748285561090017570,-0.148
1748285561097704482,-0.148
1748285561105391394,-0.14300000000000002
1748285561113078306,-0.136
1748285561120765218,-0.131
1748285561128452130,-0.126
1748285561136139042,-0.11900000000000001
1748285561143825954,-0.111
1748285561151512866,-0.111
1748285561159199778,-0.109
1748285561166886690,-0.10400000000000001
1748285561174573602,-0.10400000000000001
1748285561182260514,-0.107
1748285561189947426,-0.107
1748285561197634338,-0.107
1748285561205321250,-0.111
1748285561213008162,-0.111
1748285561220695074,-0.111
1748285561228381986,-0.114
1748285561236068898,-0.114
1748285561243755810,-0.114
1748285561251442722,-0.114
1748285561259129634,-0.114
1748285561266816546,-0.111
1748285561274503458,-0.109
1748285561282190370,-0.111
1748285561289877282,-0.109
1748285561297564194,-0.10400000000000001
1748285561305251106,-0.10400000000000001
1748285561312938018,-0.099
1748285561320624930,-0.099
1748285561328311842,-0.10200000000000001
1748285561335998754,-0.10200000000000001
1748285561343685666,-0.094
1748285561351372578,-0.092
1748285561359059490,-0.094
1748285561366746402,-0.092
1748285561374433314,-0.08700000000000001
1748285561382120226,-0.085
1748285561389807198,-0.082
1748285561397494319,-0.08
1748285561405181440,-0.08
1748285561412868561,-0.077
1748285561420555682,-0.075
1748285561428242803,-0.07200000000000001
1748285561435929924,-0.07200000000000001
1748285561443617045,-0.07
1748285561451304166,-0.07
1748285561458991287,-0.068
1748285561466678408,-0.065
1748285561474365529,-0.065
1748285561482052650,-0.063
1748285561489739771,-0.06
1748285561497426892,-0.058
1748285561505114013,-0.058
1748285561512801134,-0.055
1748285561520488255,-0.053
1748285561528175376,-0.053
1748285561535862497,-0.053
1748285561543549618,-0.051000000000000004
1748285561551236739,-0.048
1748285561558923860,-0.048
1748285561566610981,-0.051000000000000004
1748285561574298102,-0.051000000000000004
1748285561581985223,-0.048
1748285561589672344,-0.046
1748285561597359465,-0.046
1748285561605046586,-0.051000000000000004
1748285561612733707,-0.055
1748285561620420828,-0.06
1748285561628107949,-0.058
1748285561635795070,-0.053
1748285561643482191,-0.041
1748285561651169312,-0.029
1748285561658856433,-0.019
1748285561666543554,-0.004
1748285561674230675,-0.009000000000000001
1748285561681917796,-0.031
1748285561689604917,-0.043000000000000003
1748285561697292038,-0.041
1748285561704979159,-0.046
1748285561712666280,-0.046
1748285561720353401,-0.041
1748285561728040522,-0.041
1748285561735727643,-0.06
1748285561743414764,-0.10200000000000001
1748285561751101885,0.021
1748285561758789006,0.5760000000000001
1748285561766476127,1.245
1748285561774163248,1.187
1748285561781850369,0.223
1748285561789537490,-0.613
1748285561797224611,-0.535
1748285561804911732,-0.223
1748285561812598853,-0.226
1748285561820285974,-0.177
1748285561827973095,-0.058
1748285561835660216,-0.07
1748285561843347337,-0.08700000000000001
1748285561851034458,-0.048
1748285561858721579,-0.036000000000000004
1748285561866408700,-0.043000000000000003
1748285561874095821,-0.029
1748285561881782942,-0.019
1748285561889470063,-0.019
1748285561897157184,-0.009000000000000001
1748285561904844305,0.0
1748285561912531426,0.007
1748285561920218547,0.014
1748285561927905668,0.026000000000000002
1748285561935592789,0.036000000000000004
1748285561943279910,0.043000000000000003
1748285561950967095,0.055,62,1026
1748285561958654216,0.065
1748285561966341337,0.075
1748285561974028458,0.09
1748285561981715579,0.10400000000000001
1748285561989402700,0.11900000000000001
1748285561997089821,0.136
1748285562004776942,0.15
1748285562012464063,0.165
1748285562020151184,0.17500000000000002
1748285562027838305,0.18
1748285562035525426,0.182
1748285562043212547,0.18
1748285562050899668,0.17500000000000002
1748285562058586789,0.167
1748285562066273910,0.15
1748285562073961031,0.11900000000000001
1748285562081648152,0.075
1748285562089335273,0.029
1748285562097022394,-0.017
1748285562104709515,-0.063
1748285562112396636,-0.10200000000000001
1748285562120083757,-0.124
1748285562127770878,-0.138
1748285562135457999,-0.145
1748285562143145120,-0.148
1748285562150832241,-0.148
1748285562158519362,-0.14100000000000001
1748285562166206483,-0.133
1748285562173893604,-0.128
1748285562181580725,-0.124
1748285562189267846,-0.11900000000000001
1748285562196954967,-0.114
1748285562204642088,-0.111
1748285562212329209,-0.109
1748285562220016330,-0.107
1748285562227703451,-0.10400000000000001
1748285562235390572,-0.10400000000000001
1748285562243077693,-0.10400000000000001
1748285562250764814,-0.107
1748285562258451935,-0.107
1748285562266139056,-0.107
1748285562273826177,-0.107
1748285562281513298,-0.109
1748285562289200419,-0.111
1748285562296887540,-0.109
1748285562304574661,-0.109
1748285562312261782,-0.107
1748285562319948903,-0.10400000000000001
1748285562327636024,-0.10400000000000001
1748285562335323145,-0.10200000000000001
1748285562343010266,-0.099
1748285562350697387,-0.099
1748285562358384508,-0.099
1748285562366071629,-0.097
1748285562373758750,-0.094
1748285562381445871,-0.092
1748285562389132992,-0.09
1748285562396820113,-0.08700000000000001
1748285562404507234,-0.08700000000000001
1748285562412194355,-0.085
1748285562419881476,-0.082
1748285562427568597,-0.077
1748285562435255718,-0.075
1748285562442942839,-0.075
1748285562450629960,-0.07200000000000001
1748285562458317081,-0.07
1748285562466004202,-0.068
1748285562473691323,-0.068
1748285562481378444,-0.065
1748285562489065565,-0.06
1748285562496752686,-0.063
1748285562504439807,-0.063
1748285562512126992,-0.06
1748285562519814113,-0.058
1748285562527501234,-0.058
1748285562535188355,-0.055
1748285562542875476,-0.053
1748285562550562597,-0.053
1748285562558249718,-0.053
1748285562565936839,-0.053
1748285562573623960,-0.051000000000000004
1748285562581311081,-0.051000000000000004
1748285562588998202,-0.048
1748285562596685323,-0.046
1748285562604372444,-0.046
1748285562612059565,-0.048
1748285562619746686,-0.046
1748285562627433807,-0.043000000000000003
1748285562635120928,-0.043000000000000003
1748285562642808049,-0.041
1748285562650495170,-0.038
1748285562658182291,-0.043000000000000003
1748285562665869412,-0.053
1748285562673556533,-0.058
1748285562681243654,-0.055
1748285562688930775,-0.048
1748285562696617896,-0.041
1748285562704305017,-0.029
1748285562711992138,-0.019
1748285562719679259,-0.002
1748285562727366380,0.0
1748285562735053501,-0.024
1748285562742740622,-0.043000000000000003
1748285562750427743,-0.041
1748285562758114864,-0.041
1748285562765801985,-0.043000000000000003
1748285562773489106,-0.036000000000000004
1748285562781176227,-0.034
1748285562788863348,-0.053
1748285562796550469,-0.092
1748285562804237590,-0.007
1748285562811924711,0.47600000000000003
1748285562819611832,1.18
1748285562827298953,1.2650000000000001
1748285562834986074,0.374
1748285562842673195,-0.557
1748285562850360316,-0.591
1748285562858047437,-0.26
1748285562865734558,-0.233
1748285562873421679,-0.201
1748285562881108800,-0.065
1748285562888795921,-0.06
1748285562896483042,-0.09
1748285562904170163,-0.048
1748285562911857284,-0.031
1748285562919544405,-0.041
1748285562927231526,-0.026000000000000002
1748285562934918647,-0.014
1748285562942605768,-0.014
1748285562950292889,-0.004
1748285562957980010,0.004
1748285562965667131,0.007
1748285562973354252,0.014
1748285562981041373,0.029
1748285562988728494,0.038
1748285562996415615,0.043000000000000003
1748285563004102736,0.053
1748285563011789857,0.065
1748285563019476978,0.075
1748285563027164099,0.092
1748285563034851220,0.107
1748285563042538341,0.11900000000000001
1748285563050225462,0.133
1748285563057912583,0.15
1748285563065599704,0.163
1748285563073286893,0.17500000000000002,62,1056
1748285563080974014,0.182
1748285563088661135,0.182
1748285563096348256,0.182
1748285563104035377,0.182
1748285563111722498,0.17500000000000002
1748285563119409619,0.16
1748285563127096740,0.131
1748285563134783861,0.08700000000000001
1748285563142470982,0.036000000000000004
1748285563150158103,-0.014
1748285563157845224,-0.063
1748285563165532345,-0.10400000000000001
1748285563173219466,-0.133
1748285563180906587,-0.148
1748285563188593708,-0.155
1748285563196280829,-0.158
1748285563203967950,-0.153
1748285563211655071,-0.15
1748285563219342192,-0.14300000000000002
1748285563227029313,-0.138
1748285563234716434,-0.136
1748285563242403555,-0.128
1748285563250090676,-0.11900000000000001
1748285563257777797,-0.114
1748285563265464918,-0.114
1748285563273152039,-0.109
1748285563280839160,-0.109
1748285563288526281,-0.109
1748285563296213402,-0.109
1748285563303900523,-0.109
1748285563311587644,-0.114
1748285563319274765,-0.116
1748285563326961886,-0.116
1748285563334649007,-0.114
1748285563342336128,-0.114
1748285563350023249,-0.114
1748285563357710370,-0.116
1748285563365397491,-0.114
1748285563373084612,-0.111
1748285563380771733,-0.111
1748285563388458854,-0.111
1748285563396145975,-0.109
1748285563403833096,-0.107
1748285563411520217,-0.107
1748285563419207338,-0.10400000000000001
1748285563426894459,-0.099
1748285563434581580,-0.099
1748285563442268701,-0.10200000000000001
1748285563449955822,-0.099
1748285563457642943,-0.094
1748285563465330064,-0.09
1748285563473017185,-0.08700000000000001
1748285563480704306,-0.085
1748285563488391427,-0.085
1748285563496078548,-0.085
1748285563503765669,-0.08
1748285563511452790,-0.075
1748285563519139911,-0.07200000000000001
1748285563526827032,-0.07200000000000001
1748285563534514153,-0.07
1748285563542201274,-0.07
1748285563549888395,-0.068
1748285563557575516,-0.068
1748285563565262637,-0.065
1748285563572949758,-0.063
1748285563580636879,-0.06
1748285563588324000,-0.06
1748285563596011121,-0.058
1748285563603698242,-0.058
1748285563611385363,-0.058
1748285563619072484,-0.055
1748285563626759605,-0.055
1748285563634446790,-0.053
1748285563642133702,-0.053
1748285563649820614,-0.051000000000000004
1748285563657507526,-0.051000000000000004
1748285563665194438,-0.058
1748285563672881350,-0.063
1748285563680568262,-0.06
1748285563688255174,-0.058
1748285563695942086,-0.053
1748285563703628998,-0.043000000000000003
1748285563711315910,-0.031
1748285563719002822,-0.014
1748285563726689734,-0.007
1748285563734376646,-0.029
1748285563742063558,-0.051000000000000004
1748285563749750470,-0.051000000000000004
1748285563757437382,-0.051000000000000004
1748285563765124294,-0.053
1748285563772811206,-0.048
1748285563780498118,-0.046
1748285563788185030,-0.055
1748285563795871942,-0.082
1748285563803558854,-0.038
1748285563811245766,0.34700000000000003
1748285563818932678,1.046
1748285563826619590,1.282
1748285563834306502,0.501
1748285563841993414,-0.523
1748285563849680326,-0.6930000000000001
1748285563857367238,-0.335
1748285563865054150,-0.25
1748285563872741062,-0.23600000000000002
1748285563880427974,-0.082
1748285563888114886,-0.043000000000000003
1748285563895801798,-0.082
1748285563903488710,-0.051000000000000004
1748285563911175622,-0.024
1748285563918862534,-0.034
1748285563926549446,-0.026000000000000002
1748285563934236358,-0.009000000000000001
1748285563941923270,-0.007
1748285563949610182,-0.002
1748285563957297094,0.007
1748285563964984006,0.014
1748285563972670918,0.019
1748285563980357830,0.031
1748285563988044742,0.041
1748285563995731654,0.051000000000000004
1748285564003418566,0.06
1748285564011105478,0.07
1748285564018792390,0.085
1748285564026479302,0.097
1748285564034166214,0.111
1748285564041853126,0.126
1748285564049540038,0.14300000000000002
1748285564057226950,0.16
1748285564064913862,0.177
1748285564072600774,0.189
1748285564080287686,0.199
1748285564087974598,0.20400000000000001
1748285564095661510,0.20400000000000001
1748285564103348422,0.201
1748285564111035334,0.194
1748285564118722246,0.177
1748285564126409158,0.145
1748285564134096070,0.099
1748285564141782982,0.046
1748285564149469894,-0.009000000000000001
1748285564157156806,-0.06
1748285564164843718,-0.10400000000000001
1748285564172530630,-0.133
1748285564180217542,-0.15
1748285564187904454,-0.16
1748285564195591430,-0.163,61,1055
1748285564203278342,-0.158
1748285564210965254,-0.15
1748285564218652166,-0.145
1748285564226339078,-0.14100000000000001
1748285564234025990,-0.131
1748285564241712902,-0.124
1748285564249399814,-0.11900000000000001
1748285564257086726,-0.114
1748285564264773638,-0.111
1748285564272460550,-0.107
1748285564280147462,-0.107
1748285564287834374,-0.10400000000000001
1748285564295521286,-0.107
1748285564303208198,-0.109
1748285564310895110,-0.109
1748285564318582022,-0.109
1748285564326268934,-0.111
1748285564333955846,-0.114
1748285564341642758,-0.114
1748285564349329670,-0.114
1748285564357016582,-0.114
1748285564364703494,-0.114
1748285564372390406,-0.111
1748285564380077318,-0.109
1748285564387764230,-0.109
1748285564395451142,-0.109
1748285564403138054,-0.107
1748285564410824966,-0.10400000000000001
1748285564418511878,-0.10400000000000001
1748285564426198790,-0.10400000000000001
1748285564433885702,-0.099
1748285564441572614,-0.097
1748285564449259526,-0.094
1748285564456946438,-0.094
1748285564464633350,-0.092
1748285564472320262,-0.09
1748285564480007174,-0.08700000000000001
1748285564487694086,-0.082
1748285564495380998,-0.08
1748285564503067910,-0.077
1748285564510754822,-0.075
1748285564518441734,-0.075
1748285564526128646,-0.07200000000000001
1748285564533815558,-0.07
1748285564541502470,-0.07
1748285564549189382,-0.07
1748285564556876294,-0.068
1748285564564563206,-0.065
1748285564572250118,-0.065
1748285564579937030,-0.065
1748285564587623942,-0.065
1748285564595310854,-0.063
1748285564602997766,-0.06
1748285564610684678,-0.058
1748285564618371590,-0.055
1748285564626058502,-0.055
1748285564633745414,-0.053
1748285564641432326,-0.053
1748285564649119238,-0.055
1748285564656806150,-0.053
1748285564664493062,-0.051000000000000004
1748285564672179974,-0.053
1748285564679866886,-0.053
1748285564687553798,-0.058
1748285564695240710,-0.065
1748285564702927622,-0.063
1748285564710614534,-0.058
1748285564718301446,-0.051000000000000004
1748285564725988358,-0.038
1748285564733675270,-0.026000000000000002
1748285564741362182,-0.014
1748285564749049094,-0.007
1748285564756736066,-0.026000000000000002
1748285564764423187,-0.048
1748285564772110308,-0.046
1748285564779797429,-0.046
1748285564787484550,-0.051000000000000004
1748285564795171671,-0.046
1748285564802858792,-0.043000000000000003
1748285564810545913,-0.055
1748285564818233034,-0.092
1748285564825920155,-0.082
1748285564833607276,0.257
1748285564841294397,0.97
1748285564848981518,1.355
1748285564856668639,0.766
1748285564864355760,-0.289
1748285564872042881,-0.664
1748285564879730002,-0.34500000000000003
1748285564887417123,-0.20400000000000001
1748285564895104244,-0.233
1748285564902791365,-0.116
1748285564910478486,-0.06
1748285564918165607,-0.099
1748285564925852728,-0.08
1748285564933539849,-0.046
1748285564941226970,-0.051000000000000004
1748285564948914091,-0.048
1748285564956601212,-0.031
1748285564964288333,-0.026000000000000002
1748285564971975454,-0.024
1748285564979662575,-0.014
1748285564987349696,-0.007
1748285564995036817,0.0
1748285565002723938,0.009000000000000001
1748285565010411059,0.019
1748285565018098180,0.029
1748285565025785301,0.038
1748285565033472422,0.048
1748285565041159543,0.063
1748285565048846664,0.075
1748285565056533785,0.09
1748285565064220906,0.107
1748285565071908027,0.124
1748285565079595148,0.14300000000000002
1748285565087282269,0.16
1748285565094969390,0.17500000000000002
1748285565102656511,0.184
1748285565110343632,0.189
1748285565118030753,0.192
1748285565125717874,0.189
1748285565133404995,0.182
1748285565141092116,0.167
1748285565148779237,0.14100000000000001
1748285565156466358,0.099
1748285565164153479,0.051000000000000004
1748285565171840600,0.0
1748285565179527721,-0.048
1748285565187214842,-0.092
1748285565194901963,-0.124
1748285565202589084,-0.14300000000000002
1748285565210276205,-0.155
1748285565217963326,-0.158
1748285565225650447,-0.155
1748285565233337568,-0.153
1748285565241024689,-0.148
1748285565248711810,-0.14300000000000002
1748285565256398931,-0.136
1748285565264086052,-0.131
1748285565271773173,-0.126
1748285565279460294,-0.124
1748285565287147415,-0.11900000000000001
1748285565294834536,-0.116
1748285565302521657,-0.114
1748285565310208778,-0.114
1748285565317895963,-0.114,61,1055
1748285565325583084,-0.114
1748285565333270205,-0.111
1748285565340957326,-0.114
1748285565348644447,-0.116
1748285565356331568,-0.116
1748285565364018689,-0.116
1748285565371705810,-0.116
1748285565379392931,-0.116
1748285565387080052,-0.116
1748285565394767173,-0.114
1748285565402454294,-0.111
1748285565410141415,-0.111
1748285565417828536,-0.111
1748285565425515657,-0.111
1748285565433202778,-0.109
1748285565440889899,-0.10400000000000001
1748285565448577020,-0.10200000000000001
1748285565456264141,-0.10200000000000001
1748285565463951262,-0.097
1748285565471638383,-0.094
1748285565479325504,-0.092
1748285565487012625,-0.092
1748285565494699746,-0.09
1748285565502386867,-0.08700000000000001
1748285565510073988,-0.085
1748285565517761109,-0.082
1748285565525448230,-0.08
1748285565533135351,-0.08
1748285565540822472,-0.077
1748285565548509593,-0.075
1748285565556196714,-0.07200000000000001
1748285565563883835,-0.07
1748285565571570956,-0.07
1748285565579258077,-0.068
1748285565586945198,-0.065
1748285565594632319,-0.065
1748285565602319440,-0.063
1748285565610006561,-0.06
1748285565617693682,-0.06
1748285565625380803,-0.06
1748285565633067924,-0.058
1748285565640755045,-0.058
1748285565648442166,-0.058
1748285565656129287,-0.055
1748285565663816408,-0.055
1748285565671503529,-0.053
1748285565679190650,-0.051000000000000004
1748285565686877771,-0.051000000000000004
1748285565694564892,-0.051000000000000004
1748285565702252013,-0.048
1748285565709939134,-0.046
1748285565717626255,-0.046
1748285565725313376,-0.046
1748285565733000497,-0.046
1748285565740687618,-0.043000000000000003
1748285565748374739,-0.043000000000000003
1748285565756061860,-0.043000000000000003
1748285565763748981,-0.043000000000000003
1748285565771436102,-0.041
1748285565779123223,-0.041
1748285565786810344,-0.041
1748285565794497465,-0.041
1748285565802184586,-0.038
1748285565809871707,-0.041
1748285565817558828,-0.046
1748285565825245949,-0.053
1748285565832933070,-0.055
1748285565840620191,-0.053
1748285565848307312,-0.048
1748285565855994433,-0.038
1748285565863681554,-0.026000000000000002
1748285565871368675,-0.017
1748285565879055860,-0.002,61,1000
1748285565886742633,-0.004
1748285565894429406,-0.029
1748285565902116179,-0.043000000000000003
1748285565909802952,-0.041
1748285565917489725,-0.043000000000000003
1748285565925176498,-0.046
1748285565932863271,-0.038
1748285565940550044,-0.038
1748285565948236817,-0.06
1748285565955923590,-0.10200000000000001
1748285565963610363,-0.009000000000000001
1748285565971297136,0.498
1748285565978983909,1.197
1748285565986670682,1.27
1748285565994357455,0.399
1748285566002044228,-0.52
1748285566009731001,-0.5660000000000001
1748285566017417774,-0.23800000000000002
1748285566025104547,-0.214
1748285566032791320,-0.197
1748285566040478093,-0.077
1748285566048164866,-0.075
1748285566055851639,-0.10200000000000001
1748285566063538412,-0.065
1748285566071225185,-0.046
1748285566078911958,-0.053
1748285566086598731,-0.043000000000000003
1748285566094285504,-0.031
1748285566101972277,-0.029
1748285566109659050,-0.019
1748285566117345823,-0.009000000000000001
1748285566125032596,-0.002
1748285566132719369,0.004
1748285566140406142,0.014
1748285566148092915,0.021
1748285566155779688,0.034
1748285566163466461,0.043000000000000003
1748285566171153234,0.055
1748285566178840007,0.068
1748285566186526780,0.082
1748285566194213553,0.094
1748285566201900326,0.111
1748285566209587099,0.128
1748285566217273872,0.14300000000000002
1748285566224960645,0.158
1748285566232647418,0.17200000000000001
1748285566240334191,0.18
1748285566248020964,0.184
1748285566255707737,0.184
1748285566263394510,0.184
1748285566271081283,0.18
1748285566278768056,0.165
1748285566286454829,0.138
1748285566294141602,0.10200000000000001
1748285566301828375,0.055
1748285566309515148,0.004
1748285566317201921,-0.041
1748285566324888694,-0.08
1748285566332575467,-0.111
1748285566340262240,-0.133
1748285566347949013,-0.14300000000000002
1748285566355635786,-0.148
1748285566363322559,-0.148
1748285566371009332,-0.14300000000000002
1748285566378696105,-0.138
1748285566386382878,-0.133
1748285566394069651,-0.128
1748285566401756424,-0.121
1748285566409443197,-0.11900000000000001
1748285566417129970,-0.114
1748285566424816743,-0.111
1748285566432503516,-0.109
1748285566440190330,-0.107
1748285566447877382,-0.107
1748285566455564434,-0.107
1748285566463251486,-0.107
1748285566470938538,-0.107
1748285566478625590,-0.109
1748285566486312642,-0.111
1748285566493999694,-0.111
1748285566501686746,-0.111
1748285566509373798,-0.114
1748285566517060850,-0.111
1748285566524747902,-0.111
1748285566532434954,-0.109
1748285566540122006,-0.109
1748285566547809058,-0.109
1748285566555496110,-0.107
1748285566563183162,-0.10400000000000001
1748285566570870214,-0.10400000000000001
1748285566578557266,-0.10200000000000001
1748285566586244318,-0.099
1748285566593931370,-0.099
1748285566601618422,-0.097
1748285566609305474,-0.097
1748285566616992526,-0.094
1748285566624679578,-0.09
1748285566632366630,-0.08700000000000001
1748285566640053682,-0.08700000000000001
1748285566647740734,-0.085
1748285566655427786,-0.082
1748285566663114838,-0.08
1748285566670801890,-0.08
1748285566678488942,-0.08
1748285566686175994,-0.077
1748285566693863046,-0.077
1748285566701550098,-0.075
1748285566709237150,-0.07200000000000001
1748285566716924202,-0.07200000000000001
1748285566724611254,-0.07
1748285566732298306,-0.07
1748285566739985358,-0.07
1748285566747672410,-0.07
1748285566755359462,-0.068
1748285566763046514,-0.068
1748285566770733566,-0.068
1748285566778420618,-0.065
1748285566786107670,-0.068
1748285566793794722,-0.068
1748285566801481774,-0.065
1748285566809168826,-0.068
1748285566816855878,-0.07
1748285566824542930,-0.07
1748285566832229982,-0.068
1748285566839917034,-0.065
1748285566847604086,-0.068
1748285566855291138,-0.068
1748285566862978190,-0.068
1748285566870665242,-0.068
1748285566878352294,-0.07
1748285566886039346,-0.07
1748285566893726398,-0.07
1748285566901413450,-0.075
1748285566909100502,-0.085
1748285566916787554,-0.09
1748285566924474606,-0.085
1748285566932161658,-0.082
1748285566939848710,-0.07200000000000001
1748285566947535762,-0.058
1748285566955222814,-0.051000000000000004
1748285566962909866,-0.041
1748285566970596918,-0.048
1748285566978283970,-0.077
1748285566985971022,-0.08700000000000001
1748285566993658074,-0.085
1748285567001345140,-0.09,60,1024
1748285567009032261,-0.09
1748285567016719382,-0.085
1748285567024406503,-0.092
1748285567032093624,-0.11900000000000001
1748285567039780745,-0.153
1748285567047467866,0.004
1748285567055154987,0.598
1748285567062842108,1.238
1748285567070529229,1.09
1748285567078216350,0.092
1748285567085903471,-0.686
1748285567093590592,-0.5640000000000001
1748285567101277713,-0.274
1748285567108964834,-0.291
1748285567116651955,-0.233
1748285567124339076,-0.121
1748285567132026197,-0.14100000000000001
1748285567139713318,-0.158
1748285567147400439,-0.116
1748285567155087560,-0.107
1748285567162774681,-0.114
1748285567170461802,-0.099
1748285567178148923,-0.09
1748285567185836044,-0.08700000000000001
1748285567193523165,-0.08
1748285567201210286,-0.07200000000000001
1748285567208897407,-0.068
1748285567216584528,-0.06
1748285567224271649,-0.051000000000000004
1748285567231958770,-0.041
1748285567239645891,-0.031
1748285567247333012,-0.021
1748285567255020133,-0.012
1748285567262707254,0.0
1748285567270394375,0.014
1748285567278081496,0.031
1748285567285768617,0.046
1748285567293455738,0.063
1748285567301142859,0.08
1748285567308829980,0.099
1748285567316517101,0.111
1748285567324204222,0.121
1748285567331891343,0.124
1748285567339578464,0.124
1748285567347265585,0.11900000000000001
1748285567354952706,0.109
1748285567362639827,0.09
1748285567370326948,0.053
1748285567378014069,0.007
1748285567385701190,-0.046
1748285567393388311,-0.097
1748285567401075432,-0.14300000000000002
1748285567408762553,-0.184
1748285567416449674,-0.211
1748285567424136795,-0.228
1748285567431823916,-0.23800000000000002
1748285567439511037,-0.23800000000000002
1748285567447198158,-0.233
1748285567454885279,-0.228
1748285567462572400,-0.223
1748285567470259521,-0.216
1748285567477946642,-0.209
1748285567485633763,-0.201
1748285567493320884,-0.194
1748285567501008005,-0.192
1748285567508695126,-0.189
1748285567516382247,-0.184
1748285567524069368,-0.182
1748285567531756489,-0.182
1748285567539443610,-0.182
1748285567547130731,-0.18
1748285567554817852,-0.177
1748285567562505037,-0.182
1748285567570192019,-0.184
1748285567577879001,-0.18
1748285567585565983,-0.18
1748285567593252965,-0.18
1748285567600939947,-0.177
1748285567608626929,-0.17500000000000002
1748285567616313911,-0.17200000000000001
1748285567624000893,-0.17200000000000001
1748285567631687875,-0.167
1748285567639374857,-0.165
1748285567647061839,-0.163
1748285567654748821,-0.158
1748285567662435803,-0.155
1748285567670122785,-0.155
1748285567677809767,-0.153
1748285567685496749,-0.145
1748285567693183731,-0.14100000000000001
1748285567700870713,-0.138
1748285567708557695,-0.136
1748285567716244677,-0.133
1748285567723931659,-0.128
1748285567731618641,-0.126
1748285567739305623,-0.124
1748285567746992605,-0.11900000000000001
1748285567754679587,-0.114
1748285567762366569,-0.114
1748285567770053551,-0.111
1748285567777740533,-0.109
1748285567785427515,-0.107
1748285567793114497,-0.107
1748285567800801479,-0.10200000000000001
1748285567808488461,-0.094
1748285567816175443,-0.092
1748285567823862425,-0.092
1748285567831549407,-0.09
1748285567839236389,-0.08700000000000001
1748285567846923371,-0.085
1748285567854610353,-0.082
1748285567862297335,-0.077
1748285567869984317,-0.075
1748285567877671299,-0.07200000000000001
1748285567885358281,-0.07200000000000001
1748285567893045263,-0.07
1748285567900732245,-0.075
1748285567908419227,-0.08
1748285567916106209,-0.077
1748285567923793191,-0.075
1748285567931480173,-0.068
1748285567939167155,-0.053
1748285567946854137,-0.038
1748285567954541119,-0.026000000000000002
1748285567962228101,-0.017
1748285567969915083,-0.029
1748285567977602065,-0.051000000000000004
1748285567985289047,-0.055
1748285567992976029,-0.053
1748285568000663011,-0.055
1748285568008349993,-0.053
1748285568016036975,-0.048
1748285568023723957,-0.048
1748285568031410939,-0.075
1748285568039097921,-0.075
1748285568046784903,0.20600000000000002
1748285568054471885,0.895
1748285568062158867,1.355
1748285568069845849,0.837
1748285568077532831,-0.25
1748285568085219813,-0.712
1748285568092906795,-0.401
1748285568100593777,-0.216
1748285568108280759,-0.245
1748285568115967741,-0.121
1748285568123654764,-0.036000000000000004,60,1135
1748285568131341607,-0.075
1748285568139028450,-0.065
1748285568146715293,-0.026000000000000002
1748285568154402136,-0.031
1748285568162088979,-0.029
1748285568169775822,-0.007
1748285568177462665,0.002
1748285568185149508,0.004
1748285568192836351,0.017
1748285568200523194,0.024
1748285568208210037,0.029
1748285568215896880,0.041
1748285568223583723,0.051000000000000004
1748285568231270566,0.06
1748285568238957409,0.07200000000000001
1748285568246644252,0.08700000000000001
1748285568254331095,0.10200000000000001
1748285568262017938,0.116
1748285568269704781,0.128
1748285568277391624,0.148
1748285568285078467,0.17
1748285568292765310,0.192
1748285568300452153,0.209
1748285568308138996,0.226
1748285568315825839,0.24
1748285568323512682,0.25
1748285568331199525,0.25
1748285568338886368,0.248
1748285568346573211,0.243
1748285568354260054,0.226
1748285568361946897,0.189
1748285568369633740,0.14300000000000002
1748285568377320583,0.092
1748285568385007426,0.026000000000000002
1748285568392694269,-0.038
1748285568400381112,-0.085
1748285568408067955,-0.116
1748285568415754798,-0.14300000000000002
1748285568423441641,-0.158
1748285568431128484,-0.155
1748285568438815327,-0.148
1748285568446502170,-0.14300000000000002
1748285568454189013,-0.138
1748285568461875856,-0.128
1748285568469562699,-0.11900000000000001
1748285568477249542,-0.111
1748285568484936385,-0.10400000000000001
1748285568492623228,-0.099
1748285568500310071,-0.09
1748285568507996914,-0.08700000000000001
1748285568515683757,-0.085
1748285568523370600,-0.08
1748285568531057443,-0.08
1748285568538744286,-0.082
1748285568546431129,-0.085
1748285568554117972,-0.085
1748285568561804815,-0.082
1748285568569491658,-0.082
1748285568577178501,-0.085
1748285568584865344,-0.08700000000000001
1748285568592552187,-0.085
1748285568600239030,-0.085
1748285568607925873,-0.082
1748285568615612716,-0.077
1748285568623299559,-0.08
1748285568630986402,-0.075
1748285568638673245,-0.07
1748285568646360088,-0.07
1748285568654046931,-0.07
1748285568661733774,-0.065
1748285568669420617,-0.063
1748285568677107460,-0.06
1748285568684794313,-0.058
1748285568692481434,-0.058
1748285568700168555,-0.055
1748285568707855676,-0.051000000000000004
1748285568715542797,-0.048
1748285568723229918,-0.048
1748285568730917039,-0.048
1748285568738604160,-0.043000000000000003
1748285568746291281,-0.041
1748285568753978402,-0.041
1748285568761665523,-0.038
1748285568769352644,-0.036000000000000004
1748285568777039765,-0.034
1748285568784726886,-0.034
1748285568792414007,-0.034
1748285568800101128,-0.031
1748285568807788249,-0.029
1748285568815475370,-0.029
1748285568823162491,-0.026000000000000002
1748285568830849612,-0.026000000000000002
1748285568838536733,-0.024
1748285568846223854,-0.021
1748285568853910975,-0.024
1748285568861598096,-0.029
1748285568869285217,-0.029
1748285568876972338,-0.029
1748285568884659459,-0.026000000000000002
1748285568892346580,-0.019
1748285568900033701,-0.004
1748285568907720822,0.007
1748285568915407943,0.021
1748285568923095064,0.021
1748285568930782185,-0.004
1748285568938469306,-0.019
1748285568946156427,-0.017
1748285568953843548,-0.019
1748285568961530669,-0.019
1748285568969217790,-0.014
1748285568976904911,-0.014
1748285568984592032,-0.026000000000000002
1748285568992279153,-0.048
1748285568999966274,0.043000000000000003
1748285569007653395,0.52
1748285569015340516,1.202
1748285569023027637,1.245
1748285569030714758,0.306
1748285569038401879,-0.622
1748285569046089000,-0.613
1748285569053776121,-0.262
1748285569061463242,-0.233
1748285569069150363,-0.18
1748285569076837484,-0.024
1748285569084524605,-0.019
1748285569092211726,-0.048
1748285569099898847,-0.007
1748285569107585968,0.007
1748285569115273089,-0.002
1748285569122960210,0.012
1748285569130647331,0.026000000000000002
1748285569138334452,0.026000000000000002
1748285569146021573,0.031
1748285569153708694,0.041
1748285569161395815,0.048
1748285569169082936,0.053
1748285569176770057,0.063
1748285569184457178,0.07200000000000001
1748285569192144299,0.082
1748285569199831420,0.092
1748285569207518541,0.10400000000000001
1748285569215205662,0.11900000000000001
1748285569222892783,0.131
1748285569230579904,0.148
1748285569238267025,0.17
1748285569245954210,0.192,60,1082
1748285569253640983,0.211
1748285569261327756,0.233
1748285569269014529,0.25
1748285569276701302,0.262
1748285569284388075,0.267
1748285569292074848,0.27
1748285569299761621,0.267
1748285569307448394,0.257
1748285569315135167,0.231
1748285569322821940,0.184
1748285569330508713,0.124
1748285569338195486,0.06
1748285569345882259,0.0
1748285569353569032,-0.055
1748285569361255805,-0.10200000000000001
1748285569368942578,-0.133
1748285569376629351,-0.153
1748285569384316124,-0.16
1748285569392002897,-0.16
1748285569399689670,-0.155
1748285569407376443,-0.15
1748285569415063216,-0.14100000000000001
1748285569422749989,-0.131
1748285569430436762,-0.121
1748285569438123535,-0.114
1748285569445810308,-0.109
1748285569453497081,-0.10200000000000001
1748285569461183854,-0.097
1748285569468870627,-0.094
1748285569476557400,-0.092
1748285569484244173,-0.09
1748285569491930946,-0.09
1748285569499617719,-0.09
1748285569507304492,-0.092
1748285569514991265,-0.094
1748285569522678038,-0.097
1748285569530364811,-0.099
1748285569538051584,-0.10200000000000001
1748285569545738357,-0.10200000000000001
1748285569553425130,-0.10200000000000001
1748285569561111903,-0.099
1748285569568798676,-0.099
1748285569576485449,-0.097
1748285569584172222,-0.097
1748285569591858995,-0.094
1748285569599545768,-0.092
1748285569607232541,-0.092
1748285569614919314,-0.09
1748285569622606087,-0.08700000000000001
1748285569630292860,-0.085
1748285569637979633,-0.082
1748285569645666406,-0.08
1748285569653353179,-0.077
1748285569661039952,-0.075
1748285569668726725,-0.07200000000000001
1748285569676413498,-0.07200000000000001
1748285569684100271,-0.07
1748285569691787044,-0.068
1748285569699473817,-0.065
1748285569707160590,-0.063
1748285569714847363,-0.063
1748285569722534136,-0.06
1748285569730220909,-0.06
1748285569737907682,-0.06
1748285569745594455,-0.058
1748285569753281228,-0.055
1748285569760968001,-0.055
1748285569768654774,-0.055
1748285569776341547,-0.053
1748285569784028320,-0.051000000000000004
1748285569791715093,-0.048
1748285569799401866,-0.051000000000000004
1748285569807088680,-0.048,60
1748285569814775732,-0.046
1748285569822462784,-0.046
1748285569830149836,-0.043000000000000003
1748285569837836888,-0.041
1748285569845523940,-0.041
1748285569853210992,-0.041
1748285569860898044,-0.041
1748285569868585096,-0.038
1748285569876272148,-0.041
1748285569883959200,-0.041
1748285569891646252,-0.038
1748285569899333304,-0.038
1748285569907020356,-0.038
1748285569914707408,-0.036000000000000004
1748285569922394460,-0.036000000000000004
1748285569930081512,-0.034
1748285569937768564,-0.034
1748285569945455616,-0.034
1748285569953142668,-0.036000000000000004
1748285569960829720,-0.036000000000000004
1748285569968516772,-0.034
1748285569976203824,-0.034
1748285569983890876,-0.041
1748285569991577928,-0.046
1748285569999264980,-0.048
1748285570006952032,-0.046
1748285570014639084,-0.038
1748285570022326136,-0.024
1748285570030013188,-0.014
1748285570037700240,-0.004
1748285570045387292,0.007
1748285570053074344,-0.004
1748285570060761396,-0.031
1748285570068448448,-0.036000000000000004
1748285570076135500,-0.034
1748285570083822552,-0.036000000000000004
1748285570091509604,-0.034
1748285570099196656,-0.029
1748285570106883708,-0.036000000000000004
1748285570114570760,-0.068
1748285570122257812,-0.10200000000000001
1748285570129944864,0.08700000000000001
1748285570137631916,0.717
1748285570145318968,1.328
1748285570153006020,1.1360000000000001
1748285570160693072,0.14100000000000001
1748285570168380124,-0.593
1748285570176067176,-0.447
1748285570183754228,-0.184
1748285570191441280,-0.218
1748285570199128332,-0.165
1748285570206815384,-0.063
1748285570214502436,-0.08700000000000001
1748285570222189488,-0.097
1748285570229876540,-0.055
1748285570237563592,-0.048
1748285570245250644,-0.053
1748285570252937696,-0.041
1748285570260624748,-0.031
1748285570268311800,-0.026000000000000002
1748285570275998852,-0.019
1748285570283685904,-0.012
1748285570291372956,-0.004
1748285570299060008,0.004
1748285570306747060,0.014
1748285570314434112,0.021
1748285570322121164,0.031
1748285570329808216,0.041
1748285570337495268,0.053
1748285570345182320,0.068
1748285570352869372,0.08
1748285570360556424,0.094
1748285570368243490,0.114
1748285570375930611,0.133
1748285570383617732,0.153
1748285570391304853,0.17500000000000002
1748285570398991974,0.189
1748285570406679095,0.199
1748285570414366216,0.209
1748285570422053337,0.211
1748285570429740458,0.209
1748285570437427579,0.201
1748285570445114700,0.184
1748285570452801821,0.153
1748285570460488942,0.10400000000000001
1748285570468176063,0.051000000000000004
1748285570475863184,-0.004
1748285570483550305,-0.053
1748285570491237426,-0.094
1748285570498924547,-0.124
1748285570506611668,-0.14300000000000002
1748285570514298789,-0.153
1748285570521985910,-0.153
1748285570529673031,-0.15
1748285570537360152,-0.148
1748285570545047273,-0.145
1748285570552734394,-0.14100000000000001
1748285570560421515,-0.136
1748285570568108636,-0.131
1748285570575795757,-0.126
1748285570583482878,-0.121
1748285570591169999,-0.11900000000000001
1748285570598857120,-0.116
1748285570606544241,-0.114
1748285570614231362,-0.114
1748285570621918483,-0.111
1748285570629605604,-0.109
1748285570637292725,-0.109
1748285570644979846,-0.109
1748285570652666967,-0.109
1748285570660354088,-0.109
1748285570668041209,-0.109
1748285570675728330,-0.109
1748285570683415451,-0.109
1748285570691102572,-0.109
1748285570698789693,-0.109
1748285570706476814,-0.107
1748285570714163935,-0.107
1748285570721851056,-0.107
1748285570729538177,-0.10200000000000001
1748285570737225298,-0.099
1748285570744912419,-0.099
1748285570752599540,-0.097
1748285570760286661,-0.094
1748285570767973782,-0.092
1748285570775660903,-0.09
1748285570783348024,-0.09
1748285570791035145,-0.08700000000000001
1748285570798722266,-0.085
1748285570806409387,-0.082
1748285570814096508,-0.08
1748285570821783629,-0.077
1748285570829470750,-0.075
1748285570837157871,-0.07200000000000001
1748285570844844992,-0.07
1748285570852532113,-0.068
1748285570860219234,-0.068
1748285570867906355,-0.065
1748285570875593476,-0.065
1748285570883280597,-0.063
1748285570890967718,-0.063
1748285570898654839,-0.06
1748285570906341960,-0.058
1748285570914029081,-0.058
1748285570921716202,-0.058
1748285570929403387,-0.055,59,997
1748285570937090508,-0.055
1748285570944777629,-0.053
1748285570952464750,-0.051000000000000004
1748285570960151871,-0.053
1748285570967838992,-0.053
1748285570975526113,-0.051000000000000004
1748285570983213234,-0.048
1748285570990900355,-0.048
1748285570998587476,-0.048
1748285571006274597,-0.051000000000000004
1748285571013961718,-0.048
1748285571021648839,-0.043000000000000003
1748285571029335960,-0.043000000000000003
1748285571037023081,-0.046
1748285571044710202,-0.046
1748285571052397323,-0.043000000000000003
1748285571060084444,-0.043000000000000003
1748285571067771565,-0.043000000000000003
1748285571075458686,-0.048
1748285571083145807,-0.055
1748285571090832928,-0.055
1748285571098520049,-0.048
1748285571106207170,-0.041
1748285571113894291,-0.029
1748285571121581412,-0.019
1748285571129268533,-0.004
1748285571136955654,0.0
1748285571144642775,-0.019
1748285571152329896,-0.038
1748285571160017017,-0.041
1748285571167704138,-0.041
1748285571175391259,-0.046
1748285571183078380,-0.041
1748285571190765501,-0.038
1748285571198452622,-0.048
1748285571206139743,-0.085
1748285571213826864,-0.09
1748285571221513985,0.214
1748285571229201106,0.912
1748285571236888227,1.379
1748285571244575348,0.914
1748285571252262469,-0.148
1748285571259949590,-0.654
1748285571267636711,-0.364
1748285571275323832,-0.18
1748285571283010953,-0.228
1748285571290698074,-0.133
1748285571298385195,-0.063
1748285571306072316,-0.10200000000000001
1748285571313759437,-0.09
1748285571321446558,-0.051000000000000004
1748285571329133679,-0.053
1748285571336820800,-0.051000000000000004
1748285571344507921,-0.036000000000000004
1748285571352195042,-0.031
1748285571359882163,-0.026000000000000002
1748285571367569284,-0.017
1748285571375256405,-0.012
1748285571382943526,-0.004
1748285571390630647,0.007
1748285571398317768,0.017
1748285571406004889,0.024
1748285571413692010,0.034
1748285571421379131,0.046
1748285571429066252,0.058
1748285571436753373,0.07
1748285571444440494,0.085
1748285571452127615,0.10200000000000001
1748285571459814736,0.121
1748285571467501857,0.14100000000000001
1748285571475188978,0.16
1748285571482876099,0.18
1748285571490563284,0.194
1748285571498249987,0.20600000000000002
1748285571505936690,0.216
1748285571513623393,0.216
1748285571521310096,0.211
1748285571528996799,0.197
1748285571536683502,0.17
1748285571544370205,0.128
1748285571552056908,0.075
1748285571559743611,0.017
1748285571567430314,-0.036000000000000004
1748285571575117017,-0.085
1748285571582803720,-0.121
1748285571590490423,-0.148
1748285571598177126,-0.163
1748285571605863829,-0.17200000000000001
1748285571613550532,-0.17200000000000001
1748285571621237235,-0.17
1748285571628923938,-0.163
1748285571636610641,-0.158
1748285571644297344,-0.155
1748285571651984047,-0.148
1748285571659670750,-0.138
1748285571667357453,-0.133
1748285571675044156,-0.131
1748285571682730859,-0.128
1748285571690417562,-0.124
1748285571698104265,-0.11900000000000001
1748285571705790968,-0.11900000000000001
1748285571713477671,-0.116
1748285571721164374,-0.114
1748285571728851077,-0.114
1748285571736537780,-0.116
1748285571744224483,-0.114
1748285571751911186,-0.114
1748285571759597889,-0.116
1748285571767284592,-0.116
1748285571774971295,-0.111
1748285571782657998,-0.111
1748285571790344701,-0.111
1748285571798031404,-0.111
1748285571805718107,-0.109
1748285571813404810,-0.10400000000000001
1748285571821091513,-0.10400000000000001
1748285571828778216,-0.10400000000000001
1748285571836464919,-0.10200000000000001
1748285571844151622,-0.097
1748285571851838325,-0.097
1748285571859525028,-0.094
1748285571867211731,-0.09
1748285571874898434,-0.08700000000000001
1748285571882585137,-0.085
1748285571890271840,-0.085
1748285571897958543,-0.082
1748285571905645246,-0.08
1748285571913331949,-0.075
1748285571921018652,-0.075
1748285571928705355,-0.07200000000000001
1748285571936392058,-0.07
1748285571944078761,-0.068
1748285571951765464,-0.065
1748285571959452167,-0.063
1748285571967138870,-0.065
1748285571974825573,-0.065
1748285571982512276,-0.063
1748285571990198979,-0.063
1748285571997885682,-0.06
1748285572005572385,-0.058
1748285572013259088,-0.055
1748285572020945791,-0.055
1748285572028632494,-0.055
1748285572036319197,-0.053
1748285572044005900,-0.051000000000000004
1748285572051692663,-0.048,59,957
1748285572059379784,-0.046
1748285572067066905,-0.048
1748285572074754026,-0.046
1748285572082441147,-0.043000000000000003
1748285572090128268,-0.043000000000000003
1748285572097815389,-0.046
1748285572105502510,-0.043000000000000003
1748285572113189631,-0.043000000000000003
1748285572120876752,-0.046
1748285572128563873,-0.048
1748285572136250994,-0.046
1748285572143938115,-0.048
1748285572151625236,-0.051000000000000004
1748285572159312357,-0.048
1748285572166999478,-0.043000000000000003
1748285572174686599,-0.034
1748285572182373720,-0.024
1748285572190060841,-0.014
1748285572197747962,0.0
1748285572205435083,-0.009000000000000001
1748285572213122204,-0.038
1748285572220809325,-0.043000000000000003
1748285572228496446,-0.036000000000000004
1748285572236183567,-0.041
1748285572243870688,-0.041
1748285572251557809,-0.036000000000000004
1748285572259244930,-0.041
1748285572266932051,-0.063
1748285572274619172,-0.085
1748285572282306293,0.068
1748285572289993414,0.649
1748285572297680535,1.301
1748285572305367656,1.167
1748285572313054777,0.158
1748285572320741898,-0.642
1748285572328429019,-0.53
1748285572336116140,-0.23600000000000002
1748285572343803261,-0.25
1748285572351490382,-0.189
1748285572359177503,-0.06
1748285572366864624,-0.075
1748285572374551745,-0.09
1748285572382238866,-0.046
1748285572389925987,-0.038
1748285572397613108,-0.046
1748285572405300229,-0.026000000000000002
1748285572412987350,-0.014
1748285572420674471,-0.012
1748285572428361592,-0.007
1748285572436048713,0.002
1748285572443735834,0.012
1748285572451422955,0.019
1748285572459110076,0.024
1748285572466797197,0.031
1748285572474484318,0.048
1748285572482171439,0.058
1748285572489858560,0.068
1748285572497545681,0.085
1748285572505232802,0.099
1748285572512919923,0.111
1748285572520607044,0.133
1748285572528294165,0.158
1748285572535981286,0.17500000000000002
1748285572543668407,0.197
1748285572551355528,0.218
1748285572559042649,0.231
1748285572566729770,0.23600000000000002
1748285572574416891,0.243
1748285572582104012,0.24
1748285572589791133,0.228
1748285572597478254,0.20600000000000002
1748285572605165375,0.165
1748285572612852560,0.10400000000000001
1748285572620539681,0.043000000000000003
1748285572628226802,-0.014
1748285572635913923,-0.07200000000000001
1748285572643601044,-0.124
1748285572651288165,-0.16
1748285572658975286,-0.18
1748285572666662407,-0.189
1748285572674349528,-0.192
1748285572682036649,-0.189
1748285572689723770,-0.182
1748285572697410891,-0.17200000000000001
1748285572705098012,-0.165
1748285572712785133,-0.155
1748285572720472254,-0.148
1748285572728159375,-0.14100000000000001
1748285572735846496,-0.131
1748285572743533617,-0.124
1748285572751220738,-0.11900000000000001
1748285572758907859,-0.116
1748285572766594980,-0.116
1748285572774282101,-0.114
1748285572781969222,-0.116
1748285572789656343,-0.116
1748285572797343464,-0.116
1748285572805030585,-0.116
1748285572812717706,-0.116
1748285572820404827,-0.11900000000000001
1748285572828091948,-0.11900000000000001
1748285572835779069,-0.11900000000000001
1748285572843466190,-0.11900000000000001
1748285572851153311,-0.11900000000000001
1748285572858840432,-0.11900000000000001
1748285572866527553,-0.116
1748285572874214674,-0.114
1748285572881901795,-0.111
1748285572889588916,-0.109
1748285572897276037,-0.107
1748285572904963158,-0.10400000000000001
1748285572912650279,-0.10400000000000001
1748285572920337400,-0.10200000000000001
1748285572928024521,-0.097
1748285572935711642,-0.094
1748285572943398763,-0.092
1748285572951085884,-0.09
1748285572958773005,-0.08700000000000001
1748285572966460126,-0.082
1748285572974147247,-0.082
1748285572981834368,-0.08
1748285572989521489,-0.077
1748285572997208610,-0.077
1748285573004895731,-0.075
1748285573012582852,-0.07200000000000001
1748285573020269973,-0.07
1748285573027957094,-0.07
1748285573035644215,-0.068
1748285573043331336,-0.068
1748285573051018457,-0.068
1748285573058705578,-0.063
1748285573066392699,-0.06
1748285573074079820,-0.063
1748285573081766941,-0.068
1748285573089454062,-0.07
1748285573097141183,-0.065
1748285573104828304,-0.065
1748285573112515425,-0.055
1748285573120202546,-0.041
1748285573127889667,-0.031
1748285573135576788,-0.019
1748285573143263909,-0.014
1748285573150951030,-0.036000000000000004
1748285573158638151,-0.055
1748285573166325272,-0.053
1748285573174012461,-0.051000000000000004,59,1128
1748285573181699164,-0.053
1748285573189385867,-0.048
1748285573197072570,-0.043000000000000003
1748285573204759273,-0.055
1748285573212445976,-0.08700000000000001
1748285573220132679,-0.053
1748285573227819382,0.321
1748285573235506085,1.026
1748285573243192788,1.33
1748285573250879491,0.622
1748285573258566194,-0.445
1748285573266252897,-0.715
1748285573273939600,-0.355
1748285573281626303,-0.24
1748285573289313006,-0.245
1748285573296999709,-0.099
1748285573304686412,-0.046
1748285573312373115,-0.09
1748285573320059818,-0.063
1748285573327746521,-0.029
1748285573335433224,-0.036000000000000004
1748285573343119927,-0.034
1748285573350806630,-0.017
1748285573358493333,-0.012
1748285573366180036,-0.009000000000000001
1748285573373866739,0.0
1748285573381553442,0.007
1748285573389240145,0.014
1748285573396926848,0.021
1748285573404613551,0.031
1748285573412300254,0.041
1748285573419986957,0.051000000000000004
1748285573427673660,0.063
1748285573435360363,0.075
1748285573443047066,0.092
1748285573450733769,0.107
1748285573458420472,0.126
1748285573466107175,0.15
1748285573473793878,0.17500000000000002
1748285573481480581,0.199
1748285573489167284,0.223
1748285573496853987,0.24
1748285573504540690,0.248
1748285573512227393,0.253
1748285573519914096,0.25
1748285573527600799,0.243
1748285573535287502,0.221
1748285573542974205,0.18
1748285573550660908,0.121
1748285573558347611,0.055
1748285573566034314,-0.009000000000000001
1748285573573721017,-0.07
1748285573581407720,-0.121
1748285573589094423,-0.155
1748285573596781126,-0.18
1748285573604467829,-0.189
1748285573612154532,-0.192
1748285573619841235,-0.189
1748285573627527938,-0.187
1748285573635214641,-0.177
1748285573642901344,-0.17
1748285573650588047,-0.16
1748285573658274750,-0.15
1748285573665961453,-0.14100000000000001
1748285573673648156,-0.133
1748285573681334859,-0.131
1748285573689021562,-0.126
1748285573696708265,-0.121
1748285573704394968,-0.11900000000000001
1748285573712081671,-0.116
1748285573719768374,-0.116
1748285573727455077,-0.116
1748285573735141840,-0.116
1748285573742828961,-0.11900000000000001
1748285573750516082,-0.11900000000000001
1748285573758203203,-0.11900000000000001
1748285573765890324,-0.11900000000000001
1748285573773577445,-0.11900000000000001
1748285573781264566,-0.11900000000000001
1748285573788951687,-0.11900000000000001
1748285573796638808,-0.116
1748285573804325929,-0.114
1748285573812013050,-0.111
1748285573819700171,-0.109
1748285573827387292,-0.107
1748285573835074413,-0.10400000000000001
1748285573842761534,-0.10200000000000001
1748285573850448655,-0.10200000000000001
1748285573858135776,-0.097
1748285573865822897,-0.094
1748285573873510018,-0.094
1748285573881197139,-0.092
1748285573888884260,-0.09
1748285573896571381,-0.09
1748285573904258502,-0.08700000000000001
1748285573911945623,-0.082
1748285573919632744,-0.08
1748285573927319865,-0.08
1748285573935006986,-0.077
1748285573942694107,-0.077
1748285573950381228,-0.075
1748285573958068349,-0.07200000000000001
1748285573965755470,-0.07
1748285573973442591,-0.07
1748285573981129712,-0.068
1748285573988816833,-0.065
1748285573996503954,-0.065
1748285574004191075,-0.063
1748285574011878196,-0.063
1748285574019565317,-0.06
1748285574027252438,-0.06
1748285574034939559,-0.06
1748285574042626680,-0.058
1748285574050313801,-0.055
1748285574058000922,-0.055
1748285574065688043,-0.053
1748285574073375164,-0.053
1748285574081062285,-0.055
1748285574088749406,-0.051000000000000004
1748285574096436527,-0.048
1748285574104123648,-0.051000000000000004
1748285574111810769,-0.048
1748285574119497890,-0.046
1748285574127185011,-0.051000000000000004
1748285574134872132,-0.058
1748285574142559253,-0.06
1748285574150246374,-0.063
1748285574157933495,-0.058
1748285574165620616,-0.046
1748285574173307737,-0.034
1748285574180994858,-0.024
1748285574188681979,-0.012
1748285574196369100,-0.007
1748285574204056221,-0.029
1748285574211743342,-0.048
1748285574219430463,-0.046
1748285574227117584,-0.046
1748285574234804705,-0.048
1748285574242491826,-0.046
1748285574250178947,-0.041
1748285574257866068,-0.055
1748285574265553189,-0.10200000000000001
1748285574273240310,-0.09
1748285574280927431,0.274
1748285574288614552,1.004
1748285574296301737,1.403,59,1090
1748285574303988719,0.8290000000000001
1748285574311675701,-0.23600000000000002
1748285574319362683,-0.627
1748285574327049665,-0.304
1748285574334736647,-0.177
1748285574342423629,-0.231
1748285574350110611,-0.124
1748285574357797593,-0.07200000000000001
1748285574365484575,-0.114
1748285574373171557,-0.092
1748285574380858539,-0.058
1748285574388545521,-0.065
1748285574396232503,-0.06
1748285574403919485,-0.046
1748285574411606467,-0.041
1748285574419293449,-0.038
1748285574426980431,-0.029
1748285574434667413,-0.021
1748285574442354395,-0.014
1748285574450041377,-0.004
1748285574457728359,0.002
1748285574465415341,0.012
1748285574473102323,0.021
1748285574480789305,0.034
1748285574488476287,0.046
1748285574496163269,0.06
1748285574503850251,0.075
1748285574511537233,0.092
1748285574519224215,0.111
1748285574526911197,0.131
1748285574534598179,0.153
1748285574542285161,0.17500000000000002
1748285574549972143,0.194
1748285574557659125,0.20400000000000001
1748285574565346107,0.209
1748285574573033089,0.211
1748285574580720071,0.209
1748285574588407053,0.199
1748285574596094035,0.17500000000000002
1748285574603781017,0.133
1748285574611467999,0.077
1748285574619154981,0.021
1748285574626841963,-0.034
1748285574634528945,-0.085
1748285574642215927,-0.121
1748285574649902909,-0.148
1748285574657589891,-0.163
1748285574665276873,-0.167
1748285574672963855,-0.167
1748285574680650837,-0.165
1748285574688337819,-0.163
1748285574696024801,-0.158
1748285574703711783,-0.153
1748285574711398765,-0.145
1748285574719085747,-0.14300000000000002
1748285574726772729,-0.138
1748285574734459711,-0.133
1748285574742146693,-0.131
1748285574749833675,-0.128
1748285574757520657,-0.126
1748285574765207639,-0.124
1748285574772894621,-0.124
1748285574780581603,-0.124
1748285574788268585,-0.121
1748285574795955567,-0.121
1748285574803642549,-0.121
1748285574811329531,-0.121
1748285574819016513,-0.11900000000000001
1748285574826703495,-0.11900000000000001
1748285574834390477,-0.11900000000000001
1748285574842077459,-0.116
1748285574849764441,-0.116
1748285574857451464,-0.116,59,1063
1748285574865138307,-0.114
1748285574872825150,-0.109
1748285574880511993,-0.109
1748285574888198836,-0.107
1748285574895885679,-0.107
1748285574903572522,-0.10200000000000001
1748285574911259365,-0.099
1748285574918946208,-0.097
1748285574926633051,-0.094
1748285574934319894,-0.092
1748285574942006737,-0.09
1748285574949693580,-0.08700000000000001
1748285574957380423,-0.08700000000000001
1748285574965067266,-0.08700000000000001
1748285574972754109,-0.08700000000000001
1748285574980440952,-0.082
1748285574988127795,-0.077
1748285574995814638,-0.075
1748285575003501481,-0.075
1748285575011188324,-0.07200000000000001
1748285575018875167,-0.07200000000000001
1748285575026562010,-0.07200000000000001
1748285575034248853,-0.07
1748285575041935696,-0.068
1748285575049622539,-0.068
1748285575057309382,-0.065
1748285575064996225,-0.063
1748285575072683068,-0.063
1748285575080369911,-0.063
1748285575088056754,-0.06
1748285575095743597,-0.058
1748285575103430440,-0.058
1748285575111117283,-0.055
1748285575118804126,-0.053
1748285575126490969,-0.055
1748285575134177812,-0.053
1748285575141864655,-0.051000000000000004
1748285575149551498,-0.051000000000000004
1748285575157238341,-0.051000000000000004
1748285575164925184,-0.051000000000000004
1748285575172612027,-0.048
1748285575180298870,-0.046
1748285575187985713,-0.048
1748285575195672556,-0.048
1748285575203359399,-0.046
1748285575211046242,-0.043000000000000003
1748285575218733085,-0.046
1748285575226419928,-0.046
1748285575234106771,-0.041
1748285575241793614,-0.041
1748285575249480457,-0.043000000000000003
1748285575257167300,-0.043000000000000003
1748285575264854143,-0.041
1748285575272540986,-0.041
1748285575280227829,-0.041
1748285575287914672,-0.046
1748285575295601515,-0.053
1748285575303288358,-0.053
1748285575310975201,-0.048
1748285575318662044,-0.041
1748285575326348887,-0.029
1748285575334035730,-0.019
1748285575341722573,-0.007
1748285575349409416,0.0
1748285575357096259,-0.014
1748285575364783102,-0.038
1748285575372469945,-0.038
1748285575380156788,-0.038
1748285575387843631,-0.043000000000000003
1748285575395530474,-0.041
1748285575403217317,-0.036000000000000004
1748285575410904160,-0.046
1748285575418591013,-0.08
1748285575426278134,-0.109
1748285575433965255,0.116
1748285575441652376,0.778
1748285575449339497,1.36
1748285575457026618,1.092
1748285575464713739,0.058
1748285575472400860,-0.62
1748285575480087981,-0.41600000000000004
1748285575487775102,-0.17200000000000001
1748285575495462223,-0.226
1748285575503149344,-0.16
1748285575510836465,-0.068
1748285575518523586,-0.10200000000000001
1748285575526210707,-0.10400000000000001
1748285575533897828,-0.063
1748285575541584949,-0.06
1748285575549272070,-0.063
1748285575556959191,-0.046
1748285575564646312,-0.038
1748285575572333433,-0.038
1748285575580020554,-0.029
1748285575587707675,-0.017
1748285575595394796,-0.012
1748285575603081917,-0.004
1748285575610769038,0.004
1748285575618456159,0.012
1748285575626143280,0.021
1748285575633830401,0.031
1748285575641517522,0.043000000000000003
1748285575649204643,0.055
1748285575656891764,0.07
1748285575664578885,0.085
1748285575672266006,0.10200000000000001
1748285575679953127,0.121
1748285575687640248,0.14100000000000001
1748285575695327369,0.16
1748285575703014490,0.177
1748285575710701611,0.192
1748285575718388732,0.199
1748285575726075853,0.201
1748285575733762974,0.201
1748285575741450095,0.197
1748285575749137216,0.182
1748285575756824337,0.153
1748285575764511458,0.107
1748285575772198579,0.055
1748285575779885700,0.0
1748285575787572821,-0.051000000000000004
1748285575795259942,-0.092
1748285575802947063,-0.124
1748285575810634184,-0.145
1748285575818321305,-0.155
1748285575826008426,-0.16
1748285575833695547,-0.158
1748285575841382668,-0.155
1748285575849069789,-0.15
1748285575856756910,-0.148
1748285575864444031,-0.14300000000000002
1748285575872131152,-0.136
1748285575879818273,-0.133
1748285575887505394,-0.128
1748285575895192515,-0.124
1748285575902879636,-0.121
1748285575910566757,-0.11900000000000001
1748285575918253878,-0.116
1748285575925940999,-0.116
1748285575933628120,-0.116
1748285575941315241,-0.114
1748285575949002362,-0.116
1748285575956689483,-0.114
1748285575964376604,-0.114
1748285575972063725,-0.111
1748285575979750914,-0.114,58,941
1748285575987437687,-0.111
1748285575995124460,-0.111
1748285576002811233,-0.109
1748285576010498006,-0.109
1748285576018184779,-0.107
1748285576025871552,-0.107
1748285576033558325,-0.107
1748285576041245098,-0.10400000000000001
1748285576048931871,-0.10200000000000001
1748285576056618644,-0.099
1748285576064305417,-0.097
1748285576071992190,-0.094
1748285576079678963,-0.092
1748285576087365736,-0.08700000000000001
1748285576095052509,-0.08700000000000001
1748285576102739282,-0.085
1748285576110426055,-0.082
1748285576118112828,-0.082
1748285576125799601,-0.08
1748285576133486374,-0.075
1748285576141173147,-0.075
1748285576148859920,-0.07200000000000001
1748285576156546693,-0.07
1748285576164233466,-0.068
1748285576171920239,-0.065
1748285576179607012,-0.065
1748285576187293785,-0.065
1748285576194980558,-0.063
1748285576202667331,-0.06
1748285576210354104,-0.06
1748285576218040877,-0.06
1748285576225727650,-0.058
1748285576233414423,-0.058
1748285576241101196,-0.055
1748285576248787969,-0.053
1748285576256474742,-0.051000000000000004
1748285576264161515,-0.051000000000000004
1748285576271848288,-0.051000000000000004
1748285576279535061,-0.048
1748285576287221834,-0.046
1748285576294908607,-0.046
1748285576302595380,-0.043000000000000003
1748285576310282153,-0.043000000000000003
1748285576317968926,-0.046
1748285576325655699,-0.046
1748285576333342472,-0.041
1748285576341029245,-0.038
1748285576348716018,-0.038
1748285576356402791,-0.038
1748285576364089564,-0.038
1748285576371776337,-0.036000000000000004
1748285576379463110,-0.036000000000000004
1748285576387149883,-0.038
