time,ecg,hr,rr,marker
1748283278601192127,-0.197
1748283278608878482,0.271
1748283278616564837,1.0050000000000001
1748283278624251192,1.462
1748283278631937547,1.1260000000000001
1748283278639623902,-0.039
1748283278647310257,-0.768
1748283278654996612,-0.33
1748283278662682967,0.034
1748283278670369322,-0.14300000000000002
1748283278678055677,-0.155
1748283278685742032,-0.037
1748283278693428387,-0.066
1748283278701114742,-0.076
1748283278708801097,-0.019
1748283278716487452,-0.004
1748283278724173807,-0.002
1748283278731860162,0.034
1748283278739546517,0.066
1748283278747232872,0.093
1748283278754919227,0.135
1748283278762605582,0.177
1748283278770291937,0.20700000000000002
1748283278777978292,0.242
1748283278785664647,0.281
1748283278793351002,0.306
1748283278801037357,0.313
1748283278808723712,0.308
1748283278816410067,0.306
1748283278824096422,0.293
1748283278831782777,0.259
1748283278839469132,0.227
1748283278847155487,0.19
1748283278854841842,0.123
1748283278862528197,0.024
1748283278870214552,-0.069
1748283278877900907,-0.14300000000000002
1748283278885587262,-0.209
1748283278893273617,-0.266
1748283278900959972,-0.303
1748283278908646327,-0.311
1748283278916332682,-0.303
1748283278924019037,-0.306
1748283278931705392,-0.303
1748283278939391747,-0.276
1748283278947078102,-0.251
1748283278954764457,-0.242
1748283278962450812,-0.23700000000000002
1748283278970137167,-0.219
1748283278977823522,-0.209
1748283278985509877,-0.209
1748283278993196232,-0.2
1748283279000882587,-0.19
1748283279008568942,-0.192
1748283279016255297,-0.187
1748283279023941652,-0.17500000000000002
1748283279031628007,-0.17500000000000002
1748283279039314362,-0.185
1748283279047000717,-0.192
1748283279054687072,-0.187
1748283279062373427,-0.177
1748283279070059782,-0.167
1748283279077746137,-0.158
1748283279085432492,-0.148
1748283279093118847,-0.13
1748283279100805202,-0.116
1748283279108491557,-0.14300000000000002
1748283279116177912,-0.182
1748283279123864267,-0.185
1748283279131550622,-0.17200000000000001
1748283279139236977,-0.167
1748283279146923332,-0.165
1748283279154609687,-0.158
1748283279162296076,-0.15,93,612
1748283279169981874,-0.153
1748283279177667672,-0.163
1748283279185353470,-0.177
1748283279193039268,-0.234
1748283279200725066,-0.217
1748283279208410864,0.177
1748283279216096662,0.8290000000000001
1748283279223782460,1.165
1748283279231468258,0.844
1748283279239154056,-0.059000000000000004
1748283279246839854,-0.6890000000000001
1748283279254525652,-0.382
1748283279262211450,-0.009000000000000001
1748283279269897248,-0.111
1748283279277583046,-0.14300000000000002
1748283279285268844,-0.046
1748283279292954642,-0.059000000000000004
1748283279300640440,-0.076
1748283279308326238,-0.027
1748283279316012036,-0.004
1748283279323697834,-0.002
1748283279331383632,0.024
1748283279339069430,0.056
1748283279346755228,0.081
1748283279354441026,0.113
1748283279362126824,0.15
1748283279369812622,0.182
1748283279377498420,0.212
1748283279385184218,0.246
1748283279392870016,0.274
1748283279400555814,0.28600000000000003
1748283279408241612,0.281
1748283279415927410,0.271
1748283279423613208,0.251
1748283279431299006,0.222
1748283279438984804,0.19
1748283279446670602,0.148
1748283279454356400,0.081
1748283279462042198,-0.004
1748283279469727996,-0.093
1748283279477413794,-0.17500000000000002
1748283279485099592,-0.244
1748283279492785390,-0.291
1748283279500471188,-0.321
1748283279508156986,-0.333
1748283279515842784,-0.333
1748283279523528582,-0.326
1748283279531214380,-0.313
1748283279538900178,-0.303
1748283279546585976,-0.291
1748283279554271774,-0.274
1748283279561957572,-0.259
1748283279569643370,-0.246
1748283279577329168,-0.234
1748283279585014966,-0.224
1748283279592700764,-0.219
1748283279600386562,-0.219
1748283279608072360,-0.214
1748283279615758158,-0.20700000000000002
1748283279623443956,-0.20500000000000002
1748283279631129754,-0.20500000000000002
1748283279638815552,-0.202
1748283279646501350,-0.20500000000000002
1748283279654187148,-0.209
1748283279661872946,-0.217
1748283279669558744,-0.212
1748283279677244542,-0.197
1748283279684930340,-0.187
1748283279692616138,-0.182
1748283279700301936,-0.17200000000000001
1748283279707987734,-0.153
1748283279715673532,-0.145
1748283279723359331,-0.17,94,603
1748283279731045198,-0.20500000000000002,,596
1748283279738731065,-0.20500000000000002
1748283279746416932,-0.195
1748283279754102799,-0.192
1748283279761788666,-0.185
1748283279769474533,-0.18
1748283279777160400,-0.17500000000000002
1748283279784846267,-0.17500000000000002
1748283279792532134,-0.18
1748283279800218001,-0.192
1748283279807903868,-0.224
1748283279815589735,-0.138
1748283279823275602,0.311
1748283279830961469,0.936
1748283279838647336,1.23
1748283279846333203,0.837
1748283279854019070,-0.187
1748283279861704937,-0.745
1748283279869390804,-0.303
1748283279877076671,0.004
1748283279884762538,-0.167
1748283279892448405,-0.167
1748283279900134272,-0.059000000000000004
1748283279907820139,-0.088
1748283279915506006,-0.098
1748283279923191873,-0.041
1748283279930877740,-0.024
1748283279938563607,-0.014
1748283279946249474,0.022
1748283279953935341,0.049
1748283279961621208,0.07100000000000001
1748283279969307075,0.108
1748283279976992942,0.14300000000000002
1748283279984678809,0.17500000000000002
1748283279992364676,0.212
1748283280000050543,0.244
1748283280007736410,0.269
1748283280015422277,0.28400000000000003
1748283280023108144,0.281
1748283280030794011,0.266
1748283280038479878,0.249
1748283280046165745,0.224
1748283280053851612,0.19
1748283280061537479,0.14300000000000002
1748283280069223346,0.074
1748283280076909213,-0.012
1748283280084595080,-0.106
1748283280092280947,-0.192
1748283280099966814,-0.261
1748283280107652681,-0.311
1748283280115338548,-0.335
1748283280123024415,-0.343
1748283280130710282,-0.34
1748283280138396149,-0.335
1748283280146082016,-0.321
1748283280153767883,-0.306
1748283280161453750,-0.293
1748283280169139617,-0.276
1748283280176825484,-0.261
1748283280184511351,-0.249
1748283280192197218,-0.242
1748283280199883085,-0.232
1748283280207568952,-0.224
1748283280215254819,-0.219
1748283280222940686,-0.217
1748283280230626553,-0.214
1748283280238312420,-0.212
1748283280245998287,-0.209
1748283280253684154,-0.20700000000000002
1748283280261370021,-0.20500000000000002
1748283280269055888,-0.202
1748283280276741755,-0.202
1748283280284427678,-0.209
1748283280292113545,-0.214
1748283280299799412,-0.209
1748283280307485279,-0.195
1748283280315171146,-0.18
1748283280322857013,-0.17
1748283280330542880,-0.16
1748283280338228747,-0.14
1748283280345914614,-0.135
1748283280353600481,-0.17200000000000001
1748283280361286348,-0.20500000000000002
1748283280368972215,-0.197
1748283280376658082,-0.185
1748283280384343949,-0.185
1748283280392029816,-0.18
1748283280399715683,-0.17200000000000001
1748283280407401550,-0.167
1748283280415087417,-0.165
1748283280422773284,-0.165
1748283280430459151,-0.18
1748283280438145018,-0.217
1748283280445830885,-0.153
1748283280453516752,0.266
1748283280461202619,0.908
1748283280468888486,1.264
1748283280476574353,0.928
1748283280484260220,-0.108
1748283280491946087,-0.76
1748283280499631954,-0.34800000000000003
1748283280507317821,0.012
1748283280515003688,-0.148
1748283280522689555,-0.167
1748283280530375422,-0.051000000000000004
1748283280538061289,-0.076
1748283280545747156,-0.088
1748283280553433023,-0.034
1748283280561118890,-0.014
1748283280568804757,-0.007
1748283280576490624,0.024
1748283280584176491,0.054
1748283280591862358,0.074
1748283280599548225,0.108
1748283280607234092,0.14300000000000002
1748283280614919959,0.17500000000000002
1748283280622605826,0.209
1748283280630291693,0.246
1748283280637977560,0.271
1748283280645663427,0.28600000000000003
1748283280653349294,0.28600000000000003
1748283280661035161,0.276
1748283280668721028,0.256
1748283280676406895,0.234
1748283280684092762,0.20500000000000002
1748283280691778629,0.158
1748283280699464496,0.091
1748283280707150363,0.004
1748283280714836230,-0.091
1748283280722522097,-0.182
1748283280730207964,-0.256
1748283280737893831,-0.308
1748283280745579698,-0.338
1748283280753265565,-0.35000000000000003
1748283280760951432,-0.353
1748283280768637299,-0.34500000000000003
1748283280776323166,-0.333
1748283280784009033,-0.316
1748283280791694900,-0.303
1748283280799380767,-0.291
1748283280807066634,-0.274
1748283280814752501,-0.259
1748283280822438368,-0.249
1748283280830124235,-0.23900000000000002
1748283280837810102,-0.232
1748283280845496021,-0.229,95,600
1748283280853182306,-0.227
1748283280860868591,-0.224
1748283280868554876,-0.222
1748283280876241161,-0.222
1748283280883927446,-0.219
1748283280891613731,-0.219
1748283280899300016,-0.219
1748283280906986301,-0.217
1748283280914672586,-0.214
1748283280922358871,-0.212
1748283280930045156,-0.209
1748283280937731441,-0.209
1748283280945417726,-0.212
1748283280953104011,-0.217
1748283280960790296,-0.214
1748283280968476581,-0.202
1748283280976162866,-0.182
1748283280983849151,-0.167
1748283280991535436,-0.155
1748283280999221721,-0.138
1748283281006908006,-0.133
1748283281014594291,-0.165
1748283281022280576,-0.2
1748283281029966861,-0.2
1748283281037653146,-0.187
1748283281045339431,-0.185
1748283281053025716,-0.18
1748283281060712001,-0.17200000000000001
1748283281068398286,-0.17
1748283281076084571,-0.165
1748283281083770856,-0.165
1748283281091457141,-0.17500000000000002
1748283281099143426,-0.209
1748283281106829711,-0.182
1748283281114515996,0.167
1748283281122202281,0.807
1748283281129888566,1.276
1748283281137574851,1.108
1748283281145261136,0.10300000000000001
1748283281152947421,-0.765
1748283281160633706,-0.46900000000000003
1748283281168319991,0.002
1748283281176006276,-0.125
1748283281183692561,-0.195
1748283281191378846,-0.069
1748283281199065131,-0.079
1748283281206751416,-0.108
1748283281214437701,-0.051000000000000004
1748283281222123986,-0.024
1748283281229810271,-0.022
1748283281237496556,0.012
1748283281245182841,0.046
1748283281252869126,0.069
1748283281260555411,0.098
1748283281268241696,0.133
1748283281275927981,0.165
1748283281283614266,0.202
1748283281291300551,0.23700000000000002
1748283281298986836,0.261
1748283281306673121,0.279
1748283281314359406,0.28600000000000003
1748283281322045691,0.279
1748283281329731976,0.261
1748283281337418261,0.23900000000000002
1748283281345104546,0.212
1748283281352790831,0.17500000000000002
1748283281360477116,0.11800000000000001
1748283281368163401,0.037
1748283281375849686,-0.056
1748283281383535971,-0.145
1748283281391222256,-0.227
1748283281398908541,-0.291
1748283281406594882,-0.326
1748283281414280749,-0.343
1748283281421966616,-0.34800000000000003
1748283281429652483,-0.343
1748283281437338350,-0.33
1748283281445024217,-0.316
1748283281452710084,-0.303
1748283281460395951,-0.291
1748283281468081818,-0.279
1748283281475767685,-0.266
1748283281483453552,-0.256
1748283281491139419,-0.249
1748283281498825286,-0.244
1748283281506511153,-0.242
1748283281514197020,-0.23700000000000002
1748283281521882887,-0.234
1748283281529568754,-0.234
1748283281537254621,-0.234
1748283281544940488,-0.232
1748283281552626355,-0.227
1748283281560312222,-0.229
1748283281567998089,-0.227
1748283281575683956,-0.222
1748283281583369823,-0.222
1748283281591055690,-0.219
1748283281598741557,-0.214
1748283281606427424,-0.214
1748283281614113291,-0.217
1748283281621799158,-0.222
1748283281629485025,-0.217
1748283281637170892,-0.2
1748283281644856759,-0.18
1748283281652542626,-0.167
1748283281660228493,-0.155
1748283281667914360,-0.14
1748283281675600227,-0.14
1748283281683286094,-0.177
1748283281690971961,-0.2
1748283281698657828,-0.192
1748283281706343695,-0.182
1748283281714029562,-0.182
1748283281721715429,-0.177
1748283281729401296,-0.17200000000000001
1748283281737087163,-0.167
1748283281744773030,-0.165
1748283281752458897,-0.167
1748283281760144764,-0.18
1748283281767830631,-0.212
1748283281775516498,-0.123
1748283281783202365,0.34
1748283281790888232,1.0
1748283281798574099,1.36
1748283281806259966,0.9550000000000001
1748283281813945833,-0.20700000000000002
1748283281821631700,-0.8150000000000001
1748283281829317567,-0.303
1748283281837003434,0.014
1748283281844689301,-0.18
1748283281852375168,-0.167
1748283281860061035,-0.054
1748283281867746902,-0.091
1748283281875432769,-0.096
1748283281883118636,-0.039
1748283281890804503,-0.027
1748283281898490370,-0.017
1748283281906176237,0.022
1748283281913862104,0.051000000000000004
1748283281921547971,0.07100000000000001
1748283281929233838,0.106
1748283281936919705,0.14300000000000002
1748283281944605572,0.177
1748283281952291439,0.212
1748283281959977306,0.244
1748283281967663225,0.269,97,614
1748283281975349789,0.28400000000000003,,631
1748283281983036353,0.28600000000000003
1748283281990722917,0.274
1748283281998409481,0.254
1748283282006096045,0.227
1748283282013782609,0.197
1748283282021469173,0.155
1748283282029155737,0.091
1748283282036842301,0.007
1748283282044528865,-0.081
1748283282052215429,-0.17
1748283282059901993,-0.244
1748283282067588557,-0.296
1748283282075275121,-0.326
1748283282082961685,-0.34
1748283282090648249,-0.34500000000000003
1748283282098334813,-0.343
1748283282106021377,-0.333
1748283282113707941,-0.318
1748283282121394505,-0.303
1748283282129081069,-0.291
1748283282136767633,-0.279
1748283282144454197,-0.266
1748283282152140761,-0.254
1748283282159827325,-0.246
1748283282167513889,-0.242
1748283282175200453,-0.23700000000000002
1748283282182887017,-0.234
1748283282190573581,-0.232
1748283282198260145,-0.229
1748283282205946709,-0.229
1748283282213633273,-0.227
1748283282221319837,-0.227
1748283282229006401,-0.224
1748283282236692965,-0.227
1748283282244379529,-0.227
1748283282252066093,-0.222
1748283282259752657,-0.214
1748283282267439221,-0.212
1748283282275125785,-0.212
1748283282282812349,-0.217
1748283282290498913,-0.219
1748283282298185477,-0.209
1748283282305872041,-0.195
1748283282313558605,-0.177
1748283282321245169,-0.163
1748283282328931733,-0.15
1748283282336618297,-0.135
1748283282344304861,-0.14300000000000002
1748283282351991425,-0.177
1748283282359677989,-0.197
1748283282367364553,-0.187
1748283282375051117,-0.18
1748283282382737681,-0.18
1748283282390424245,-0.17200000000000001
1748283282398110809,-0.17
1748283282405797373,-0.167
1748283282413483937,-0.167
1748283282421170501,-0.167
1748283282428857065,-0.187
1748283282436543629,-0.20500000000000002
1748283282444230193,-0.007
1748283282451916757,0.5700000000000001
1748283282459603321,1.197
1748283282467289885,1.358
1748283282474976449,0.612
1748283282482663013,-0.5680000000000001
1748283282490349577,-0.721
1748283282498036141,-0.108
1748283282505722705,-0.041
1748283282513409269,-0.214
1748283282521095833,-0.111
1748283282528782433,-0.054
1748283282536468021,-0.106
1748283282544153609,-0.076
1748283282551839197,-0.029
1748283282559524785,-0.027
1748283282567210373,-0.004
1748283282574895961,0.034
1748283282582581549,0.054
1748283282590267137,0.083
1748283282597952725,0.123
1748283282605638313,0.158
1748283282613323901,0.19
1748283282621009489,0.224
1748283282628695077,0.256
1748283282636380665,0.276
1748283282644066253,0.28800000000000003
1748283282651751841,0.28400000000000003
1748283282659437429,0.269
1748283282667123017,0.246
1748283282674808605,0.222
1748283282682494193,0.19
1748283282690179781,0.14
1748283282697865369,0.07100000000000001
1748283282705550957,-0.014
1748283282713236545,-0.106
1748283282720922133,-0.192
1748283282728607721,-0.264
1748283282736293309,-0.308
1748283282743978897,-0.333
1748283282751664485,-0.343
1748283282759350073,-0.34500000000000003
1748283282767035661,-0.338
1748283282774721249,-0.326
1748283282782406837,-0.311
1748283282790092425,-0.298
1748283282797778013,-0.28600000000000003
1748283282805463601,-0.271
1748283282813149189,-0.259
1748283282820834777,-0.251
1748283282828520365,-0.244
1748283282836205953,-0.23700000000000002
1748283282843891541,-0.232
1748283282851577129,-0.227
1748283282859262717,-0.222
1748283282866948305,-0.222
1748283282874633893,-0.222
1748283282882319481,-0.219
1748283282890005069,-0.219
1748283282897690657,-0.219
1748283282905376245,-0.219
1748283282913061833,-0.217
1748283282920747421,-0.212
1748283282928433009,-0.209
1748283282936118597,-0.212
1748283282943804185,-0.217
1748283282951489773,-0.222
1748283282959175361,-0.212
1748283282966860949,-0.197
1748283282974546537,-0.177
1748283282982232125,-0.165
1748283282989917713,-0.155
1748283282997603301,-0.138
1748283283005288889,-0.14300000000000002
1748283283012974477,-0.182
1748283283020660065,-0.20500000000000002
1748283283028345653,-0.195
1748283283036031241,-0.185
1748283283043716829,-0.185
1748283283051402417,-0.177
1748283283059088005,-0.17200000000000001
1748283283066773593,-0.17
1748283283074459181,-0.17200000000000001
1748283283082144769,-0.17
1748283283089830429,-0.185,97,662
1748283283097516296,-0.20700000000000002
1748283283105202163,-0.027
1748283283112888030,0.55
1748283283120573897,1.197
1748283283128259764,1.3880000000000001
1748283283135945631,0.666
1748283283143631498,-0.535
1748283283151317365,-0.74
1748283283159003232,-0.125
1748283283166689099,-0.037
1748283283174374966,-0.219
1748283283182060833,-0.125
1748283283189746700,-0.064
1748283283197432567,-0.116
1748283283205118434,-0.083
1748283283212804301,-0.032
1748283283220490168,-0.029
1748283283228176035,-0.009000000000000001
1748283283235861902,0.032
1748283283243547769,0.061
1748283283251233636,0.088
1748283283258919503,0.123
1748283283266605370,0.16
1748283283274291237,0.19
1748283283281977104,0.222
1748283283289662971,0.259
1748283283297348838,0.281
1748283283305034705,0.291
1748283283312720572,0.291
1748283283320406439,0.274
1748283283328092306,0.249
1748283283335778173,0.227
1748283283343464040,0.197
1748283283351149907,0.148
1748283283358835774,0.074
1748283283366521641,-0.014
1748283283374207508,-0.101
1748283283381893375,-0.182
1748283283389579242,-0.261
1748283283397265109,-0.313
1748283283404950976,-0.328
1748283283412636843,-0.333
1748283283420322710,-0.34
1748283283428008577,-0.338
1748283283435694444,-0.326
1748283283443380311,-0.311
1748283283451066178,-0.298
1748283283458752045,-0.28400000000000003
1748283283466437912,-0.269
1748283283474123779,-0.256
1748283283481809646,-0.249
1748283283489495513,-0.242
1748283283497181380,-0.234
1748283283504867247,-0.227
1748283283512553114,-0.222
1748283283520238981,-0.219
1748283283527924848,-0.214
1748283283535610715,-0.214
1748283283543296582,-0.214
1748283283550982449,-0.212
1748283283558668316,-0.212
1748283283566354183,-0.209
1748283283574040050,-0.20700000000000002
1748283283581725917,-0.20700000000000002
1748283283589411784,-0.20500000000000002
1748283283597097651,-0.212
1748283283604783518,-0.217
1748283283612469385,-0.209
1748283283620155252,-0.195
1748283283627841119,-0.17200000000000001
1748283283635526986,-0.158
1748283283643212853,-0.148
1748283283650898776,-0.138
1748283283658584783,-0.153
1748283283666270790,-0.187
1748283283673956797,-0.195
1748283283681642804,-0.187
1748283283689328811,-0.192
1748283283697014818,-0.182
1748283283704700825,-0.17
1748283283712386832,-0.167
1748283283720072839,-0.167
1748283283727758846,-0.167
1748283283735444853,-0.17
1748283283743130860,-0.202
1748283283750816867,-0.177
1748283283758502874,0.17
1748283283766188881,0.8150000000000001
1748283283773874888,1.262
1748283283781560895,1.062
1748283283789246902,0.088
1748283283796932909,-0.75
1748283283804618916,-0.481
1748283283812304923,-0.012
1748283283819990930,-0.111
1748283283827676937,-0.17200000000000001
1748283283835362944,-0.056
1748283283843048951,-0.064
1748283283850734958,-0.096
1748283283858420965,-0.046
1748283283866106972,-0.014
1748283283873792979,-0.007
1748283283881478986,0.024
1748283283889164993,0.059000000000000004
1748283283896851000,0.081
1748283283904537007,0.111
1748283283912223014,0.145
1748283283919909021,0.18
1748283283927595028,0.212
1748283283935281035,0.246
1748283283942967042,0.276
1748283283950653049,0.291
1748283283958339056,0.301
1748283283966025063,0.28800000000000003
1748283283973711070,0.264
1748283283981397077,0.244
1748283283989083084,0.214
1748283283996769091,0.17200000000000001
1748283284004455098,0.116
1748283284012141105,0.037
1748283284019827112,-0.056
1748283284027513119,-0.145
1748283284035199126,-0.224
1748283284042885133,-0.28400000000000003
1748283284050571140,-0.318
1748283284058257147,-0.335
1748283284065943154,-0.338
1748283284073629161,-0.338
1748283284081315168,-0.335
1748283284089001175,-0.326
1748283284096687182,-0.308
1748283284104373189,-0.296
1748283284112059196,-0.281
1748283284119745203,-0.266
1748283284127431210,-0.261
1748283284135117217,-0.249
1748283284142803224,-0.23700000000000002
1748283284150489231,-0.232
1748283284158175238,-0.232
1748283284165861245,-0.227
1748283284173547252,-0.222
1748283284181233259,-0.222
1748283284188919266,-0.222
1748283284196605273,-0.219
1748283284204291280,-0.219
1748283284211977293,-0.219,95,667
1748283284219663439,-0.219,,666
1748283284227349585,-0.217
1748283284235035731,-0.217
1748283284242721877,-0.229
1748283284250408023,-0.23700000000000002
1748283284258094169,-0.227
1748283284265780315,-0.209
1748283284273466461,-0.192
1748283284281152607,-0.182
1748283284288838753,-0.17500000000000002
1748283284296524899,-0.16
1748283284304211045,-0.16
1748283284311897191,-0.195
1748283284319583337,-0.217
1748283284327269483,-0.209
1748283284334955629,-0.2
1748283284342641775,-0.197
1748283284350327921,-0.192
1748283284358014067,-0.187
1748283284365700213,-0.185
1748283284373386359,-0.185
1748283284381072505,-0.185
1748283284388758651,-0.20700000000000002
1748283284396444797,-0.217
1748283284404130943,0.029
1748283284411817089,0.642
1748283284419503235,1.19
1748283284427189381,1.185
1748283284434875527,0.377
1748283284442561673,-0.639
1748283284450247819,-0.649
1748283284457933965,-0.10300000000000001
1748283284465620111,-0.08600000000000001
1748283284473306257,-0.209
1748283284480992403,-0.108
1748283284488678549,-0.076
1748283284496364695,-0.116
1748283284504050841,-0.079
1748283284511736987,-0.039
1748283284519423133,-0.037
1748283284527109279,-0.009000000000000001
1748283284534795425,0.027
1748283284542481571,0.046
1748283284550167717,0.07100000000000001
1748283284557853863,0.108
1748283284565540009,0.145
1748283284573226155,0.17500000000000002
1748283284580912301,0.20700000000000002
1748283284588598447,0.23700000000000002
1748283284596284593,0.256
1748283284603970739,0.264
1748283284611656885,0.256
1748283284619343031,0.23700000000000002
1748283284627029177,0.212
1748283284634715323,0.187
1748283284642401469,0.15
1748283284650087615,0.098
1748283284657773761,0.022
1748283284665459907,-0.064
1748283284673146053,-0.15
1748283284680832199,-0.229
1748283284688518345,-0.293
1748283284696204491,-0.33
1748283284703890637,-0.34500000000000003
1748283284711576783,-0.353
1748283284719262929,-0.355
1748283284726949075,-0.35000000000000003
1748283284734635221,-0.338
1748283284742321367,-0.323
1748283284750007513,-0.311
1748283284757693659,-0.298
1748283284765379805,-0.28600000000000003
1748283284773065980,-0.274,94,661
1748283284780751847,-0.264
1748283284788437714,-0.256
1748283284796123581,-0.249
1748283284803809448,-0.244
1748283284811495315,-0.23900000000000002
1748283284819181182,-0.23700000000000002
1748283284826867049,-0.23700000000000002
1748283284834552916,-0.23700000000000002
1748283284842238783,-0.23700000000000002
1748283284849924650,-0.234
1748283284857610517,-0.234
1748283284865296384,-0.234
1748283284872982251,-0.232
1748283284880668118,-0.227
1748283284888353985,-0.227
1748283284896039852,-0.234
1748283284903725719,-0.23900000000000002
1748283284911411586,-0.232
1748283284919097453,-0.214
1748283284926783320,-0.202
1748283284934469187,-0.19
1748283284942155054,-0.17500000000000002
1748283284949840921,-0.158
1748283284957526788,-0.158
1748283284965212655,-0.19
1748283284972898522,-0.217
1748283284980584389,-0.20700000000000002
1748283284988270256,-0.2
1748283284995956123,-0.2
1748283285003641990,-0.195
1748283285011327857,-0.185
1748283285019013724,-0.18
1748283285026699591,-0.18
1748283285034385458,-0.18
1748283285042071325,-0.197
1748283285049757192,-0.219
1748283285057443059,-0.039
1748283285065128926,0.528
1748283285072814793,1.158
1748283285080500660,1.341
1748283285088186527,0.679
1748283285095872394,-0.47100000000000003
1748283285103558261,-0.733
1748283285111244128,-0.163
1748283285118929995,-0.039
1748283285126615862,-0.219
1748283285134301729,-0.14300000000000002
1748283285141987596,-0.074
1748283285149673463,-0.121
1748283285157359330,-0.096
1748283285165045197,-0.044
1748283285172731064,-0.041
1748283285180416931,-0.022
1748283285188102798,0.017
1748283285195788665,0.044
1748283285203474532,0.066
1748283285211160399,0.10300000000000001
1748283285218846266,0.138
1748283285226532133,0.17
1748283285234218000,0.20500000000000002
1748283285241903867,0.23700000000000002
1748283285249589734,0.261
1748283285257275601,0.271
1748283285264961468,0.269
1748283285272647335,0.254
1748283285280333202,0.232
1748283285288019069,0.20700000000000002
1748283285295704936,0.177
1748283285303390803,0.128
1748283285311076670,0.051000000000000004
1748283285318762537,-0.034
1748283285326448404,-0.125
1748283285334134323,-0.214
1748283285341820190,-0.28400000000000003
1748283285349506057,-0.328
1748283285357191924,-0.34800000000000003
1748283285364877791,-0.36
1748283285372563658,-0.36
1748283285380249525,-0.353
1748283285387935392,-0.343
1748283285395621259,-0.33
1748283285403307126,-0.313
1748283285410992993,-0.301
1748283285418678860,-0.291
1748283285426364727,-0.276
1748283285434050594,-0.264
1748283285441736461,-0.259
1748283285449422328,-0.254
1748283285457108195,-0.249
1748283285464794062,-0.244
1748283285472479929,-0.242
1748283285480165796,-0.23700000000000002
1748283285487851663,-0.23700000000000002
1748283285495537530,-0.234
1748283285503223397,-0.232
1748283285510909264,-0.229
1748283285518595131,-0.229
1748283285526280998,-0.227
1748283285533966865,-0.222
1748283285541652732,-0.219
1748283285549338599,-0.227
1748283285557024466,-0.232
1748283285564710333,-0.224
1748283285572396200,-0.209
1748283285580082067,-0.195
1748283285587767934,-0.185
1748283285595453801,-0.17200000000000001
1748283285603139668,-0.153
1748283285610825535,-0.148
1748283285618511402,-0.18
1748283285626197269,-0.212
1748283285633883136,-0.20700000000000002
1748283285641569003,-0.195
1748283285649254870,-0.192
1748283285656940737,-0.19
1748283285664626604,-0.182
1748283285672312471,-0.177
1748283285679998338,-0.17500000000000002
1748283285687684205,-0.177
1748283285695370072,-0.192
1748283285703055939,-0.222
1748283285710741806,-0.08600000000000001
1748283285718427673,0.439
1748283285726113540,1.104
1748283285733799407,1.3880000000000001
1748283285741485274,0.852
1748283285749171141,-0.328
1748283285756857008,-0.785
1748283285764542875,-0.23900000000000002
1748283285772228742,-0.017
1748283285779914609,-0.212
1748283285787600476,-0.167
1748283285795286343,-0.074
1748283285802972210,-0.11800000000000001
1748283285810658077,-0.111
1748283285818343944,-0.054
1748283285826029811,-0.044
1748283285833715678,-0.032
1748283285841401545,0.007
1748283285849087412,0.037
1748283285856773279,0.064
1748283285864459146,0.098
1748283285872145013,0.135
1748283285879830880,0.17
1748283285887516747,0.20700000000000002
1748283285895202666,0.242,93,650
1748283285902888533,0.264,,647
1748283285910574400,0.276
1748283285918260267,0.279
1748283285925946134,0.266
1748283285933632001,0.244
1748283285941317868,0.217
1748283285949003735,0.185
1748283285956689602,0.14
1748283285964375469,0.069
1748283285972061336,-0.022
1748283285979747203,-0.116
1748283285987433070,-0.202
1748283285995118937,-0.274
1748283286002804804,-0.326
1748283286010490671,-0.353
1748283286018176538,-0.363
1748283286025862405,-0.36
1748283286033548272,-0.355
1748283286041234139,-0.34800000000000003
1748283286048920006,-0.333
1748283286056605873,-0.318
1748283286064291740,-0.306
1748283286071977607,-0.296
1748283286079663474,-0.281
1748283286087349341,-0.269
1748283286095035208,-0.259
1748283286102721075,-0.251
1748283286110406942,-0.244
1748283286118092809,-0.23900000000000002
1748283286125778676,-0.23700000000000002
1748283286133464543,-0.234
1748283286141150410,-0.234
1748283286148836277,-0.234
1748283286156522144,-0.232
1748283286164208011,-0.227
1748283286171893878,-0.227
1748283286179579745,-0.227
1748283286187265612,-0.224
1748283286194951479,-0.219
1748283286202637346,-0.217
1748283286210323213,-0.219
1748283286218009080,-0.227
1748283286225694947,-0.222
1748283286233380814,-0.20700000000000002
1748283286241066681,-0.19
1748283286248752548,-0.177
1748283286256438415,-0.167
1748283286264124282,-0.148
1748283286271810149,-0.14300000000000002
1748283286279496016,-0.17200000000000001
1748283286287181883,-0.209
1748283286294867750,-0.20500000000000002
1748283286302553617,-0.19
1748283286310239484,-0.19
1748283286317925351,-0.187
1748283286325611218,-0.18
1748283286333297085,-0.17500000000000002
1748283286340982952,-0.17500000000000002
1748283286348668819,-0.177
1748283286356354686,-0.187
1748283286364040553,-0.222
1748283286371726420,-0.158
1748283286379412287,0.271
1748283286387098154,0.96
1748283286394784021,1.41
1748283286402469888,1.123
1748283286410155755,-0.024
1748283286417841622,-0.8170000000000001
1748283286425527489,-0.405
1748283286433213356,-0.002
1748283286440899223,-0.18
1748283286448585090,-0.202
1748283286456271009,-0.079
1748283286463957294,-0.106
1748283286471643579,-0.123
1748283286479329864,-0.061
1748283286487016149,-0.041
1748283286494702434,-0.037
1748283286502388719,0.0
1748283286510075004,0.032
1748283286517761289,0.054
1748283286525447574,0.088
1748283286533133859,0.125
1748283286540820144,0.158
1748283286548506429,0.192
1748283286556192714,0.229
1748283286563878999,0.256
1748283286571565284,0.271
1748283286579251569,0.276
1748283286586937854,0.271
1748283286594624139,0.251
1748283286602310424,0.227
1748283286609996709,0.2
1748283286617682994,0.158
1748283286625369279,0.096
1748283286633055564,0.009000000000000001
1748283286640741849,-0.083
1748283286648428134,-0.17500000000000002
1748283286656114419,-0.254
1748283286663800704,-0.313
1748283286671486989,-0.34500000000000003
1748283286679173274,-0.36
1748283286686859559,-0.363
1748283286694545844,-0.36
1748283286702232129,-0.353
1748283286709918414,-0.34
1748283286717604699,-0.326
1748283286725290984,-0.311
1748283286732977269,-0.298
1748283286740663554,-0.28400000000000003
1748283286748349839,-0.271
1748283286756036124,-0.261
1748283286763722409,-0.254
1748283286771408694,-0.249
1748283286779094979,-0.246
1748283286786781264,-0.242
1748283286794467549,-0.23700000000000002
1748283286802153834,-0.23700000000000002
1748283286809840119,-0.234
1748283286817526404,-0.232
1748283286825212689,-0.229
1748283286832898974,-0.229
1748283286840585259,-0.229
1748283286848271544,-0.227
1748283286855957829,-0.224
1748283286863644114,-0.227
1748283286871330399,-0.232
1748283286879016684,-0.232
1748283286886702969,-0.219
1748283286894389254,-0.202
1748283286902075539,-0.185
1748283286909761824,-0.17200000000000001
1748283286917448109,-0.16
1748283286925134394,-0.148
1748283286932820679,-0.17
1748283286940506964,-0.209
1748283286948193249,-0.214
1748283286955879534,-0.2
1748283286963565819,-0.197
1748283286971252104,-0.195
1748283286978938389,-0.187
1748283286986624674,-0.182
1748283286994310959,-0.18
1748283287001997244,-0.182
1748283287009683529,-0.187
1748283287017369874,-0.219,93,655
1748283287025055741,-0.209
1748283287032741608,0.108
1748283287040427475,0.782
1748283287048113342,1.363
1748283287055799209,1.318
1748283287063485076,0.323
1748283287071170943,-0.743
1748283287078856810,-0.587
1748283287086542677,-0.037
1748283287094228544,-0.121
1748283287101914411,-0.232
1748283287109600278,-0.101
1748283287117286145,-0.088
1748283287124972012,-0.13
1748283287132657879,-0.081
1748283287140343746,-0.044
1748283287148029613,-0.044
1748283287155715480,-0.012
1748283287163401347,0.027
1748283287171087214,0.051000000000000004
1748283287178773081,0.081
1748283287186458948,0.121
1748283287194144815,0.16
1748283287201830682,0.195
1748283287209516549,0.229
1748283287217202416,0.261
1748283287224888283,0.28600000000000003
1748283287232574150,0.291
1748283287240260017,0.281
1748283287247945884,0.269
1748283287255631751,0.251
1748283287263317618,0.227
1748283287271003485,0.185
1748283287278689352,0.123
1748283287286375219,0.039
1748283287294061086,-0.051000000000000004
1748283287301746953,-0.14300000000000002
1748283287309432820,-0.229
1748283287317118687,-0.296
1748283287324804554,-0.33
1748283287332490421,-0.343
1748283287340176288,-0.34800000000000003
1748283287347862155,-0.34800000000000003
1748283287355548022,-0.34
1748283287363233889,-0.323
1748283287370919756,-0.306
1748283287378605623,-0.301
1748283287386291490,-0.291
1748283287393977357,-0.276
1748283287401663224,-0.259
1748283287409349091,-0.251
1748283287417034958,-0.246
1748283287424720825,-0.234
1748283287432406692,-0.224
1748283287440092559,-0.224
1748283287447778426,-0.224
1748283287455464293,-0.219
1748283287463150160,-0.212
1748283287470836027,-0.20700000000000002
1748283287478521894,-0.212
1748283287486207761,-0.219
1748283287493893628,-0.217
1748283287501579495,-0.20500000000000002
1748283287509265362,-0.2
1748283287516951229,-0.20500000000000002
1748283287524637096,-0.209
1748283287532322963,-0.209
1748283287540008830,-0.2
1748283287547694697,-0.185
1748283287555380564,-0.17
1748283287563066431,-0.158
1748283287570752298,-0.14
1748283287578438217,-0.123
1748283287586124084,-0.14
1748283287593809951,-0.182
1748283287601495818,-0.197
1748283287609181685,-0.182
1748283287616867552,-0.17200000000000001
1748283287624553419,-0.177
1748283287632239286,-0.177
1748283287639925153,-0.167
1748283287647611020,-0.158
1748283287655296887,-0.155
1748283287662982754,-0.165
1748283287670668621,-0.19
1748283287678354488,-0.209
1748283287686040355,-0.019
1748283287693726222,0.553
1748283287701412089,1.168
1748283287709097956,1.301
1748283287716783823,0.61
1748283287724469690,-0.491
1748283287732155557,-0.6960000000000001
1748283287739841424,-0.14
1748283287747527291,-0.034
1748283287755213158,-0.195
1748283287762899025,-0.108
1748283287770584892,-0.044
1748283287778270759,-0.093
1748283287785956626,-0.069
1748283287793642493,-0.019
1748283287801328360,-0.014
1748283287809014227,0.007
1748283287816700094,0.046
1748283287824385961,0.074
1748283287832071828,0.101
1748283287839757695,0.133
1748283287847443562,0.17
1748283287855129429,0.209
1748283287862815296,0.246
1748283287870501163,0.279
1748283287878187030,0.303
1748283287885872897,0.316
1748283287893558764,0.321
1748283287901244631,0.308
1748283287908930498,0.281
1748283287916616365,0.254
1748283287924302232,0.227
1748283287931988099,0.17
1748283287939673966,0.081
1748283287947359833,-0.009000000000000001
1748283287955045700,-0.10300000000000001
1748283287962731567,-0.197
1748283287970417434,-0.266
1748283287978103301,-0.306
1748283287985789168,-0.326
1748283287993475035,-0.333
1748283288001160902,-0.335
1748283288008846769,-0.34
1748283288016532636,-0.335
1748283288024218503,-0.316
1748283288031904370,-0.296
1748283288039590237,-0.28400000000000003
1748283288047276104,-0.274
1748283288054961971,-0.259
1748283288062647838,-0.244
1748283288070333705,-0.242
1748283288078019572,-0.23900000000000002
1748283288085705439,-0.227
1748283288093391306,-0.217
1748283288101077173,-0.219
1748283288108763040,-0.217
1748283288116448907,-0.20700000000000002
1748283288124134774,-0.20500000000000002
1748283288131820641,-0.212
1748283288139506560,-0.217,93,654
1748283288147192427,-0.20700000000000002,,663
1748283288154878294,-0.20500000000000002
1748283288162564161,-0.212
1748283288170250028,-0.212
1748283288177935895,-0.214
1748283288185621762,-0.20700000000000002
1748283288193307629,-0.192
1748283288200993496,-0.177
1748283288208679363,-0.17
1748283288216365230,-0.158
1748283288224051097,-0.14300000000000002
1748283288231736964,-0.15
1748283288239422831,-0.187
1748283288247108698,-0.20700000000000002
1748283288254794565,-0.2
1748283288262480432,-0.192
1748283288270166299,-0.187
1748283288277852166,-0.182
1748283288285538033,-0.18
1748283288293223900,-0.18
1748283288300909767,-0.177
1748283288308595634,-0.18
1748283288316281501,-0.2
1748283288323967368,-0.232
1748283288331653235,-0.069
1748283288339339102,0.491
1748283288347024969,1.071
1748283288354710836,1.153
1748283288362396703,0.528
1748283288370082570,-0.451
1748283288377768437,-0.6980000000000001
1748283288385454304,-0.214
1748283288393140171,-0.059000000000000004
1748283288400826038,-0.182
1748283288408511905,-0.123
1748283288416197772,-0.069
1748283288423883639,-0.10300000000000001
1748283288431569506,-0.081
1748283288439255373,-0.039
1748283288446941240,-0.034
1748283288454627107,-0.014
1748283288462312974,0.019
1748283288469998841,0.046
1748283288477684708,0.07100000000000001
1748283288485370575,0.10300000000000001
1748283288493056442,0.138
1748283288500742309,0.17200000000000001
1748283288508428176,0.212
1748283288516114043,0.244
1748283288523799910,0.264
1748283288531485777,0.274
1748283288539171644,0.271
1748283288546857511,0.256
1748283288554543378,0.23700000000000002
1748283288562229245,0.209
1748283288569915112,0.17200000000000001
1748283288577600979,0.116
1748283288585286846,0.039
1748283288592972713,-0.051000000000000004
1748283288600658580,-0.14300000000000002
1748283288608344447,-0.227
1748283288616030314,-0.293
1748283288623716181,-0.338
1748283288631402048,-0.358
1748283288639087915,-0.363
1748283288646773782,-0.365
1748283288654459649,-0.363
1748283288662145516,-0.355
1748283288669831383,-0.34
1748283288677517250,-0.33
1748283288685203117,-0.318
1748283288692888984,-0.303
1748283288700574903,-0.28800000000000003
1748283288708261188,-0.276
1748283288715947473,-0.269
1748283288723633758,-0.261
1748283288731320043,-0.254
1748283288739006328,-0.249
1748283288746692613,-0.246
1748283288754378898,-0.242
1748283288762065183,-0.23900000000000002
1748283288769751468,-0.23900000000000002
1748283288777437753,-0.23900000000000002
1748283288785124038,-0.23700000000000002
1748283288792810323,-0.23700000000000002
1748283288800496608,-0.23700000000000002
1748283288808182893,-0.23700000000000002
1748283288815869178,-0.234
1748283288823555463,-0.242
1748283288831241748,-0.249
1748283288838928033,-0.242
1748283288846614318,-0.224
1748283288854300603,-0.209
1748283288861986888,-0.2
1748283288869673173,-0.187
1748283288877359458,-0.17
1748283288885045743,-0.165
1748283288892732028,-0.197
1748283288900418313,-0.229
1748283288908104598,-0.224
1748283288915790883,-0.212
1748283288923477168,-0.209
1748283288931163453,-0.20500000000000002
1748283288938849738,-0.2
1748283288946536023,-0.195
1748283288954222308,-0.195
1748283288961908593,-0.195
1748283288969594878,-0.209
1748283288977281163,-0.23900000000000002
1748283288984967448,-0.121
1748283288992653733,0.387
1748283289000340018,1.049
1748283289008026303,1.353
1748283289015712588,0.886
1748283289023398873,-0.254
1748283289031085158,-0.785
1748283289038771443,-0.28600000000000003
1748283289046457728,-0.027
1748283289054144013,-0.219
1748283289061830298,-0.192
1748283289069516583,-0.088
1748283289077202868,-0.128
1748283289084889153,-0.125
1748283289092575438,-0.069
1748283289100261723,-0.054
1748283289107948008,-0.044
1748283289115634293,-0.004
1748283289123320578,0.024
1748283289131006863,0.051000000000000004
1748283289138693148,0.08600000000000001
1748283289146379433,0.123
1748283289154065718,0.158
1748283289161752003,0.197
1748283289169438288,0.234
1748283289177124573,0.261
1748283289184810858,0.276
1748283289192497143,0.276
1748283289200183428,0.266
1748283289207869713,0.249
1748283289215555998,0.224
1748283289223242283,0.19
1748283289230928568,0.14
1748283289238614853,0.066
1748283289246301138,-0.024
1748283289253987423,-0.121
1748283289261673764,-0.209,92,655
1748283289269359631,-0.28400000000000003,,655
1748283289277045498,-0.335
1748283289284731365,-0.36
1748283289292417232,-0.37
1748283289300103099,-0.375
1748283289307788966,-0.368
1748283289315474833,-0.355
1748283289323160700,-0.343
1748283289330846567,-0.333
1748283289338532434,-0.318
1748283289346218301,-0.301
1748283289353904168,-0.28800000000000003
1748283289361590035,-0.279
1748283289369275902,-0.269
1748283289376961769,-0.261
1748283289384647636,-0.254
1748283289392333503,-0.249
1748283289400019370,-0.246
1748283289407705237,-0.244
1748283289415391104,-0.242
1748283289423076971,-0.23900000000000002
1748283289430762838,-0.23700000000000002
1748283289438448705,-0.234
1748283289446134572,-0.232
1748283289453820439,-0.229
1748283289461506306,-0.227
1748283289469192173,-0.224
1748283289476878040,-0.229
1748283289484563907,-0.234
1748283289492249774,-0.232
1748283289499935641,-0.217
1748283289507621508,-0.2
1748283289515307375,-0.187
1748283289522993242,-0.17500000000000002
1748283289530679109,-0.158
1748283289538364976,-0.145
1748283289546050843,-0.167
1748283289553736710,-0.20700000000000002
1748283289561422577,-0.212
1748283289569108444,-0.2
1748283289576794311,-0.195
1748283289584480178,-0.195
1748283289592166045,-0.187
1748283289599851912,-0.182
1748283289607537779,-0.18
1748283289615223646,-0.18
1748283289622909513,-0.19
1748283289630595380,-0.219
1748283289638281247,-0.209
1748283289645967114,0.113
1748283289653652981,0.785
1748283289661338848,1.355
1748283289669024715,1.311
1748283289676710582,0.355
1748283289684396449,-0.6980000000000001
1748283289692082316,-0.59
1748283289699768183,-0.051000000000000004
1748283289707454050,-0.121
1748283289715139917,-0.23900000000000002
1748283289722825784,-0.116
1748283289730511651,-0.096
1748283289738197518,-0.135
1748283289745883385,-0.088
1748283289753569252,-0.051000000000000004
1748283289761255119,-0.046
1748283289768940986,-0.017
1748283289776626853,0.019
1748283289784312720,0.044
1748283289791998587,0.074
1748283289799684454,0.111
1748283289807370321,0.148
1748283289815056188,0.187
1748283289822742107,0.227,92,646
1748283289830427974,0.259
1748283289838113841,0.28400000000000003
1748283289845799708,0.293
1748283289853485575,0.28800000000000003
1748283289861171442,0.271
1748283289868857309,0.249
1748283289876543176,0.222
1748283289884229043,0.182
1748283289891914910,0.11800000000000001
1748283289899600777,0.029
1748283289907286644,-0.069
1748283289914972511,-0.167
1748283289922658378,-0.254
1748283289930344245,-0.316
1748283289938030112,-0.353
1748283289945715979,-0.368
1748283289953401846,-0.372
1748283289961087713,-0.372
1748283289968773580,-0.363
1748283289976459447,-0.353
1748283289984145314,-0.338
1748283289991831181,-0.323
1748283289999517048,-0.311
1748283290007202915,-0.296
1748283290014888782,-0.28600000000000003
1748283290022574649,-0.274
1748283290030260516,-0.266
1748283290037946383,-0.259
1748283290045632250,-0.254
1748283290053318117,-0.246
1748283290061003984,-0.246
1748283290068689851,-0.244
1748283290076375718,-0.23900000000000002
1748283290084061585,-0.23700000000000002
1748283290091747452,-0.234
1748283290099433319,-0.234
1748283290107119186,-0.234
1748283290114805053,-0.232
1748283290122490920,-0.227
1748283290130176787,-0.227
1748283290137862654,-0.234
1748283290145548521,-0.23700000000000002
1748283290153234388,-0.227
1748283290160920255,-0.209
1748283290168606122,-0.195
1748283290176291989,-0.18
1748283290183977856,-0.165
1748283290191663723,-0.15
1748283290199349590,-0.155
1748283290207035457,-0.197
1748283290214721324,-0.219
1748283290222407191,-0.20700000000000002
1748283290230093058,-0.197
1748283290237778925,-0.197
1748283290245464792,-0.19
1748283290253150659,-0.185
1748283290260836526,-0.182
1748283290268522393,-0.182
1748283290276208260,-0.185
1748283290283894127,-0.20700000000000002
1748283290291579994,-0.23900000000000002
1748283290299265861,-0.093
1748283290306951728,0.459
1748283290314637595,1.155
1748283290322323462,1.462
1748283290330009329,0.911
1748283290337695196,-0.316
1748283290345381063,-0.8
1748283290353066930,-0.254
1748283290360752797,-0.032
1748283290368438664,-0.229
1748283290376124531,-0.18
1748283290383810454,-0.08600000000000001
1748283290391496321,-0.13
1748283290399182188,-0.123
1748283290406868055,-0.064
1748283290414553922,-0.054
1748283290422239789,-0.039
1748283290429925656,-0.002
1748283290437611523,0.027
1748283290445297390,0.051000000000000004
1748283290452983257,0.088
1748283290460669124,0.125
1748283290468354991,0.163
1748283290476040858,0.202
1748283290483726725,0.242
1748283290491412592,0.266
1748283290499098459,0.28400000000000003
1748283290506784326,0.28600000000000003
1748283290514470193,0.276
1748283290522156060,0.259
1748283290529841927,0.234
1748283290537527794,0.2
1748283290545213661,0.145
1748283290552899528,0.069
1748283290560585395,-0.024
1748283290568271262,-0.125
1748283290575957129,-0.217
1748283290583642996,-0.291
1748283290591328863,-0.34
1748283290599014730,-0.365
1748283290606700597,-0.375
1748283290614386464,-0.377
1748283290622072331,-0.37
1748283290629758198,-0.358
1748283290637444065,-0.34500000000000003
1748283290645129932,-0.33
1748283290652815799,-0.316
1748283290660501666,-0.301
1748283290668187533,-0.291
1748283290675873400,-0.281
1748283290683559267,-0.269
1748283290691245134,-0.261
1748283290698931001,-0.254
1748283290706616868,-0.249
1748283290714302735,-0.249
1748283290721988602,-0.246
1748283290729674469,-0.23900000000000002
1748283290737360336,-0.23700000000000002
1748283290745046203,-0.23900000000000002
1748283290752732070,-0.23700000000000002
1748283290760417937,-0.234
1748283290768103804,-0.229
1748283290775789671,-0.229
1748283290783475538,-0.227
1748283290791161405,-0.224
1748283290798847272,-0.229
1748283290806533139,-0.234
1748283290814219006,-0.227
1748283290821904873,-0.212
1748283290829590740,-0.192
1748283290837276607,-0.177
1748283290844962474,-0.165
1748283290852648341,-0.15
1748283290860334208,-0.155
1748283290868020075,-0.195
1748283290875705942,-0.217
1748283290883391809,-0.20500000000000002
1748283290891077676,-0.2
1748283290898763543,-0.2
1748283290906449410,-0.19
1748283290914135277,-0.185
1748283290921821144,-0.182
1748283290929507011,-0.182
1748283290937192878,-0.187
1748283290944878797,-0.20500000000000002,92,655
1748283290952564664,-0.23700000000000002,,657
1748283290960250531,-0.101
1748283290967936398,0.437
1748283290975622265,1.1360000000000001
1748283290983308132,1.476
1748283290990993999,0.9580000000000001
1748283290998679866,-0.28800000000000003
1748283291006365733,-0.8270000000000001
1748283291014051600,-0.276
1748283291021737467,-0.024
1748283291029423334,-0.229
1748283291037109201,-0.187
1748283291044795068,-0.083
1748283291052480935,-0.125
1748283291060166802,-0.121
1748283291067852669,-0.064
1748283291075538536,-0.054
1748283291083224403,-0.039
1748283291090910270,0.0
1748283291098596137,0.029
1748283291106282004,0.056
1748283291113967871,0.091
1748283291121653738,0.13
1748283291129339605,0.17
1748283291137025472,0.209
1748283291144711339,0.244
1748283291152397206,0.271
1748283291160083073,0.291
1748283291167768940,0.293
1748283291175454807,0.281
1748283291183140674,0.264
1748283291190826541,0.23900000000000002
1748283291198512408,0.20700000000000002
1748283291206198275,0.155
1748283291213884142,0.079
1748283291221570009,-0.017
1748283291229255876,-0.116
1748283291236941743,-0.209
1748283291244627610,-0.28800000000000003
1748283291252313477,-0.338
1748283291259999344,-0.36
1748283291267685211,-0.372
1748283291275371078,-0.377
1748283291283056945,-0.37
1748283291290742812,-0.36
1748283291298428679,-0.34500000000000003
1748283291306114546,-0.333
1748283291313800413,-0.321
1748283291321486280,-0.308
1748283291329172147,-0.293
1748283291336858014,-0.281
1748283291344543881,-0.271
1748283291352229748,-0.261
1748283291359915615,-0.256
1748283291367601482,-0.251
1748283291375287349,-0.246
1748283291382973216,-0.242
1748283291390659083,-0.242
1748283291398344950,-0.242
1748283291406030817,-0.23700000000000002
1748283291413716684,-0.234
1748283291421402551,-0.234
1748283291429088418,-0.234
1748283291436774285,-0.229
1748283291444460152,-0.224
1748283291452146019,-0.222
1748283291459831886,-0.224
1748283291467517753,-0.222
1748283291475203620,-0.222
1748283291482889487,-0.222
1748283291490575354,-0.212
1748283291498261221,-0.192
1748283291505947140,-0.17500000000000002
1748283291513633007,-0.165
1748283291521318874,-0.148
1748283291529004741,-0.138
1748283291536690608,-0.155
1748283291544376475,-0.192
1748283291552062342,-0.20700000000000002
1748283291559748209,-0.197
1748283291567434076,-0.19
1748283291575119943,-0.185
1748283291582805810,-0.18
1748283291590491677,-0.177
1748283291598177544,-0.167
1748283291605863411,-0.163
1748283291613549278,-0.17
1748283291621235145,-0.202
1748283291628921012,-0.219
1748283291636606879,-0.012
1748283291644292746,0.595
1748283291651978613,1.262
1748283291659664480,1.457
1748283291667350347,0.733
1748283291675036214,-0.486
1748283291682722081,-0.731
1748283291690407948,-0.14
1748283291698093815,-0.046
1748283291705779682,-0.224
1748283291713465549,-0.125
1748283291721151416,-0.066
1748283291728837283,-0.121
1748283291736523150,-0.091
1748283291744209017,-0.037
1748283291751894884,-0.034
1748283291759580751,-0.009000000000000001
1748283291767266618,0.034
1748283291774952485,0.056
1748283291782638352,0.083
1748283291790324219,0.128
1748283291798010086,0.163
1748283291805695953,0.197
1748283291813381820,0.23900000000000002
1748283291821067687,0.274
1748283291828753554,0.301
1748283291836439421,0.318
1748283291844125288,0.321
1748283291851811155,0.308
1748283291859497022,0.28600000000000003
1748283291867182889,0.259
1748283291874868756,0.232
1748283291882554623,0.182
1748283291890240490,0.093
1748283291897926357,-0.012
1748283291905612224,-0.108
1748283291913298091,-0.2
1748283291920983958,-0.281
1748283291928669825,-0.326
1748283291936355692,-0.34500000000000003
1748283291944041559,-0.358
1748283291951727426,-0.358
1748283291959413293,-0.34800000000000003
1748283291967099160,-0.34
1748283291974785027,-0.333
1748283291982470894,-0.321
1748283291990156761,-0.306
1748283291997842628,-0.28800000000000003
1748283292005528495,-0.274
1748283292013214362,-0.264
1748283292020900229,-0.259
1748283292028586096,-0.249
1748283292036271963,-0.23700000000000002
1748283292043957830,-0.229
1748283292051643697,-0.229
1748283292059329564,-0.227
1748283292067015483,-0.222,92,657
1748283292074701350,-0.219
1748283292082387217,-0.222
1748283292090073084,-0.219
1748283292097758951,-0.214
1748283292105444818,-0.217
1748283292113130685,-0.214
1748283292120816552,-0.20700000000000002
1748283292128502419,-0.202
1748283292136188286,-0.20500000000000002
1748283292143874153,-0.209
1748283292151560020,-0.209
1748283292159245887,-0.20700000000000002
1748283292166931754,-0.202
1748283292174617621,-0.182
1748283292182303488,-0.165
1748283292189989355,-0.158
1748283292197675222,-0.14300000000000002
1748283292205361089,-0.125
1748283292213046956,-0.14
1748283292220732823,-0.182
1748283292228418690,-0.197
1748283292236104557,-0.182
1748283292243790424,-0.17
1748283292251476291,-0.17
1748283292259162158,-0.17
1748283292266848025,-0.167
1748283292274533892,-0.167
1748283292282219759,-0.163
1748283292289905626,-0.158
1748283292297591493,-0.17200000000000001
1748283292305277360,-0.214
1748283292312963227,-0.10300000000000001
1748283292320649094,0.40700000000000003
1748283292328334961,1.052
1748283292336020828,1.276
1748283292343706695,0.75
1748283292351392562,-0.301
1748283292359078429,-0.731
1748283292366764296,-0.259
1748283292374450163,-0.019
1748283292382136030,-0.155
1748283292389821897,-0.11800000000000001
1748283292397507764,-0.046
1748283292405193631,-0.079
1748283292412879498,-0.066
1748283292420565365,-0.022
1748283292428251232,-0.014
1748283292435937099,0.0
1748283292443622966,0.039
1748283292451308833,0.069
1748283292458994700,0.093
1748283292466680567,0.133
1748283292474366434,0.165
1748283292482052301,0.195
1748283292489738168,0.234
1748283292497424035,0.279
1748283292505109902,0.311
1748283292512795769,0.326
1748283292520481636,0.333
1748283292528167503,0.321
1748283292535853370,0.298
1748283292543539237,0.28400000000000003
1748283292551225104,0.249
1748283292558910971,0.187
1748283292566596838,0.106
1748283292574282705,0.019
1748283292581968572,-0.074
1748283292589654439,-0.177
1748283292597340306,-0.269
1748283292605026173,-0.316
1748283292612712040,-0.338
1748283292620397907,-0.358
1748283292628083826,-0.363
1748283292635769693,-0.34500000000000003
1748283292643455560,-0.333
1748283292651141427,-0.33
1748283292658827294,-0.323
1748283292666513161,-0.308
1748283292674199028,-0.293
1748283292681884895,-0.279
1748283292689570762,-0.261
1748283292697256629,-0.259
1748283292704942496,-0.256
1748283292712628363,-0.244
1748283292720314230,-0.232
1748283292728000097,-0.232
1748283292735685964,-0.227
1748283292743371831,-0.222
1748283292751057698,-0.219
1748283292758743565,-0.214
1748283292766429432,-0.214
1748283292774115299,-0.222
1748283292781801166,-0.219
1748283292789487033,-0.219
1748283292797172900,-0.217
1748283292804858767,-0.20700000000000002
1748283292812544634,-0.214
1748283292820230501,-0.217
1748283292827916368,-0.20700000000000002
1748283292835602235,-0.202
1748283292843288102,-0.19
1748283292850973969,-0.17200000000000001
1748283292858659836,-0.155
1748283292866345703,-0.14
1748283292874031570,-0.15
1748283292881717437,-0.187
1748283292889403304,-0.209
1748283292897089171,-0.2
1748283292904775038,-0.19
1748283292912460905,-0.187
1748283292920146772,-0.182
1748283292927832639,-0.18
1748283292935518506,-0.17500000000000002
1748283292943204373,-0.17200000000000001
1748283292950890240,-0.182
1748283292958576107,-0.192
1748283292966261974,-0.219
1748283292973947841,-0.106
1748283292981633708,0.392
1748283292989319575,0.978
1748283292997005442,1.101
1748283293004691309,0.597
1748283293012377176,-0.296
1748283293020063043,-0.6940000000000001
1748283293027748910,-0.298
1748283293035434777,-0.044
1748283293043120644,-0.153
1748283293050806511,-0.138
1748283293058492378,-0.066
1748283293066178245,-0.08600000000000001
1748283293073864112,-0.081
1748283293081549979,-0.037
1748283293089235846,-0.024
1748283293096921713,-0.014
1748283293104607580,0.017
1748283293112293447,0.046
1748283293119979314,0.07100000000000001
1748283293127665181,0.10300000000000001
1748283293135351048,0.14
1748283293143036915,0.17200000000000001
1748283293150722782,0.20700000000000002
1748283293158408649,0.246
1748283293166094516,0.276
1748283293173780383,0.28800000000000003
1748283293181466250,0.291
1748283293189152169,0.281,92,661
1748283293196838036,0.261,,675
1748283293204523903,0.232
1748283293212209770,0.195
1748283293219895637,0.14300000000000002
1748283293227581504,0.069
1748283293235267371,-0.029
1748283293242953238,-0.128
1748283293250639105,-0.214
1748283293258324972,-0.28400000000000003
1748283293266010839,-0.335
1748283293273696706,-0.365
1748283293281382573,-0.372
1748283293289068440,-0.368
1748283293296754307,-0.365
1748283293304440174,-0.365
1748283293312126041,-0.355
1748283293319811908,-0.338
1748283293327497775,-0.323
1748283293335183642,-0.313
1748283293342869509,-0.301
1748283293350555376,-0.28600000000000003
1748283293358241243,-0.276
1748283293365927110,-0.271
1748283293373612977,-0.261
1748283293381298844,-0.251
1748283293388984711,-0.246
1748283293396670578,-0.244
1748283293404356445,-0.242
1748283293412042312,-0.244
1748283293419728179,-0.242
1748283293427414046,-0.23900000000000002
1748283293435099913,-0.242
1748283293442785780,-0.246
1748283293450471647,-0.244
1748283293458157514,-0.23900000000000002
1748283293465843381,-0.23700000000000002
1748283293473529248,-0.242
1748283293481215115,-0.246
1748283293488900982,-0.244
1748283293496586849,-0.234
1748283293504272716,-0.219
1748283293511958583,-0.20700000000000002
1748283293519644450,-0.197
1748283293527330317,-0.182
1748283293535016184,-0.165
1748283293542702051,-0.177
1748283293550387918,-0.214
1748283293558073785,-0.229
1748283293565759652,-0.217
1748283293573445519,-0.212
1748283293581131386,-0.209
1748283293588817253,-0.202
1748283293596503120,-0.195
1748283293604188987,-0.195
1748283293611874854,-0.195
1748283293619560721,-0.197
1748283293627246588,-0.214
1748283293634932455,-0.234
1748283293642618322,-0.034
1748283293650304189,0.54
1748283293657990056,1.1280000000000001
1748283293665675923,1.262
1748283293673361790,0.617
1748283293681047657,-0.46900000000000003
1748283293688733524,-0.713
1748283293696419391,-0.177
1748283293704105258,-0.064
1748283293711791125,-0.234
1748283293719476992,-0.163
1748283293727162859,-0.093
1748283293734848726,-0.133
1748283293742534593,-0.113
1748283293750220516,-0.064,91,678
1748283293757906383,-0.054
1748283293765592250,-0.037
1748283293773278117,0.0
1748283293780963984,0.024
1748283293788649851,0.051000000000000004
1748283293796335718,0.088
1748283293804021585,0.125
1748283293811707452,0.158
1748283293819393319,0.195
1748283293827079186,0.232
1748283293834765053,0.261
1748283293842450920,0.276
1748283293850136787,0.276
1748283293857822654,0.264
1748283293865508521,0.246
1748283293873194388,0.224
1748283293880880255,0.187
1748283293888566122,0.13
1748283293896251989,0.049
1748283293903937856,-0.046
1748283293911623723,-0.15
1748283293919309590,-0.242
1748283293926995457,-0.313
1748283293934681324,-0.355
1748283293942367191,-0.38
1748283293950053058,-0.387
1748283293957738925,-0.385
1748283293965424792,-0.375
1748283293973110659,-0.365
1748283293980796526,-0.353
1748283293988482393,-0.338
1748283293996168260,-0.328
1748283294003854127,-0.311
1748283294011539994,-0.296
1748283294019225861,-0.28400000000000003
1748283294026911728,-0.276
1748283294034597595,-0.269
1748283294042283462,-0.261
1748283294049969329,-0.254
1748283294057655196,-0.251
1748283294065341063,-0.251
1748283294073026930,-0.249
1748283294080712797,-0.244
1748283294088398664,-0.244
1748283294096084531,-0.244
1748283294103770398,-0.242
1748283294111456265,-0.23900000000000002
1748283294119142132,-0.23700000000000002
1748283294126827999,-0.232
1748283294134513866,-0.229
1748283294142199733,-0.232
1748283294149885600,-0.23700000000000002
1748283294157571467,-0.23700000000000002
1748283294165257334,-0.227
1748283294172943201,-0.212
1748283294180629068,-0.197
1748283294188314935,-0.182
1748283294196000802,-0.17
1748283294203686669,-0.158
1748283294211372536,-0.163
1748283294219058403,-0.197
1748283294226744270,-0.219
1748283294234430137,-0.209
1748283294242116004,-0.202
1748283294249801871,-0.2
1748283294257487738,-0.195
1748283294265173605,-0.187
1748283294272859472,-0.182
1748283294280545339,-0.18
1748283294288231206,-0.182
1748283294295917073,-0.202
1748283294303602940,-0.23700000000000002
1748283294311288859,-0.096
1748283294318974726,0.449
1748283294326660593,1.1480000000000001
1748283294334346460,1.484
1748283294342032327,0.978
1748283294349718194,-0.254
1748283294357404061,-0.802
1748283294365089928,-0.276
1748283294372775795,-0.029
1748283294380461662,-0.229
1748283294388147529,-0.192
1748283294395833396,-0.091
1748283294403519263,-0.135
1748283294411205130,-0.128
1748283294418890997,-0.069
1748283294426576864,-0.056
1748283294434262731,-0.044
1748283294441948598,-0.004
1748283294449634465,0.024
1748283294457320332,0.051000000000000004
1748283294465006199,0.088
1748283294472692066,0.128
1748283294480377933,0.165
1748283294488063800,0.209
1748283294495749667,0.246
1748283294503435534,0.279
1748283294511121401,0.301
1748283294518807268,0.306
1748283294526493135,0.298
1748283294534179002,0.281
1748283294541864869,0.256
1748283294549550736,0.224
1748283294557236603,0.17
1748283294564922470,0.091
1748283294572608337,-0.012
1748283294580294204,-0.121
1748283294587980071,-0.217
1748283294595665938,-0.296
1748283294603351805,-0.35000000000000003
1748283294611037672,-0.38
1748283294618723539,-0.392
1748283294626409406,-0.392
1748283294634095273,-0.385
1748283294641781140,-0.377
1748283294649467007,-0.365
1748283294657152874,-0.34800000000000003
1748283294664838741,-0.33
1748283294672524608,-0.318
1748283294680210475,-0.306
1748283294687896342,-0.293
1748283294695582209,-0.281
1748283294703268076,-0.274
1748283294710953943,-0.266
1748283294718639810,-0.259
1748283294726325677,-0.254
1748283294734011544,-0.251
1748283294741697411,-0.249
1748283294749383278,-0.246
1748283294757069145,-0.244
1748283294764755012,-0.244
1748283294772440879,-0.242
1748283294780126746,-0.23700000000000002
1748283294787812613,-0.234
1748283294795498480,-0.232
1748283294803184347,-0.227
1748283294810870214,-0.229
1748283294818556081,-0.234
1748283294826241948,-0.234
1748283294833927815,-0.227
1748283294841613682,-0.214
1748283294849299549,-0.192
1748283294856985416,-0.17500000000000002
1748283294864671283,-0.165
1748283294872357202,-0.148,91,660
1748283294880043069,-0.15,,668
1748283294887728936,-0.187
1748283294895414803,-0.212
1748283294903100670,-0.20500000000000002
1748283294910786537,-0.197
1748283294918472404,-0.2
1748283294926158271,-0.192
1748283294933844138,-0.185
1748283294941530005,-0.185
1748283294949215872,-0.182
1748283294956901739,-0.187
1748283294964587606,-0.20500000000000002
1748283294972273473,-0.246
1748283294979959340,-0.158
1748283294987645207,0.326
1748283294995331074,1.052
1748283295003016941,1.526
1748283295010702808,1.202
1748283295018388675,-0.034
1748283295026074542,-0.837
1748283295033760409,-0.387
1748283295041446276,-0.007
1748283295049132143,-0.20700000000000002
1748283295056818010,-0.219
1748283295064503877,-0.088
1748283295072189744,-0.123
1748283295079875611,-0.138
1748283295087561478,-0.079
1748283295095247345,-0.059000000000000004
1748283295102933212,-0.049
1748283295110619079,-0.009000000000000001
1748283295118304946,0.022
1748283295125990813,0.046
1748283295133676680,0.083
1748283295141362547,0.125
1748283295149048414,0.163
1748283295156734281,0.2
1748283295164420148,0.242
1748283295172106015,0.276
1748283295179791882,0.298
1748283295187477749,0.306
1748283295195163616,0.301
1748283295202849483,0.28600000000000003
1748283295210535350,0.264
1748283295218221217,0.232
1748283295225907084,0.182
1748283295233592951,0.106
1748283295241278818,0.009000000000000001
1748283295248964685,-0.096
1748283295256650552,-0.2
1748283295264336419,-0.28400000000000003
1748283295272022286,-0.34
1748283295279708153,-0.372
1748283295287394020,-0.392
1748283295295079887,-0.395
1748283295302765754,-0.385
1748283295310451621,-0.375
1748283295318137488,-0.365
1748283295325823355,-0.353
1748283295333509222,-0.335
1748283295341195089,-0.321
1748283295348880956,-0.306
1748283295356566823,-0.293
1748283295364252690,-0.281
1748283295371938557,-0.271
1748283295379624424,-0.261
1748283295387310291,-0.256
1748283295394996158,-0.251
1748283295402682025,-0.249
1748283295410367892,-0.244
1748283295418053759,-0.244
1748283295425739626,-0.244
1748283295433425545,-0.244
1748283295441111412,-0.242
1748283295448797279,-0.23900000000000002
1748283295456483146,-0.234
1748283295464169013,-0.232
1748283295471854880,-0.232
1748283295479540747,-0.229
1748283295487226614,-0.232
1748283295494912481,-0.234
1748283295502598348,-0.232
1748283295510284215,-0.217
1748283295517970082,-0.195
1748283295525655949,-0.177
1748283295533341816,-0.165
1748283295541027683,-0.153
1748283295548713550,-0.155
1748283295556399417,-0.19
1748283295564085284,-0.217
1748283295571771151,-0.209
1748283295579457018,-0.2
1748283295587142885,-0.197
1748283295594828752,-0.19
1748283295602514619,-0.185
1748283295610200486,-0.182
1748283295617886353,-0.177
1748283295625572220,-0.18
1748283295633258087,-0.197
1748283295640943954,-0.23900000000000002
1748283295648629821,-0.18
1748283295656315688,0.259
1748283295664001555,0.987
1748283295671687422,1.516
1748283295679373289,1.284
1748283295687059156,0.076
1748283295694745023,-0.837
1748283295702430890,-0.447
1748283295710116757,-0.004
1748283295717802624,-0.187
1748283295725488491,-0.224
1748283295733174358,-0.088
1748283295740860225,-0.116
1748283295748546092,-0.14
1748283295756231959,-0.076
1748283295763917826,-0.051000000000000004
1748283295771603693,-0.049
1748283295779289560,-0.014
1748283295786975427,0.022
1748283295794661294,0.046
1748283295802347161,0.083
1748283295810033028,0.123
1748283295817718895,0.158
1748283295825404762,0.2
1748283295833090629,0.244
1748283295840776496,0.276
1748283295848462363,0.298
1748283295856148230,0.311
1748283295863834097,0.308
1748283295871519964,0.291
1748283295879205831,0.269
1748283295886891698,0.23700000000000002
1748283295894577565,0.192
1748283295902263432,0.121
1748283295909949299,0.024
1748283295917635166,-0.079
1748283295925321033,-0.18
1748283295933006900,-0.266
1748283295940692767,-0.33
1748283295948378634,-0.365
1748283295956064501,-0.38
1748283295963750368,-0.382
1748283295971436235,-0.38
1748283295979122102,-0.37
1748283295986807969,-0.358
1748283295994493888,-0.343,91,671
1748283296002179755,-0.328
1748283296009865622,-0.313
1748283296017551489,-0.301
1748283296025237356,-0.291
1748283296032923223,-0.276
1748283296040609090,-0.266
1748283296048294957,-0.261
1748283296055980824,-0.254
1748283296063666691,-0.249
1748283296071352558,-0.244
1748283296079038425,-0.244
1748283296086724292,-0.242
1748283296094410159,-0.242
1748283296102096026,-0.23900000000000002
1748283296109781893,-0.23700000000000002
1748283296117467760,-0.234
1748283296125153627,-0.234
1748283296132839494,-0.229
1748283296140525361,-0.227
1748283296148211228,-0.232
1748283296155897095,-0.234
1748283296163582962,-0.227
1748283296171268829,-0.212
1748283296178954696,-0.192
1748283296186640563,-0.177
1748283296194326430,-0.165
1748283296202012297,-0.15
1748283296209698164,-0.153
1748283296217384031,-0.19
1748283296225069898,-0.214
1748283296232755765,-0.20700000000000002
1748283296240441632,-0.197
1748283296248127499,-0.195
1748283296255813366,-0.19
1748283296263499233,-0.185
1748283296271185100,-0.18
1748283296278870967,-0.177
1748283296286556834,-0.177
1748283296294242701,-0.192
1748283296301928568,-0.234
1748283296309614435,-0.155
1748283296317300302,0.313
1748283296324986169,1.039
1748283296332672036,1.5230000000000001
1748283296340357903,1.215
1748283296348043770,-0.014
1748283296355729637,-0.842
1748283296363415504,-0.405
1748283296371101371,-0.004
1748283296378787238,-0.192
1748283296386473105,-0.209
1748283296394158972,-0.081
1748283296401844839,-0.113
1748283296409530706,-0.13
1748283296417216573,-0.069
1748283296424902440,-0.046
1748283296432588307,-0.039
1748283296440274174,-0.002
1748283296447960041,0.034
1748283296455645908,0.059000000000000004
1748283296463331775,0.093
1748283296471017642,0.135
1748283296478703509,0.177
1748283296486389376,0.219
1748283296494075243,0.251
1748283296501761110,0.28400000000000003
1748283296509446977,0.313
1748283296517132844,0.323
1748283296524818711,0.313
1748283296532504578,0.301
1748283296540190445,0.281
1748283296547876312,0.249
1748283296555562231,0.197
1748283296563248098,0.125
1748283296570933965,0.034
1748283296578619832,-0.07100000000000001
1748283296586305699,-0.18
1748283296593991566,-0.264
1748283296601677433,-0.321
1748283296609363300,-0.355
1748283296617049167,-0.372
1748283296624735034,-0.375
1748283296632420901,-0.365
1748283296640106768,-0.355
1748283296647792635,-0.34800000000000003
1748283296655478502,-0.333
1748283296663164369,-0.311
1748283296670850236,-0.296
1748283296678536103,-0.28800000000000003
1748283296686221970,-0.279
1748283296693907837,-0.266
1748283296701593704,-0.256
1748283296709279571,-0.249
1748283296716965438,-0.23900000000000002
1748283296724651305,-0.234
1748283296732337172,-0.234
1748283296740023039,-0.234
1748283296747708906,-0.227
1748283296755394773,-0.224
1748283296763080640,-0.224
1748283296770766507,-0.222
1748283296778452374,-0.222
1748283296786138241,-0.222
1748283296793824108,-0.217
1748283296801509975,-0.222
1748283296809195842,-0.227
1748283296816881709,-0.214
1748283296824567576,-0.20700000000000002
1748283296832253443,-0.197
1748283296839939310,-0.17500000000000002
1748283296847625177,-0.158
1748283296855311044,-0.15
1748283296862996911,-0.148
1748283296870682778,-0.17500000000000002
1748283296878368645,-0.2
1748283296886054512,-0.192
1748283296893740379,-0.187
1748283296901426246,-0.19
1748283296909112113,-0.177
1748283296916797980,-0.17
1748283296924483847,-0.17200000000000001
1748283296932169714,-0.17500000000000002
1748283296939855581,-0.17200000000000001
1748283296947541448,-0.17500000000000002
1748283296955227315,-0.20700000000000002
1748283296962913182,-0.195
1748283296970599049,0.135
1748283296978284916,0.8
1748283296985970783,1.296
1748283296993656650,1.1480000000000001
1748283297001342517,0.209
1748283297009028384,-0.7010000000000001
1748283297016714251,-0.533
1748283297024400118,-0.041
1748283297032085985,-0.101
1748283297039771852,-0.19
1748283297047457719,-0.076
1748283297055143586,-0.066
1748283297062829453,-0.101
1748283297070515320,-0.056
1748283297078201187,-0.024
1748283297085887054,-0.017
1748283297093572921,0.014
1748283297101258788,0.049
1748283297108944655,0.07100000000000001
1748283297116630578,0.101,90,670
1748283297124316445,0.138,,669
1748283297132002312,0.18
1748283297139688179,0.219
1748283297147374046,0.256
1748283297155059913,0.28800000000000003
1748283297162745780,0.318
1748283297170431647,0.33
1748283297178117514,0.328
1748283297185803381,0.316
1748283297193489248,0.296
1748283297201175115,0.264
1748283297208860982,0.217
1748283297216546849,0.148
1748283297224232716,0.051000000000000004
1748283297231918583,-0.056
1748283297239604450,-0.155
1748283297247290317,-0.232
1748283297254976184,-0.298
1748283297262662051,-0.34800000000000003
1748283297270347918,-0.358
1748283297278033785,-0.353
1748283297285719652,-0.36
1748283297293405519,-0.365
1748283297301091386,-0.353
1748283297308777253,-0.335
1748283297316463120,-0.316
1748283297324148987,-0.303
1748283297331834854,-0.293
1748283297339520721,-0.276
1748283297347206588,-0.264
1748283297354892455,-0.261
1748283297362578322,-0.256
1748283297370264189,-0.246
1748283297377950056,-0.234
1748283297385635923,-0.222
1748283297393321790,-0.219
1748283297401007657,-0.227
1748283297408693524,-0.227
1748283297416379391,-0.219
1748283297424065258,-0.222
1748283297431751125,-0.219
1748283297439436992,-0.219
1748283297447122859,-0.232
1748283297454808726,-0.232
1748283297462494593,-0.219
1748283297470180460,-0.209
1748283297477866327,-0.197
1748283297485552194,-0.19
1748283297493238061,-0.177
1748283297500923928,-0.158
1748283297508609795,-0.153
1748283297516295662,-0.177
1748283297523981529,-0.209
1748283297531667396,-0.214
1748283297539353263,-0.20700000000000002
1748283297547039130,-0.197
1748283297554724997,-0.195
1748283297562410864,-0.192
1748283297570096731,-0.187
1748283297577782598,-0.182
1748283297585468465,-0.18
1748283297593154332,-0.19
1748283297600840199,-0.234
1748283297608526066,-0.20500000000000002
1748283297616211933,0.187
1748283297623897800,0.834
1748283297631583667,1.1480000000000001
1748283297639269534,0.8290000000000001
1748283297646955401,-0.029
1748283297654641268,-0.686
1748283297662327135,-0.454
1748283297670013002,-0.069
1748283297677698921,-0.125
1748283297685385206,-0.167
1748283297693071491,-0.081
1748283297700757776,-0.08600000000000001
1748283297708444061,-0.101
1748283297716130346,-0.056
1748283297723816631,-0.034
1748283297731502916,-0.032
1748283297739189201,-0.004
1748283297746875486,0.029
1748283297754561771,0.051000000000000004
1748283297762248056,0.081
1748283297769934341,0.11800000000000001
1748283297777620626,0.155
1748283297785306911,0.19
1748283297792993196,0.227
1748283297800679481,0.261
1748283297808365766,0.279
1748283297816052051,0.28400000000000003
1748283297823738336,0.279
1748283297831424621,0.261
1748283297839110906,0.23700000000000002
1748283297846797191,0.202
1748283297854483476,0.155
1748283297862169761,0.083
1748283297869856046,-0.009000000000000001
1748283297877542331,-0.108
1748283297885228616,-0.2
1748283297892914901,-0.279
1748283297900601186,-0.333
1748283297908287471,-0.363
1748283297915973756,-0.377
1748283297923660041,-0.38
1748283297931346326,-0.377
1748283297939032611,-0.368
1748283297946718896,-0.358
1748283297954405181,-0.34800000000000003
1748283297962091466,-0.335
1748283297969777751,-0.321
1748283297977464036,-0.306
1748283297985150321,-0.293
1748283297992836606,-0.281
1748283298000522891,-0.276
1748283298008209176,-0.269
1748283298015895461,-0.256
1748283298023581746,-0.251
1748283298031268031,-0.249
1748283298038954316,-0.244
1748283298046640601,-0.242
1748283298054326886,-0.242
1748283298062013171,-0.242
1748283298069699456,-0.242
1748283298077385741,-0.23900000000000002
1748283298085072026,-0.23900000000000002
1748283298092758311,-0.244
1748283298100444596,-0.254
1748283298108130881,-0.254
1748283298115817166,-0.244
1748283298123503451,-0.229
1748283298131189736,-0.219
1748283298138876021,-0.209
1748283298146562306,-0.195
1748283298154248591,-0.17500000000000002
1748283298161934876,-0.182
1748283298169621161,-0.222
1748283298177307446,-0.23900000000000002
1748283298184993731,-0.227
1748283298192680016,-0.222
1748283298200366301,-0.222
1748283298208052586,-0.212
1748283298215738871,-0.20500000000000002
1748283298223425156,-0.202
1748283298231111441,-0.20500000000000002
1748283298238797782,-0.20700000000000002,90,660
1748283298246483649,-0.227
1748283298254169516,-0.23700000000000002
1748283298261855383,-0.017
1748283298269541250,0.5750000000000001
1748283298277227117,1.163
1748283298284912984,1.262
1748283298292598851,0.56
1748283298300284718,-0.518
1748283298307970585,-0.7030000000000001
1748283298315656452,-0.163
1748283298323342319,-0.079
1748283298331028186,-0.242
1748283298338714053,-0.16
1748283298346399920,-0.101
1748283298354085787,-0.145
1748283298361771654,-0.11800000000000001
1748283298369457521,-0.07100000000000001
1748283298377143388,-0.064
1748283298384829255,-0.044
1748283298392515122,-0.007
1748283298400200989,0.022
1748283298407886856,0.049
1748283298415572723,0.083
1748283298423258590,0.121
1748283298430944457,0.155
1748283298438630324,0.197
1748283298446316191,0.232
1748283298454002058,0.259
1748283298461687925,0.274
1748283298469373792,0.276
1748283298477059659,0.266
1748283298484745526,0.246
1748283298492431393,0.219
1748283298500117260,0.182
1748283298507803127,0.125
1748283298515488994,0.041
1748283298523174861,-0.056
1748283298530860728,-0.158
1748283298538546595,-0.246
1748283298546232462,-0.316
1748283298553918329,-0.36
1748283298561604196,-0.38
1748283298569290063,-0.385
1748283298576975930,-0.382
1748283298584661797,-0.377
1748283298592347664,-0.368
1748283298600033531,-0.353
1748283298607719398,-0.338
1748283298615405265,-0.326
1748283298623091132,-0.313
1748283298630776999,-0.298
1748283298638462866,-0.28600000000000003
1748283298646148733,-0.276
1748283298653834600,-0.266
1748283298661520467,-0.256
1748283298669206334,-0.251
1748283298676892201,-0.249
1748283298684578068,-0.246
1748283298692263935,-0.244
1748283298699949802,-0.244
1748283298707635669,-0.242
1748283298715321536,-0.23700000000000002
1748283298723007403,-0.23900000000000002
1748283298730693270,-0.23700000000000002
1748283298738379137,-0.234
1748283298746065004,-0.23900000000000002
1748283298753750871,-0.244
1748283298761436738,-0.23700000000000002
1748283298769122605,-0.219
1748283298776808472,-0.20700000000000002
1748283298784494339,-0.195
1748283298792180206,-0.182
1748283298799866125,-0.163,90,654
1748283298807551992,-0.163,,644
1748283298815237859,-0.195
1748283298822923726,-0.222
1748283298830609593,-0.214
1748283298838295460,-0.20500000000000002
1748283298845981327,-0.20500000000000002
1748283298853667194,-0.197
1748283298861353061,-0.192
1748283298869038928,-0.19
1748283298876724795,-0.187
1748283298884410662,-0.192
1748283298892096529,-0.212
1748283298899782396,-0.244
1748283298907468263,-0.113
1748283298915154130,0.424
1748283298922839997,1.1260000000000001
1748283298930525864,1.469
1748283298938211731,0.997
1748283298945897598,-0.212
1748283298953583465,-0.802
1748283298961269332,-0.298
1748283298968955199,-0.022
1748283298976641066,-0.222
1748283298984326933,-0.197
1748283298992012800,-0.091
1748283298999698667,-0.13
1748283299007384534,-0.133
1748283299015070401,-0.074
1748283299022756268,-0.059000000000000004
1748283299030442135,-0.046
1748283299038128002,-0.007
1748283299045813869,0.022
1748283299053499736,0.049
1748283299061185603,0.088
1748283299068871470,0.128
1748283299076557337,0.165
1748283299084243204,0.209
1748283299091929071,0.249
1748283299099614938,0.279
1748283299107300805,0.298
1748283299114986672,0.301
1748283299122672539,0.291
1748283299130358406,0.276
1748283299138044273,0.254
1748283299145730140,0.219
1748283299153416007,0.167
1748283299161101874,0.08600000000000001
1748283299168787741,-0.014
1748283299176473608,-0.11800000000000001
1748283299184159475,-0.217
1748283299191845342,-0.296
1748283299199531209,-0.34800000000000003
1748283299207217076,-0.377
1748283299214902943,-0.387
1748283299222588810,-0.387
1748283299230274677,-0.377
1748283299237960544,-0.37
1748283299245646411,-0.358
1748283299253332278,-0.34500000000000003
1748283299261018145,-0.326
1748283299268704012,-0.311
1748283299276389879,-0.298
1748283299284075746,-0.28600000000000003
1748283299291761613,-0.274
1748283299299447480,-0.264
1748283299307133347,-0.256
1748283299314819214,-0.254
1748283299322505081,-0.251
1748283299330190948,-0.249
1748283299337876815,-0.244
1748283299345562682,-0.242
1748283299353248549,-0.242
1748283299360934468,-0.242
1748283299368620335,-0.23900000000000002
1748283299376306202,-0.23700000000000002
1748283299383992069,-0.234
1748283299391677936,-0.23700000000000002
1748283299399363803,-0.242
1748283299407049670,-0.23700000000000002
1748283299414735537,-0.224
1748283299422421404,-0.20700000000000002
1748283299430107271,-0.195
1748283299437793138,-0.182
1748283299445479005,-0.165
1748283299453164872,-0.158
1748283299460850739,-0.187
1748283299468536606,-0.222
1748283299476222473,-0.219
1748283299483908340,-0.20500000000000002
1748283299491594207,-0.20500000000000002
1748283299499280074,-0.2
1748283299506965941,-0.195
1748283299514651808,-0.192
1748283299522337675,-0.187
1748283299530023542,-0.19
1748283299537709409,-0.20700000000000002
1748283299545395276,-0.246
1748283299553081143,-0.212
1748283299560767010,0.182
1748283299568452877,0.901
1748283299576138744,1.464
1748283299583824611,1.326
1748283299591510478,0.222
1748283299599196345,-0.787
1748283299606882212,-0.526
1748283299614568079,-0.027
1748283299622253946,-0.165
1748283299629939813,-0.244
1748283299637625680,-0.106
1748283299645311547,-0.113
1748283299652997414,-0.148
1748283299660683281,-0.091
1748283299668369148,-0.061
1748283299676055015,-0.059000000000000004
1748283299683740882,-0.024
1748283299691426749,0.009000000000000001
1748283299699112616,0.034
1748283299706798483,0.069
1748283299714484350,0.113
1748283299722170217,0.15
1748283299729856084,0.187
1748283299737541951,0.229
1748283299745227818,0.264
1748283299752913685,0.28800000000000003
1748283299760599552,0.298
1748283299768285419,0.293
1748283299775971286,0.281
1748283299783657153,0.261
1748283299791343020,0.229
1748283299799028887,0.185
1748283299806714754,0.113
1748283299814400621,0.017
1748283299822086488,-0.088
1748283299829772355,-0.19
1748283299837458222,-0.274
1748283299845144089,-0.338
1748283299852829956,-0.372
1748283299860515823,-0.39
1748283299868201690,-0.395
1748283299875887557,-0.39
1748283299883573424,-0.377
1748283299891259291,-0.368
1748283299898945158,-0.358
1748283299906631025,-0.34
1748283299914316892,-0.323
1748283299922002811,-0.308,91,649
1748283299929688678,-0.298
1748283299937374545,-0.28800000000000003
1748283299945060412,-0.276
1748283299952746279,-0.266
1748283299960432146,-0.264
1748283299968118013,-0.259
1748283299975803880,-0.254
1748283299983489747,-0.251
1748283299991175614,-0.251
1748283299998861481,-0.251
1748283300006547348,-0.249
1748283300014233215,-0.249
1748283300021919082,-0.244
1748283300029604949,-0.23900000000000002
1748283300037290816,-0.242
1748283300044976683,-0.249
1748283300052662550,-0.251
1748283300060348417,-0.23900000000000002
1748283300068034284,-0.222
1748283300075720151,-0.20500000000000002
1748283300083406018,-0.192
1748283300091091885,-0.177
1748283300098777752,-0.16
1748283300106463619,-0.17500000000000002
1748283300114149486,-0.219
1748283300121835353,-0.23700000000000002
1748283300129521220,-0.219
1748283300137207087,-0.212
1748283300144892954,-0.212
1748283300152578821,-0.20500000000000002
1748283300160264688,-0.197
1748283300167950555,-0.195
1748283300175636422,-0.195
1748283300183322289,-0.202
1748283300191008156,-0.229
1748283300198694023,-0.261
1748283300206379890,-0.101
1748283300214065757,0.47900000000000004
1748283300221751624,1.2
1748283300229437491,1.5230000000000001
1748283300237123358,0.931
1748283300244809225,-0.363
1748283300252495092,-0.8320000000000001
1748283300260180959,-0.246
1748283300267866826,-0.044
1748283300275552693,-0.251
1748283300283238560,-0.192
1748283300290924427,-0.101
1748283300298610294,-0.148
1748283300306296161,-0.135
1748283300313982028,-0.079
1748283300321667895,-0.07100000000000001
1748283300329353762,-0.056
1748283300337039629,-0.014
1748283300344725496,0.014
1748283300352411363,0.041
1748283300360097230,0.081
1748283300367783097,0.121
1748283300375468964,0.16
1748283300383154831,0.197
1748283300390840698,0.23700000000000002
1748283300398526565,0.266
1748283300406212432,0.28400000000000003
1748283300413898299,0.28600000000000003
1748283300421584166,0.276
1748283300429270033,0.261
1748283300436955900,0.23900000000000002
1748283300444641767,0.20500000000000002
1748283300452327634,0.148
1748283300460013501,0.064
1748283300467699368,-0.032
1748283300475385235,-0.135
1748283300483071158,-0.232
1748283300490757025,-0.311
1748283300498442892,-0.358
1748283300506128759,-0.38
1748283300513814626,-0.392
1748283300521500493,-0.395
1748283300529186360,-0.387
1748283300536872227,-0.375
1748283300544558094,-0.363
1748283300552243961,-0.34800000000000003
1748283300559929828,-0.333
1748283300567615695,-0.321
1748283300575301562,-0.303
1748283300582987429,-0.291
1748283300590673296,-0.28400000000000003
1748283300598359163,-0.276
1748283300606045030,-0.269
1748283300613730897,-0.261
1748283300621416764,-0.256
1748283300629102631,-0.254
1748283300636788498,-0.251
1748283300644474365,-0.246
1748283300652160232,-0.242
1748283300659846099,-0.23900000000000002
1748283300667531966,-0.234
1748283300675217833,-0.232
1748283300682903700,-0.232
1748283300690589567,-0.234
1748283300698275434,-0.23700000000000002
1748283300705961301,-0.234
1748283300713647168,-0.224
1748283300721333035,-0.20700000000000002
1748283300729018902,-0.187
1748283300736704769,-0.17200000000000001
1748283300744390636,-0.155
1748283300752076503,-0.145
1748283300759762370,-0.17200000000000001
1748283300767448237,-0.209
1748283300775134104,-0.212
1748283300782819971,-0.197
1748283300790505838,-0.192
1748283300798191705,-0.19
1748283300805877572,-0.185
1748283300813563439,-0.177
1748283300821249306,-0.167
1748283300828935173,-0.167
1748283300836621040,-0.185
1748283300844306907,-0.219
1748283300851992774,-0.217
1748283300859678641,0.091
1748283300867364508,0.77
1748283300875050375,1.355
1748283300882736242,1.326
1748283300890422109,0.39
1748283300898107976,-0.679
1748283300905793843,-0.602
1748283300913479710,-0.054
1748283300921165577,-0.096
1748283300928851444,-0.214
1748283300936537311,-0.101
1748283300944223178,-0.08600000000000001
1748283300951909045,-0.123
1748283300959594912,-0.074
1748283300967280779,-0.029
1748283300974966646,-0.027
1748283300982652513,-0.009000000000000001
1748283300990338380,0.029
1748283300998024247,0.064
1748283301005710114,0.096
1748283301013395981,0.133
1748283301021081848,0.167
1748283301028767715,0.20500000000000002
1748283301036453582,0.244
1748283301044139501,0.28800000000000003,91,648
1748283301051825368,0.313,,648
1748283301059511235,0.321
1748283301067197102,0.321
1748283301074882969,0.308
1748283301082568836,0.291
1748283301090254703,0.271
1748283301097940570,0.224
1748283301105626437,0.148
1748283301113312304,0.056
1748283301120998171,-0.041
1748283301128684038,-0.14
1748283301136369905,-0.229
1748283301144055772,-0.301
1748283301151741639,-0.343
1748283301159427506,-0.355
1748283301167113373,-0.36
1748283301174799240,-0.363
1748283301182485107,-0.36
1748283301190170974,-0.343
1748283301197856841,-0.326
1748283301205542708,-0.316
1748283301213228575,-0.298
1748283301220914442,-0.28400000000000003
1748283301228600309,-0.279
1748283301236286176,-0.269
1748283301243972043,-0.246
1748283301251657910,-0.23900000000000002
1748283301259343777,-0.23900000000000002
1748283301267029644,-0.23900000000000002
1748283301274715511,-0.229
1748283301282401378,-0.219
1748283301290087245,-0.217
1748283301297773112,-0.214
1748283301305458979,-0.219
1748283301313144846,-0.222
1748283301320830713,-0.214
1748283301328516580,-0.212
1748283301336202447,-0.222
1748283301343888314,-0.227
1748283301351574181,-0.209
1748283301359260048,-0.192
1748283301366945915,-0.185
1748283301374631782,-0.177
1748283301382317649,-0.158
1748283301390003516,-0.14
1748283301397689383,-0.158
1748283301405375250,-0.202
1748283301413061117,-0.214
1748283301420746984,-0.2
1748283301428432851,-0.195
1748283301436118718,-0.19
1748283301443804585,-0.18
1748283301451490452,-0.18
1748283301459176319,-0.18
1748283301466862186,-0.17200000000000001
1748283301474548053,-0.177
1748283301482233920,-0.2
1748283301489919787,-0.227
1748283301497605654,-0.066
1748283301505291521,0.493
1748283301512977388,1.076
1748283301520663255,1.1380000000000001
1748283301528349122,0.538
1748283301536034989,-0.39
1748283301543720856,-0.664
1748283301551406723,-0.214
1748283301559092590,-0.044
1748283301566778457,-0.167
1748283301574464324,-0.116
1748283301582150191,-0.051000000000000004
1748283301589836058,-0.088
1748283301597521925,-0.076
1748283301605207844,-0.032
1748283301612893711,-0.017
1748283301620579578,0.0
1748283301628265445,0.032
1748283301635951312,0.059000000000000004
1748283301643637179,0.088
1748283301651323046,0.11800000000000001
1748283301659008913,0.15
1748283301666694780,0.192
1748283301674380647,0.234
1748283301682066514,0.269
1748283301689752381,0.296
1748283301697438248,0.311
1748283301705124115,0.311
1748283301712809982,0.296
1748283301720495849,0.276
1748283301728181716,0.249
1748283301735867583,0.209
1748283301743553450,0.148
1748283301751239317,0.066
1748283301758925184,-0.034
1748283301766611051,-0.135
1748283301774296918,-0.224
1748283301781982785,-0.293
1748283301789668652,-0.34
1748283301797354519,-0.365
1748283301805040386,-0.375
1748283301812726253,-0.375
1748283301820412120,-0.365
1748283301828097987,-0.355
1748283301835783854,-0.34800000000000003
1748283301843469721,-0.335
1748283301851155588,-0.321
1748283301858841455,-0.306
1748283301866527322,-0.293
1748283301874213189,-0.28600000000000003
1748283301881899056,-0.279
1748283301889584923,-0.269
1748283301897270790,-0.259
1748283301904956657,-0.251
1748283301912642524,-0.249
1748283301920328391,-0.246
1748283301928014258,-0.242
1748283301935700125,-0.23900000000000002
1748283301943385992,-0.23700000000000002
1748283301951071859,-0.23700000000000002
1748283301958757726,-0.23700000000000002
1748283301966443593,-0.23700000000000002
1748283301974129460,-0.23900000000000002
1748283301981815327,-0.246
1748283301989501194,-0.244
1748283301997187061,-0.234
1748283302004872928,-0.219
1748283302012558795,-0.209
1748283302020244662,-0.197
1748283302027930529,-0.18
1748283302035616396,-0.167
1748283302043302263,-0.195
1748283302050988130,-0.232
1748283302058673997,-0.23900000000000002
1748283302066359864,-0.227
1748283302074045731,-0.222
1748283302081731598,-0.219
1748283302089417465,-0.214
1748283302097103332,-0.209
1748283302104789199,-0.20700000000000002
1748283302112475066,-0.209
1748283302120160933,-0.214
1748283302127846800,-0.242
1748283302135532667,-0.219
1748283302143218534,0.113
1748283302150904401,0.76
1748283302158590268,1.237
1748283302166276187,1.113,91,649
1748283302173962054,0.20500000000000002
1748283302181647921,-0.718
1748283302189333788,-0.5750000000000001
1748283302197019655,-0.08600000000000001
1748283302204705522,-0.145
1748283302212391389,-0.23900000000000002
1748283302220077256,-0.13
1748283302227763123,-0.11800000000000001
1748283302235448990,-0.15
1748283302243134857,-0.108
1748283302250820724,-0.076
1748283302258506591,-0.069
1748283302266192458,-0.039
1748283302273878325,-0.004
1748283302281564192,0.019
1748283302289250059,0.051000000000000004
1748283302296935926,0.088
1748283302304621793,0.123
1748283302312307660,0.163
1748283302319993527,0.202
1748283302327679394,0.234
1748283302335365261,0.256
1748283302343051128,0.266
1748283302350736995,0.261
1748283302358422862,0.246
1748283302366108729,0.229
1748283302373794596,0.2
1748283302381480463,0.158
1748283302389166330,0.088
1748283302396852197,0.0
1748283302404538064,-0.098
1748283302412223931,-0.197
1748283302419909798,-0.279
1748283302427595665,-0.338
1748283302435281532,-0.375
1748283302442967399,-0.39
1748283302450653266,-0.39
1748283302458339133,-0.387
1748283302466025000,-0.377
1748283302473710867,-0.368
1748283302481396734,-0.353
1748283302489082601,-0.335
1748283302496768468,-0.321
1748283302504454335,-0.308
1748283302512140202,-0.296
1748283302519826069,-0.28400000000000003
1748283302527511936,-0.276
1748283302535197803,-0.269
1748283302542883670,-0.261
1748283302550569537,-0.256
1748283302558255404,-0.254
1748283302565941271,-0.251
1748283302573627138,-0.251
1748283302581313005,-0.249
1748283302588998872,-0.249
1748283302596684739,-0.246
1748283302604370606,-0.244
1748283302612056473,-0.242
1748283302619742340,-0.246
1748283302627428207,-0.251
1748283302635114074,-0.246
1748283302642799941,-0.234
1748283302650485808,-0.219
1748283302658171675,-0.20700000000000002
1748283302665857542,-0.195
1748283302673543409,-0.17500000000000002
1748283302681229276,-0.165
1748283302688915143,-0.197
1748283302696601010,-0.232
1748283302704286877,-0.232
1748283302711972744,-0.219
1748283302719658611,-0.217
1748283302727344530,-0.212
1748283302735030397,-0.20700000000000002
1748283302742716264,-0.202
1748283302750402131,-0.197
1748283302758087998,-0.2
1748283302765773865,-0.212
1748283302773459732,-0.249
1748283302781145599,-0.20700000000000002
1748283302788831466,0.17200000000000001
1748283302796517333,0.881
1748283302804203200,1.469
1748283302811889067,1.3900000000000001
1748283302819574934,0.296
1748283302827260801,-0.785
1748283302834946668,-0.5700000000000001
1748283302842632535,-0.046
1748283302850318402,-0.17500000000000002
1748283302858004269,-0.269
1748283302865690136,-0.128
1748283302873376003,-0.128
1748283302881061870,-0.165
1748283302888747737,-0.111
1748283302896433604,-0.076
1748283302904119471,-0.074
1748283302911805338,-0.039
1748283302919491205,0.0
1748283302927177072,0.024
1748283302934862939,0.059000000000000004
1748283302942548806,0.101
1748283302950234673,0.138
1748283302957920540,0.177
1748283302965606407,0.219
1748283302973292274,0.254
1748283302980978141,0.279
1748283302988664008,0.28800000000000003
1748283302996349875,0.28600000000000003
1748283303004035742,0.271
1748283303011721609,0.251
1748283303019407476,0.222
1748283303027093343,0.177
1748283303034779210,0.108
1748283303042465077,0.012
1748283303050150944,-0.091
1748283303057836811,-0.192
1748283303065522678,-0.281
1748283303073208545,-0.34500000000000003
1748283303080894412,-0.38
1748283303088580279,-0.395
1748283303096266146,-0.4
1748283303103952013,-0.395
1748283303111637880,-0.385
1748283303119323747,-0.372
1748283303127009614,-0.358
1748283303134695481,-0.34
1748283303142381348,-0.326
1748283303150067215,-0.313
1748283303157753082,-0.301
1748283303165438949,-0.291
1748283303173124816,-0.281
1748283303180810683,-0.274
1748283303188496550,-0.269
1748283303196182417,-0.264
1748283303203868284,-0.259
1748283303211554151,-0.256
1748283303219240018,-0.256
1748283303226925885,-0.254
1748283303234611752,-0.251
1748283303242297619,-0.249
1748283303249983486,-0.246
1748283303257669353,-0.244
1748283303265355220,-0.249
1748283303273041087,-0.254
1748283303280726954,-0.249
1748283303288412873,-0.23700000000000002,92,650
1748283303296098740,-0.219,,640
1748283303303784607,-0.20500000000000002
1748283303311470474,-0.192
1748283303319156341,-0.17200000000000001
1748283303326842208,-0.167
1748283303334528075,-0.2
1748283303342213942,-0.234
1748283303349899809,-0.232
1748283303357585676,-0.219
1748283303365271543,-0.217
1748283303372957410,-0.212
1748283303380643277,-0.20500000000000002
1748283303388329144,-0.202
1748283303396015011,-0.197
1748283303403700878,-0.202
1748283303411386745,-0.217
1748283303419072612,-0.259
1748283303426758479,-0.224
1748283303434444346,0.16
1748283303442130213,0.886
1748283303449816080,1.5010000000000001
1748283303457501947,1.435
1748283303465187814,0.316
1748283303472873681,-0.797
1748283303480559548,-0.58
1748283303488245415,-0.041
1748283303495931282,-0.17200000000000001
1748283303503617149,-0.269
1748283303511303016,-0.125
1748283303518988883,-0.125
1748283303526674750,-0.165
1748283303534360617,-0.108
1748283303542046484,-0.074
1748283303549732351,-0.074
1748283303557418218,-0.039
1748283303565104085,0.0
1748283303572789952,0.024
1748283303580475819,0.059000000000000004
1748283303588161686,0.101
1748283303595847553,0.14
1748283303603533420,0.18
1748283303611219287,0.222
1748283303618905154,0.256
1748283303626591021,0.281
1748283303634276888,0.291
1748283303641962755,0.28800000000000003
1748283303649648622,0.276
1748283303657334489,0.254
1748283303665020356,0.224
1748283303672706223,0.18
1748283303680392090,0.108
1748283303688077957,0.014
1748283303695763824,-0.088
1748283303703449691,-0.19
1748283303711135558,-0.276
1748283303718821425,-0.343
1748283303726507292,-0.38
1748283303734193159,-0.392
1748283303741879026,-0.397
1748283303749564893,-0.392
1748283303757250760,-0.382
1748283303764936627,-0.37
1748283303772622494,-0.358
1748283303780308361,-0.34
1748283303787994228,-0.326
1748283303795680095,-0.311
1748283303803365962,-0.298
1748283303811051829,-0.28600000000000003
1748283303818737696,-0.276
1748283303826423563,-0.269
1748283303834109430,-0.266
1748283303841795297,-0.259
1748283303849481220,-0.254,92,644
1748283303857167087,-0.254
1748283303864852954,-0.254
1748283303872538821,-0.251
1748283303880224688,-0.249
1748283303887910555,-0.246
1748283303895596422,-0.244
1748283303903282289,-0.242
1748283303910968156,-0.242
1748283303918654023,-0.246
1748283303926339890,-0.249
1748283303934025757,-0.242
1748283303941711624,-0.222
1748283303949397491,-0.202
1748283303957083358,-0.19
1748283303964769225,-0.17200000000000001
1748283303972455092,-0.155
1748283303980140959,-0.167
1748283303987826826,-0.209
1748283303995512693,-0.229
1748283304003198560,-0.214
1748283304010884427,-0.20700000000000002
1748283304018570294,-0.20500000000000002
1748283304026256161,-0.2
1748283304033942028,-0.192
1748283304041627895,-0.19
1748283304049313762,-0.192
1748283304056999629,-0.2
1748283304064685496,-0.224
1748283304072371363,-0.256
1748283304080057230,-0.093
1748283304087743097,0.486
1748283304095428964,1.227
1748283304103114831,1.598
1748283304110800698,1.0170000000000001
1748283304118486565,-0.328
1748283304126172432,-0.842
1748283304133858299,-0.254
1748283304141544166,-0.039
1748283304149230033,-0.256
1748283304156915900,-0.192
1748283304164601767,-0.096
1748283304172287634,-0.15
1748283304179973501,-0.14
1748283304187659368,-0.079
1748283304195345235,-0.069
1748283304203031102,-0.054
1748283304210716969,-0.012
1748283304218402836,0.019
1748283304226088703,0.046
1748283304233774570,0.08600000000000001
1748283304241460437,0.125
1748283304249146304,0.165
1748283304256832171,0.20700000000000002
1748283304264518038,0.246
1748283304272203905,0.276
1748283304279889772,0.293
1748283304287575639,0.298
1748283304295261506,0.28800000000000003
1748283304302947373,0.271
1748283304310633240,0.246
1748283304318319107,0.214
1748283304326004974,0.158
1748283304333690841,0.079
1748283304341376708,-0.022
1748283304349062575,-0.128
1748283304356748442,-0.224
1748283304364434309,-0.301
1748283304372120176,-0.353
1748283304379806043,-0.377
1748283304387491910,-0.387
1748283304395177777,-0.39
1748283304402863644,-0.382
1748283304410549563,-0.37
1748283304418235430,-0.358
1748283304425921297,-0.343
1748283304433607164,-0.326
1748283304441293031,-0.311
1748283304448978898,-0.296
1748283304456664765,-0.281
1748283304464350632,-0.274
1748283304472036499,-0.266
1748283304479722366,-0.259
1748283304487408233,-0.251
1748283304495094100,-0.246
1748283304502779967,-0.246
1748283304510465834,-0.244
1748283304518151701,-0.23900000000000002
1748283304525837568,-0.23700000000000002
1748283304533523435,-0.23700000000000002
1748283304541209302,-0.234
1748283304548895169,-0.232
1748283304556581036,-0.229
1748283304564266903,-0.229
1748283304571952770,-0.234
1748283304579638637,-0.23700000000000002
1748283304587324504,-0.227
1748283304595010371,-0.20700000000000002
1748283304602696238,-0.19
1748283304610382105,-0.177
1748283304618067972,-0.158
1748283304625753839,-0.14
1748283304633439706,-0.158
1748283304641125573,-0.197
1748283304648811440,-0.217
1748283304656497307,-0.20500000000000002
1748283304664183174,-0.195
1748283304671869041,-0.195
1748283304679554908,-0.192
1748283304687240775,-0.185
1748283304694926642,-0.17500000000000002
1748283304702612509,-0.177
1748283304710298376,-0.185
1748283304717984243,-0.212
1748283304725670110,-0.23900000000000002
1748283304733355977,-0.061
1748283304741041844,0.533
1748283304748727711,1.239
1748283304756413578,1.516
1748283304764099445,0.869
1748283304771785312,-0.402
1748283304779471179,-0.787
1748283304787157046,-0.2
1748283304794842913,-0.037
1748283304802528780,-0.234
1748283304810214647,-0.158
1748283304817900514,-0.07100000000000001
1748283304825586381,-0.125
1748283304833272248,-0.106
1748283304840958115,-0.054
1748283304848643982,-0.049
1748283304856329849,-0.024
1748283304864015716,0.017
1748283304871701583,0.041
1748283304879387450,0.066
1748283304887073317,0.108
1748283304894759184,0.148
1748283304902445051,0.187
1748283304910130918,0.234
1748283304917816785,0.269
1748283304925502652,0.291
1748283304933188519,0.313
1748283304940874386,0.323
1748283304948560253,0.313
1748283304956246120,0.296
1748283304963931987,0.274
1748283304971617906,0.234,92,646
1748283304979303773,0.17500000000000002,,646
1748283304986989640,0.096
1748283304994675507,-0.002
1748283305002361374,-0.111
1748283305010047241,-0.20700000000000002
1748283305017733108,-0.281
1748283305025418975,-0.33
1748283305033104842,-0.36
1748283305040790709,-0.372
1748283305048476576,-0.372
1748283305056162443,-0.365
1748283305063848310,-0.35000000000000003
1748283305071534177,-0.335
1748283305079220044,-0.323
1748283305086905911,-0.311
1748283305094591778,-0.296
1748283305102277645,-0.281
1748283305109963512,-0.269
1748283305117649379,-0.261
1748283305125335246,-0.256
1748283305133021113,-0.246
1748283305140706980,-0.23900000000000002
1748283305148392847,-0.23700000000000002
1748283305156078714,-0.227
1748283305163764581,-0.222
1748283305171450448,-0.224
1748283305179136315,-0.229
1748283305186822182,-0.229
1748283305194508049,-0.224
1748283305202193916,-0.217
1748283305209879783,-0.222
1748283305217565650,-0.234
1748283305225251517,-0.232
1748283305232937384,-0.214
1748283305240623251,-0.2
1748283305248309118,-0.185
1748283305255994985,-0.17
1748283305263680852,-0.153
1748283305271366719,-0.14300000000000002
1748283305279052586,-0.163
1748283305286738453,-0.20700000000000002
1748283305294424320,-0.224
1748283305302110187,-0.20700000000000002
1748283305309796054,-0.195
1748283305317481921,-0.192
1748283305325167788,-0.185
1748283305332853655,-0.17500000000000002
1748283305340539522,-0.177
1748283305348225389,-0.182
1748283305355911256,-0.18
1748283305363597123,-0.20700000000000002
1748283305371282990,-0.23700000000000002
1748283305378968857,-0.051000000000000004
1748283305386654724,0.535
1748283305394340591,1.1480000000000001
1748283305402026458,1.249
1748283305409712325,0.58
1748283305417398192,-0.461
1748283305425084059,-0.6910000000000001
1748283305432769926,-0.177
1748283305440455793,-0.049
1748283305448141660,-0.185
1748283305455827527,-0.11800000000000001
1748283305463513394,-0.066
1748283305471199261,-0.098
1748283305478885128,-0.076
1748283305486570995,-0.034
1748283305494256862,-0.027
1748283305501942729,-0.009000000000000001
1748283305509628596,0.027
1748283305517314463,0.059000000000000004
1748283305525000330,0.088
1748283305532686249,0.123
1748283305540372116,0.16
1748283305548057983,0.202
1748283305555743850,0.242
1748283305563429717,0.274
1748283305571115584,0.303
1748283305578801451,0.326
1748283305586487318,0.326
1748283305594173185,0.313
1748283305601859052,0.293
1748283305609544919,0.264
1748283305617230786,0.227
1748283305624916653,0.167
1748283305632602520,0.07100000000000001
1748283305640288387,-0.037
1748283305647974254,-0.135
1748283305655660121,-0.224
1748283305663345988,-0.296
1748283305671031855,-0.338
1748283305678717722,-0.363
1748283305686403589,-0.375
1748283305694089456,-0.372
1748283305701775323,-0.365
1748283305709461190,-0.36
1748283305717147057,-0.34800000000000003
1748283305724832924,-0.328
1748283305732518791,-0.313
1748283305740204658,-0.303
1748283305747890525,-0.291
1748283305755576392,-0.281
1748283305763262259,-0.271
1748283305770948126,-0.264
1748283305778633993,-0.254
1748283305786319860,-0.249
1748283305794005727,-0.249
1748283305801691594,-0.246
1748283305809377461,-0.23900000000000002
1748283305817063328,-0.23700000000000002
1748283305824749195,-0.23900000000000002
1748283305832435062,-0.23700000000000002
1748283305840120929,-0.234
1748283305847806796,-0.232
1748283305855492663,-0.234
1748283305863178530,-0.242
1748283305870864397,-0.244
1748283305878550264,-0.234
1748283305886236131,-0.219
1748283305893921998,-0.209
1748283305901607865,-0.197
1748283305909293732,-0.18
1748283305916979599,-0.165
1748283305924665466,-0.177
1748283305932351333,-0.217
1748283305940037200,-0.234
1748283305947723067,-0.224
1748283305955408934,-0.217
1748283305963094801,-0.214
1748283305970780668,-0.209
1748283305978466535,-0.20700000000000002
1748283305986152402,-0.20500000000000002
1748283305993838269,-0.202
1748283306001524136,-0.20500000000000002
1748283306009210003,-0.227
1748283306016895870,-0.251
1748283306024581737,-0.069
1748283306032267604,0.511
1748283306039953471,1.133
1748283306047639338,1.276
1748283306055325205,0.624
1748283306063011072,-0.47400000000000003
1748283306070696939,-0.748
1748283306078382806,-0.212
1748283306086068673,-0.074
1748283306093754592,-0.232,92,649
1748283306101440459,-0.165
1748283306109126326,-0.098
1748283306116812193,-0.14
1748283306124498060,-0.123
1748283306132183927,-0.074
1748283306139869794,-0.066
1748283306147555661,-0.049
1748283306155241528,-0.014
1748283306162927395,0.014
1748283306170613262,0.041
1748283306178299129,0.081
1748283306185984996,0.116
1748283306193670863,0.15
1748283306201356730,0.19
1748283306209042597,0.229
1748283306216728464,0.256
1748283306224414331,0.271
1748283306232100198,0.274
1748283306239786065,0.264
1748283306247471932,0.246
1748283306255157799,0.219
1748283306262843666,0.182
1748283306270529533,0.123
1748283306278215400,0.039
1748283306285901267,-0.059000000000000004
1748283306293587134,-0.16
1748283306301273001,-0.251
1748283306308958868,-0.321
1748283306316644735,-0.365
1748283306324330602,-0.387
1748283306332016469,-0.392
1748283306339702336,-0.392
1748283306347388203,-0.385
1748283306355074070,-0.375
1748283306362759937,-0.363
1748283306370445804,-0.34800000000000003
1748283306378131671,-0.333
1748283306385817538,-0.318
1748283306393503405,-0.306
1748283306401189272,-0.296
1748283306408875139,-0.28400000000000003
1748283306416561006,-0.274
1748283306424246873,-0.266
1748283306431932740,-0.261
1748283306439618607,-0.256
1748283306447304474,-0.254
1748283306454990341,-0.249
1748283306462676208,-0.246
1748283306470362075,-0.246
1748283306478047942,-0.244
1748283306485733809,-0.242
1748283306493419676,-0.23900000000000002
1748283306501105543,-0.23700000000000002
1748283306508791410,-0.23700000000000002
1748283306516477277,-0.242
1748283306524163144,-0.244
1748283306531849011,-0.23900000000000002
1748283306539534878,-0.224
1748283306547220745,-0.20500000000000002
1748283306554906612,-0.19
1748283306562592479,-0.18
1748283306570278346,-0.16
1748283306577964213,-0.163
1748283306585650080,-0.2
1748283306593335947,-0.227
1748283306601021814,-0.219
1748283306608707681,-0.20700000000000002
1748283306616393548,-0.20700000000000002
1748283306624079415,-0.202
1748283306631765282,-0.195
1748283306639451149,-0.19
1748283306647137016,-0.19
1748283306654822935,-0.192
1748283306662508802,-0.20700000000000002
1748283306670194669,-0.23900000000000002
1748283306677880536,-0.135
1748283306685566403,0.363
1748283306693252270,1.066
1748283306700938137,1.464
1748283306708624004,1.057
1748283306716309871,-0.16
1748283306723995738,-0.8290000000000001
1748283306731681605,-0.34
1748283306739367472,-0.019
1748283306747053339,-0.219
1748283306754739206,-0.209
1748283306762425073,-0.096
1748283306770110940,-0.133
1748283306777796807,-0.138
1748283306785482674,-0.076
1748283306793168541,-0.061
1748283306800854408,-0.051000000000000004
1748283306808540275,-0.014
1748283306816226142,0.019
1748283306823912009,0.044
1748283306831597876,0.081
1748283306839283743,0.121
1748283306846969610,0.158
1748283306854655477,0.197
1748283306862341344,0.23900000000000002
1748283306870027211,0.271
1748283306877713078,0.293
1748283306885398945,0.301
1748283306893084812,0.293
1748283306900770679,0.276
1748283306908456546,0.254
1748283306916142413,0.222
1748283306923828280,0.17
1748283306931514147,0.093
1748283306939200014,-0.007
1748283306946885881,-0.111
1748283306954571748,-0.209
1748283306962257615,-0.291
1748283306969943482,-0.34500000000000003
1748283306977629349,-0.375
1748283306985315216,-0.387
1748283306993001083,-0.387
1748283307000686950,-0.382
1748283307008372817,-0.372
1748283307016058684,-0.36
1748283307023744551,-0.34500000000000003
1748283307031430418,-0.33
1748283307039116285,-0.316
1748283307046802152,-0.303
1748283307054488019,-0.291
1748283307062173886,-0.279
1748283307069859753,-0.269
1748283307077545620,-0.261
1748283307085231487,-0.254
1748283307092917354,-0.251
1748283307100603221,-0.249
1748283307108289088,-0.244
1748283307115974955,-0.242
1748283307123660822,-0.242
1748283307131346689,-0.23900000000000002
1748283307139032556,-0.23700000000000002
1748283307146718423,-0.234
1748283307154404290,-0.232
1748283307162090157,-0.232
1748283307169776024,-0.23900000000000002
1748283307177461891,-0.242
1748283307185147758,-0.232
1748283307192833625,-0.212
1748283307200519492,-0.197
1748283307208205359,-0.187
1748283307215891282,-0.17,92,652
1748283307223577149,-0.153,,645
1748283307231263016,-0.167
1748283307238948883,-0.212
1748283307246634750,-0.224
1748283307254320617,-0.212
1748283307262006484,-0.20700000000000002
1748283307269692351,-0.20500000000000002
1748283307277378218,-0.2
1748283307285064085,-0.195
1748283307292749952,-0.192
1748283307300435819,-0.19
1748283307308121686,-0.197
1748283307315807553,-0.224
1748283307323493420,-0.251
1748283307331179287,-0.081
1748283307338865154,0.498
1748283307346551021,1.212
1748283307354236888,1.526
1748283307361922755,0.921
1748283307369608622,-0.372
1748283307377294489,-0.8170000000000001
1748283307384980356,-0.227
1748283307392666223,-0.041
1748283307400352090,-0.251
1748283307408037957,-0.185
1748283307415723824,-0.093
1748283307423409691,-0.145
1748283307431095558,-0.13
1748283307438781425,-0.074
1748283307446467292,-0.066
1748283307454153159,-0.049
1748283307461839026,-0.007
1748283307469524893,0.019
1748283307477210760,0.049
1748283307484896627,0.088
1748283307492582494,0.128
1748283307500268361,0.165
1748283307507954228,0.20700000000000002
1748283307515640095,0.246
1748283307523325962,0.276
1748283307531011829,0.296
1748283307538697696,0.301
1748283307546383563,0.28800000000000003
1748283307554069430,0.271
1748283307561755297,0.246
1748283307569441164,0.212
1748283307577127031,0.155
1748283307584812898,0.07100000000000001
1748283307592498765,-0.029
1748283307600184632,-0.135
1748283307607870499,-0.232
1748283307615556366,-0.311
1748283307623242233,-0.36
1748283307630928100,-0.385
1748283307638613967,-0.395
1748283307646299834,-0.395
1748283307653985701,-0.387
1748283307661671568,-0.375
1748283307669357435,-0.365
1748283307677043302,-0.35000000000000003
1748283307684729169,-0.335
1748283307692415036,-0.321
1748283307700100903,-0.306
1748283307707786770,-0.293
1748283307715472637,-0.28600000000000003
1748283307723158504,-0.276
1748283307730844371,-0.266
1748283307738530238,-0.261
1748283307746216105,-0.259
1748283307753901972,-0.254
1748283307761587839,-0.249
1748283307769273706,-0.249
1748283307776959625,-0.246,93,646
1748283307784645492,-0.244,,656
1748283307792331359,-0.242
1748283307800017226,-0.23900000000000002
1748283307807703093,-0.23700000000000002
1748283307815388960,-0.23700000000000002
1748283307823074827,-0.242
1748283307830760694,-0.242
1748283307838446561,-0.234
1748283307846132428,-0.217
1748283307853818295,-0.197
1748283307861504162,-0.185
1748283307869190029,-0.17
1748283307876875896,-0.153
1748283307884561763,-0.167
1748283307892247630,-0.209
1748283307899933497,-0.224
1748283307907619364,-0.212
1748283307915305231,-0.20500000000000002
1748283307922991098,-0.20500000000000002
1748283307930676965,-0.195
1748283307938362832,-0.19
1748283307946048699,-0.187
1748283307953734566,-0.187
1748283307961420433,-0.192
1748283307969106300,-0.222
1748283307976792167,-0.249
1748283307984478034,-0.079
1748283307992163901,0.506
1748283307999849768,1.225
1748283308007535635,1.538
1748283308015221502,0.916
1748283308022907369,-0.387
1748283308030593236,-0.8170000000000001
1748283308038279103,-0.222
1748283308045964970,-0.041
1748283308053650837,-0.251
1748283308061336704,-0.18
1748283308069022571,-0.091
1748283308076708438,-0.145
1748283308084394305,-0.128
1748283308092080172,-0.069
1748283308099766039,-0.064
1748283308107451906,-0.049
1748283308115137773,-0.007
1748283308122823640,0.022
1748283308130509507,0.051000000000000004
1748283308138195374,0.091
1748283308145881241,0.13
1748283308153567108,0.167
1748283308161252975,0.209
1748283308168938842,0.249
1748283308176624709,0.279
1748283308184310576,0.296
1748283308191996443,0.298
1748283308199682310,0.28800000000000003
1748283308207368177,0.269
1748283308215054044,0.244
1748283308222739911,0.20700000000000002
1748283308230425778,0.15
1748283308238111645,0.069
1748283308245797512,-0.032
1748283308253483379,-0.138
1748283308261169246,-0.234
1748283308268855113,-0.311
1748283308276540980,-0.36
1748283308284226847,-0.385
1748283308291912714,-0.395
1748283308299598581,-0.392
1748283308307284448,-0.385
1748283308314970315,-0.375
1748283308322656182,-0.363
1748283308330342049,-0.34800000000000003
1748283308338027968,-0.333
1748283308345713835,-0.316
1748283308353399702,-0.303
1748283308361085569,-0.291
1748283308368771436,-0.279
1748283308376457303,-0.269
1748283308384143170,-0.264
1748283308391829037,-0.261
1748283308399514904,-0.254
1748283308407200771,-0.249
1748283308414886638,-0.244
1748283308422572505,-0.242
1748283308430258372,-0.23900000000000002
1748283308437944239,-0.23900000000000002
1748283308445630106,-0.23700000000000002
1748283308453315973,-0.232
1748283308461001840,-0.229
1748283308468687707,-0.232
1748283308476373574,-0.23900000000000002
1748283308484059441,-0.23900000000000002
1748283308491745308,-0.232
1748283308499431175,-0.214
1748283308507117042,-0.192
1748283308514802909,-0.17500000000000002
1748283308522488776,-0.16
1748283308530174643,-0.145
1748283308537860510,-0.158
1748283308545546377,-0.202
1748283308553232244,-0.222
1748283308560918111,-0.20700000000000002
1748283308568603978,-0.197
1748283308576289845,-0.195
1748283308583975712,-0.185
1748283308591661579,-0.18
1748283308599347446,-0.17500000000000002
1748283308607033313,-0.17200000000000001
1748283308614719180,-0.177
1748283308622405047,-0.202
1748283308630090914,-0.232
1748283308637776781,-0.064
1748283308645462648,0.508
1748283308653148515,1.205
1748283308660834382,1.491
1748283308668520249,0.876
1748283308676206116,-0.377
1748283308683891983,-0.785
1748283308691577850,-0.202
1748283308699263717,-0.024
1748283308706949584,-0.222
1748283308714635451,-0.158
1748283308722321318,-0.076
1748283308730007185,-0.125
1748283308737693052,-0.10300000000000001
1748283308745378919,-0.051000000000000004
1748283308753064786,-0.049
1748283308760750653,-0.032
1748283308768436520,0.012
1748283308776122387,0.044
1748283308783808254,0.07100000000000001
1748283308791494121,0.113
1748283308799179988,0.158
1748283308806865855,0.195
1748283308814551722,0.227
1748283308822237589,0.261
1748283308829923456,0.293
1748283308837609323,0.316
1748283308845295190,0.318
1748283308852981057,0.308
1748283308860666924,0.296
1748283308868352791,0.276
1748283308876038658,0.23700000000000002
1748283308883724525,0.17500000000000002
1748283308891410392,0.096
1748283308899096311,0.0,92,652
1748283308906782178,-0.111
1748283308914468045,-0.212
1748283308922153912,-0.28800000000000003
1748283308929839779,-0.335
1748283308937525646,-0.36
1748283308945211513,-0.37
1748283308952897380,-0.372
1748283308960583247,-0.368
1748283308968269114,-0.355
1748283308975954981,-0.338
1748283308983640848,-0.323
1748283308991326715,-0.313
1748283308999012582,-0.306
1748283309006698449,-0.291
1748283309014384316,-0.276
1748283309022070183,-0.266
1748283309029756050,-0.256
1748283309037441917,-0.249
1748283309045127784,-0.244
1748283309052813651,-0.229
1748283309060499518,-0.224
1748283309068185385,-0.234
1748283309075871252,-0.232
1748283309083557119,-0.214
1748283309091242986,-0.214
1748283309098928853,-0.224
1748283309106614720,-0.217
1748283309114300587,-0.209
1748283309121986454,-0.219
1748283309129672321,-0.227
1748283309137358188,-0.214
1748283309145044055,-0.195
1748283309152729922,-0.187
1748283309160415789,-0.177
1748283309168101656,-0.16
1748283309175787523,-0.135
1748283309183473390,-0.138
1748283309191159257,-0.18
1748283309198845124,-0.20700000000000002
1748283309206530991,-0.2
1748283309214216858,-0.19
1748283309221902725,-0.19
1748283309229588592,-0.19
1748283309237274459,-0.182
1748283309244960326,-0.17200000000000001
1748283309252646193,-0.17200000000000001
1748283309260332060,-0.17500000000000002
1748283309268017927,-0.177
1748283309275703794,-0.214
1748283309283389661,-0.165
1748283309291075528,0.261
1748283309298761395,0.926
1748283309306447262,1.294
1748283309314133129,0.963
1748283309321818996,-0.059000000000000004
1748283309329504863,-0.75
1748283309337190730,-0.387
1748283309344876597,-0.012
1748283309352562464,-0.14
1748283309360248331,-0.163
1748283309367934198,-0.061
1748283309375620065,-0.083
1748283309383305932,-0.096
1748283309390991799,-0.044
1748283309398677666,-0.024
1748283309406363533,-0.017
1748283309414049400,0.019
1748283309421735267,0.054
1748283309429421134,0.076
1748283309437107001,0.116
1748283309444792868,0.153
1748283309452478735,0.185
1748283309460164654,0.224
1748283309467850521,0.261
1748283309475536388,0.291
1748283309483222255,0.321
1748283309490908122,0.328
1748283309498593989,0.316
1748283309506279856,0.303
1748283309513965723,0.28400000000000003
1748283309521651590,0.249
1748283309529337457,0.197
1748283309537023324,0.11800000000000001
1748283309544709191,0.019
1748283309552395058,-0.081
1748283309560080925,-0.177
1748283309567766792,-0.261
1748283309575452659,-0.323
1748283309583138526,-0.35000000000000003
1748283309590824393,-0.36
1748283309598510260,-0.363
1748283309606196127,-0.365
1748283309613881994,-0.358
1748283309621567861,-0.343
1748283309629253728,-0.328
1748283309636939595,-0.316
1748283309644625462,-0.306
1748283309652311329,-0.293
1748283309659997196,-0.279
1748283309667683063,-0.269
1748283309675368930,-0.261
1748283309683054797,-0.254
1748283309690740664,-0.244
1748283309698426531,-0.23900000000000002
1748283309706112398,-0.23900000000000002
1748283309713798265,-0.234
1748283309721484132,-0.232
1748283309729169999,-0.234
1748283309736855866,-0.234
1748283309744541733,-0.229
1748283309752227600,-0.229
1748283309759913467,-0.229
1748283309767599334,-0.234
1748283309775285201,-0.23700000000000002
1748283309782971068,-0.234
1748283309790656935,-0.224
1748283309798342802,-0.209
1748283309806028669,-0.197
1748283309813714536,-0.182
1748283309821400403,-0.167
1748283309829086270,-0.163
1748283309836772137,-0.185
1748283309844458004,-0.222
1748283309852143871,-0.227
1748283309859829738,-0.212
1748283309867515605,-0.209
1748283309875201472,-0.20500000000000002
1748283309882887339,-0.2
1748283309890573206,-0.197
1748283309898259073,-0.195
1748283309905944940,-0.195
1748283309913630807,-0.20500000000000002
1748283309921316674,-0.23700000000000002
1748283309929002541,-0.212
1748283309936688408,0.138
1748283309944374275,0.797
1748283309952060142,1.262
1748283309959746009,1.084
1748283309967431876,0.133
1748283309975117743,-0.736
1748283309982803610,-0.526
1748283309990489477,-0.064
1748283309998175344,-0.145
1748283310005861211,-0.217
1748283310013547078,-0.108
1748283310021232997,-0.108,92,653
1748283310028918864,-0.135,,653
1748283310036604731,-0.088
1748283310044290598,-0.061
1748283310051976465,-0.056
1748283310059662332,-0.024
1748283310067348199,0.007
1748283310075034066,0.032
1748283310082719933,0.066
1748283310090405800,0.10300000000000001
1748283310098091667,0.138
1748283310105777534,0.17200000000000001
1748283310113463401,0.212
1748283310121149268,0.244
1748283310128835135,0.266
1748283310136521002,0.276
1748283310144206869,0.271
1748283310151892736,0.256
1748283310159578603,0.234
1748283310167264470,0.20500000000000002
1748283310174950337,0.16
1748283310182636204,0.091
1748283310190322071,0.0
1748283310198007938,-0.101
1748283310205693805,-0.2
1748283310213379672,-0.281
1748283310221065539,-0.34
1748283310228751406,-0.375
1748283310236437273,-0.392
1748283310244123140,-0.395
1748283310251809007,-0.39
1748283310259494874,-0.382
1748283310267180741,-0.372
1748283310274866608,-0.358
1748283310282552475,-0.343
1748283310290238342,-0.328
1748283310297924209,-0.316
1748283310305610076,-0.303
1748283310313295943,-0.291
1748283310320981810,-0.279
1748283310328667677,-0.269
1748283310336353544,-0.261
1748283310344039411,-0.256
1748283310351725278,-0.251
1748283310359411145,-0.249
1748283310367097012,-0.246
1748283310374782879,-0.244
1748283310382468746,-0.244
1748283310390154613,-0.242
1748283310397840480,-0.23900000000000002
1748283310405526347,-0.23700000000000002
1748283310413212214,-0.23700000000000002
1748283310420898081,-0.242
1748283310428583948,-0.244
1748283310436269815,-0.23900000000000002
1748283310443955682,-0.227
1748283310451641549,-0.209
1748283310459327416,-0.197
1748283310467013283,-0.185
1748283310474699150,-0.165
1748283310482385017,-0.163
1748283310490070884,-0.197
1748283310497756751,-0.227
1748283310505442618,-0.222
1748283310513128485,-0.209
1748283310520814352,-0.209
1748283310528500219,-0.20500000000000002
1748283310536186086,-0.197
1748283310543871953,-0.197
1748283310551557820,-0.192
1748283310559243687,-0.192
1748283310566929554,-0.20700000000000002
1748283310574615421,-0.23900000000000002
1748283310582301344,-0.155
1748283310589987211,0.303
1748283310597673078,0.992
1748283310605358945,1.41
1748283310613044812,1.079
1748283310620730679,-0.074
1748283310628416546,-0.81
1748283310636102413,-0.38
1748283310643788280,-0.017
1748283310651474147,-0.20500000000000002
1748283310659160014,-0.219
1748283310666845881,-0.096
1748283310674531748,-0.125
1748283310682217615,-0.14
1748283310689903482,-0.081
1748283310697589349,-0.061
1748283310705275216,-0.056
1748283310712961083,-0.017
1748283310720646950,0.017
1748283310728332817,0.039
1748283310736018684,0.074
1748283310743704551,0.113
1748283310751390418,0.148
1748283310759076285,0.187
1748283310766762152,0.227
