time,ecg,hr,rr,marker
1747252180013973870,0.302,96,653
1747252180021661618,1.164,,653
1747252180029349366,1.868
1747252180037037114,1.6440000000000001
1747252180044724862,0.359
1747252180052412610,-0.536
1747252180060100358,-0.268
1747252180067788106,-0.022
1747252180075475854,-0.211
1747252180083163602,-0.20600000000000002
1747252180090851350,-0.088
1747252180098539098,-0.12
1747252180106226846,-0.135
1747252180113914594,-0.078
1747252180121602342,-0.066
1747252180129290090,-0.068
1747252180136977838,-0.041
1747252180144665586,-0.022
1747252180152353334,-0.009000000000000001
1747252180160041082,0.009000000000000001
1747252180167728830,0.022
1747252180175416578,0.039
1747252180183104326,0.068
1747252180190792074,0.096
1747252180198479822,0.115
1747252180206167570,0.14200000000000002
1747252180213855318,0.164
1747252180221543066,0.189
1747252180229230814,0.211
1747252180236918562,0.216
1747252180244606310,0.20600000000000002
1747252180252294058,0.194
1747252180259981806,0.177
1747252180267669554,0.16
1747252180275357302,0.12
1747252180283045050,0.041
1747252180290732798,-0.044
1747252180298420546,-0.11800000000000001
1747252180306108294,-0.169
1747252180313796042,-0.20400000000000001
1747252180321483790,-0.226
1747252180329171538,-0.233
1747252180336859286,-0.226
1747252180344547034,-0.221
1747252180352234782,-0.214
1747252180359922530,-0.199
1747252180367610278,-0.187
1747252180375298026,-0.177
1747252180382985774,-0.169
1747252180390673522,-0.167
1747252180398361270,-0.157
1747252180406049018,-0.147
1747252180413736766,-0.137
1747252180421424514,-0.137
1747252180429112262,-0.137
1747252180436800010,-0.132
1747252180444487758,-0.128
1747252180452175506,-0.123
1747252180459863254,-0.11800000000000001
1747252180467551002,-0.11
1747252180475238750,-0.108
1747252180482926498,-0.108
1747252180490614246,-0.108
1747252180498301994,-0.108
1747252180505989742,-0.1
1747252180513677490,-0.091
1747252180521365238,-0.096
1747252180529052986,-0.10300000000000001
1747252180536740734,-0.098
1747252180544428482,-0.091
1747252180552116230,-0.083
1747252180559803978,-0.068
1747252180567491726,-0.059000000000000004
1747252180575179546,-0.059000000000000004
1747252180582867155,-0.041
1747252180590554764,-0.029
1747252180598242373,-0.049
1747252180605929982,-0.076
1747252180613617591,-0.076
1747252180621305200,-0.064
1747252180628992809,-0.059000000000000004
1747252180636680418,-0.054
1747252180644368027,-0.051000000000000004
1747252180652055636,-0.054
1747252180659743245,-0.07100000000000001
1747252180667430854,-0.135
1747252180675118463,-0.233
1747252180682806072,-0.1
1747252180690493681,0.519
1747252180698181290,1.3980000000000001
1747252180705868899,1.8980000000000001
1747252180713556508,1.287
1747252180721244117,-0.039
1747252180728931726,-0.507
1747252180736619335,-0.123
1747252180744306944,-0.064
1747252180751994553,-0.194
1747252180759682162,-0.115
1747252180767369771,-0.073
1747252180775057380,-0.108
1747252180782744989,-0.07100000000000001
1747252180790432598,-0.022
1747252180798120207,-0.022
1747252180805807816,-0.024
1747252180813495425,-0.004
1747252180821183034,0.022
1747252180828870643,0.044
1747252180836558252,0.059000000000000004
1747252180844245861,0.081
1747252180851933470,0.11
1747252180859621079,0.137
1747252180867308688,0.169
1747252180874996297,0.189
1747252180882683906,0.214
1747252180890371515,0.248
1747252180898059124,0.28
1747252180905746733,0.297
1747252180913434342,0.305
1747252180921121951,0.297
1747252180928809560,0.28500000000000003
1747252180936497169,0.268
1747252180944184778,0.231
1747252180951872387,0.169
1747252180959559996,0.088
1747252180967247605,0.002
1747252180974935214,-0.066
1747252180982622823,-0.123
1747252180990310432,-0.164
1747252180997998041,-0.182
1747252181005685650,-0.182
1747252181013373259,-0.182
1747252181021060868,-0.179
1747252181028748477,-0.17200000000000001
1747252181036436086,-0.162
1747252181044123695,-0.152
1747252181051811304,-0.147
1747252181059498913,-0.135
1747252181067186522,-0.12
1747252181074874131,-0.128
1747252181082561740,-0.128
1747252181090249349,-0.113
1747252181097936958,-0.11
1747252181105624567,-0.115
1747252181113312176,-0.11800000000000001
1747252181120999785,-0.12
1747252181128687394,-0.123
1747252181136375048,-0.115,95,672
1747252181144062727,-0.108
1747252181151750406,-0.108
1747252181159438085,-0.113
1747252181167125764,-0.12
1747252181174813443,-0.113
1747252181182501122,-0.1
1747252181190188801,-0.1
1747252181197876480,-0.108
1747252181205564159,-0.11
1747252181213251838,-0.108
1747252181220939517,-0.091
1747252181228627196,-0.076
1747252181236314875,-0.073
1747252181244002554,-0.068
1747252181251690233,-0.049
1747252181259377912,-0.044
1747252181267065591,-0.064
1747252181274753270,-0.08600000000000001
1747252181282440949,-0.083
1747252181290128628,-0.076
1747252181297816307,-0.076
1747252181305503986,-0.073
1747252181313191665,-0.066
1747252181320879344,-0.068
1747252181328567023,-0.096
1747252181336254702,-0.167
1747252181343942381,-0.23600000000000002
1747252181351630060,-0.059000000000000004
1747252181359317739,0.5730000000000001
1747252181367005418,1.417
1747252181374693097,1.824
1747252181382380776,1.09
1747252181390068455,-0.194
1747252181397756134,-0.499
1747252181405443813,-0.113
1747252181413131492,-0.12
1747252181420819171,-0.23600000000000002
1747252181428506850,-0.14
1747252181436194529,-0.11
1747252181443882208,-0.14
1747252181451569887,-0.098
1747252181459257566,-0.068
1747252181466945245,-0.068
1747252181474632924,-0.046
1747252181482320603,-0.019
1747252181490008282,-0.009000000000000001
1747252181497695961,0.004
1747252181505383640,0.029
1747252181513071319,0.054
1747252181520758998,0.076
1747252181528446677,0.1
1747252181536134356,0.13
1747252181543822035,0.157
1747252181551509714,0.184
1747252181559197393,0.214
1747252181566885072,0.23800000000000002
1747252181574572751,0.253
1747252181582260430,0.253
1747252181589948109,0.248
1747252181597635788,0.23800000000000002
1747252181605323467,0.216
1747252181613011146,0.182
1747252181620698825,0.12
1747252181628386504,0.032
1747252181636074183,-0.046
1747252181643761862,-0.105
1747252181651449541,-0.15
1747252181659137220,-0.184
1747252181666824899,-0.199
1747252181674512578,-0.201
1747252181682200257,-0.192
1747252181689887936,-0.179
1747252181697575633,-0.169
1747252181705263172,-0.16
1747252181712950711,-0.152
1747252181720638250,-0.145
1747252181728325789,-0.14
1747252181736013328,-0.135
1747252181743700867,-0.128
1747252181751388406,-0.125
1747252181759075945,-0.123
1747252181766763484,-0.115
1747252181774451023,-0.113
1747252181782138562,-0.113
1747252181789826101,-0.108
1747252181797513640,-0.105
1747252181805201179,-0.105
1747252181812888718,-0.1
1747252181820576257,-0.098
1747252181828263796,-0.098
1747252181835951335,-0.1
1747252181843638874,-0.098
1747252181851326413,-0.096
1747252181859013952,-0.098
1747252181866701491,-0.10300000000000001
1747252181874389030,-0.105
1747252181882076569,-0.096
1747252181889764108,-0.076
1747252181897451647,-0.066
1747252181905139186,-0.061
1747252181912826725,-0.049
1747252181920514264,-0.044
1747252181928201803,-0.064
1747252181935889342,-0.083
1747252181943576881,-0.081
1747252181951264420,-0.076
1747252181958951959,-0.07100000000000001
1747252181966639498,-0.066
1747252181974327037,-0.064
1747252181982014576,-0.066
1747252181989702115,-0.08600000000000001
1747252181997389654,-0.157
1747252182005077193,-0.23800000000000002
1747252182012764732,-0.091
1747252182020452271,0.504
1747252182028139810,1.346
1747252182035827349,1.846
1747252182043514888,1.2550000000000001
1747252182051202427,-0.066
1747252182058889966,-0.539
1747252182066577505,-0.14
1747252182074265044,-0.081
1747252182081952583,-0.241
1747252182089640122,-0.16
1747252182097327661,-0.096
1747252182105015200,-0.137
1747252182112702739,-0.11
1747252182120390278,-0.066
1747252182128077817,-0.07100000000000001
1747252182135765356,-0.061
1747252182143452895,-0.024
1747252182151140434,-0.007
1747252182158827973,0.002
1747252182166515512,0.022
1747252182174203051,0.046
1747252182181890590,0.07100000000000001
1747252182189578129,0.096
1747252182197265668,0.125
1747252182204953207,0.155
1747252182212640746,0.179
1747252182220328285,0.209
1747252182228015824,0.23600000000000002
1747252182235703363,0.246
1747252182243390902,0.246
1747252182251078441,0.248
1747252182258766048,0.243,93,683
1747252182266454006,0.224,,674
1747252182274141964,0.189
1747252182281829922,0.128
1747252182289517880,0.041
1747252182297205838,-0.036000000000000004
1747252182304893796,-0.096
1747252182312581754,-0.155
1747252182320269712,-0.194
1747252182327957670,-0.201
1747252182335645628,-0.196
1747252182343333586,-0.192
1747252182351021544,-0.177
1747252182358709502,-0.162
1747252182366397460,-0.157
1747252182374085418,-0.155
1747252182381773376,-0.14
1747252182389461334,-0.123
1747252182397149292,-0.123
1747252182404837250,-0.123
1747252182412525208,-0.11800000000000001
1747252182420213166,-0.12
1747252182427901124,-0.12
1747252182435589082,-0.11
1747252182443277040,-0.098
1747252182450964998,-0.096
1747252182458652956,-0.1
1747252182466340914,-0.096
1747252182474028872,-0.083
1747252182481716830,-0.08600000000000001
1747252182489404788,-0.098
1747252182497092746,-0.1
1747252182504780704,-0.096
1747252182512468662,-0.108
1747252182520156620,-0.10300000000000001
1747252182527844578,-0.073
1747252182535532536,-0.059000000000000004
1747252182543220494,-0.061
1747252182550908452,-0.056
1747252182558596410,-0.046
1747252182566284368,-0.041
1747252182573972326,-0.051000000000000004
1747252182581660284,-0.073
1747252182589348242,-0.078
1747252182597036200,-0.064
1747252182604724158,-0.059000000000000004
1747252182612412116,-0.061
1747252182620100074,-0.056
1747252182627788032,-0.056
1747252182635475990,-0.083
1747252182643163948,-0.16
1747252182650851906,-0.23600000000000002
1747252182658539864,-0.051000000000000004
1747252182666227822,0.605
1747252182673915780,1.467
1747252182681603738,1.885
1747252182689291696,1.171
1747252182696979654,-0.16
1747252182704667612,-0.526
1747252182712355570,-0.108
1747252182720043528,-0.091
1747252182727731486,-0.23800000000000002
1747252182735419444,-0.14
1747252182743107402,-0.093
1747252182750795360,-0.137
1747252182758483318,-0.1
1747252182766171276,-0.061
1747252182773859234,-0.068
1747252182781547192,-0.056
1747252182789235150,-0.022
1747252182796923108,-0.012
1747252182804611066,0.0
1747252182812299024,0.024
1747252182819986985,0.046
1747252182827674524,0.064
1747252182835362063,0.091
1747252182843049602,0.12
1747252182850737141,0.14
1747252182858424680,0.164
1747252182866112219,0.196
1747252182873799758,0.216
1747252182881487297,0.221
1747252182889174836,0.221
1747252182896862375,0.214
1747252182904549914,0.196
1747252182912237453,0.177
1747252182919924992,0.14200000000000002
1747252182927612531,0.078
1747252182935300070,0.0
1747252182942987609,-0.073
1747252182950675148,-0.132
1747252182958362687,-0.17400000000000002
1747252182966050226,-0.199
1747252182973737765,-0.211
1747252182981425304,-0.209
1747252182989112843,-0.201
1747252182996800382,-0.189
1747252183004487921,-0.179
1747252183012175460,-0.177
1747252183019862999,-0.167
1747252183027550538,-0.15
1747252183035238077,-0.145
1747252183042925616,-0.14
1747252183050613155,-0.13
1747252183058300694,-0.125
1747252183065988233,-0.123
1747252183073675772,-0.12
1747252183081363311,-0.115
1747252183089050850,-0.108
1747252183096738389,-0.108
1747252183104425928,-0.105
1747252183112113467,-0.098
1747252183119801006,-0.105
1747252183127488545,-0.108
1747252183135176084,-0.10300000000000001
1747252183142863623,-0.108
1747252183150551162,-0.11800000000000001
1747252183158238701,-0.115
1747252183165926240,-0.108
1747252183173613779,-0.096
1747252183181301318,-0.083
1747252183188988857,-0.083
1747252183196676396,-0.078
1747252183204363935,-0.056
1747252183212051474,-0.051000000000000004
1747252183219739013,-0.078
1747252183227426552,-0.098
1747252183235114091,-0.091
1747252183242801630,-0.081
1747252183250489169,-0.081
1747252183258176708,-0.076
1747252183265864247,-0.07100000000000001
1747252183273551786,-0.083
1747252183281239325,-0.123
1747252183288926864,-0.209
1747252183296614403,-0.228
1747252183304301942,0.115
1747252183311989481,0.881
1747252183319677020,1.6540000000000001
1747252183327364559,1.73
1747252183335052098,0.676
1747252183342739637,-0.452
1747252183350427176,-0.42
1747252183358114715,-0.054
1747252183365802254,-0.179
1747252183373489793,-0.258
1747252183381177400,-0.135,92,668
1747252183388864939,-0.13
1747252183396552478,-0.162
1747252183404240017,-0.113
1747252183411927556,-0.088
1747252183419615095,-0.088
1747252183427302634,-0.064
1747252183434990173,-0.041
1747252183442677712,-0.032
1747252183450365251,-0.012
1747252183458052790,0.007
1747252183465740329,0.017
1747252183473427868,0.044
1747252183481115407,0.078
1747252183488802946,0.093
1747252183496490485,0.113
1747252183504178024,0.15
1747252183511865563,0.17400000000000002
1747252183519553102,0.187
1747252183527240641,0.196
1747252183534928180,0.199
1747252183542615719,0.187
1747252183550303258,0.17200000000000001
1747252183557990797,0.155
1747252183565678336,0.113
1747252183573365875,0.041
1747252183581053414,-0.036000000000000004
1747252183588740953,-0.098
1747252183596428492,-0.147
1747252183604116031,-0.192
1747252183611803570,-0.214
1747252183619491109,-0.214
1747252183627178648,-0.214
1747252183634866187,-0.20600000000000002
1747252183642553726,-0.192
1747252183650241265,-0.182
1747252183657928804,-0.177
1747252183665616343,-0.162
1747252183673303882,-0.157
1747252183680991421,-0.155
1747252183688678960,-0.147
1747252183696366499,-0.14
1747252183704054038,-0.14
1747252183711741577,-0.137
1747252183719429116,-0.125
1747252183727116655,-0.125
1747252183734804194,-0.128
1747252183742491733,-0.123
1747252183750179272,-0.12
1747252183757866811,-0.123
1747252183765554350,-0.12
1747252183773241889,-0.11
1747252183780929428,-0.105
1747252183788616967,-0.11
1747252183796304506,-0.115
1747252183803992045,-0.11800000000000001
1747252183811679584,-0.12
1747252183819367123,-0.113
1747252183827054662,-0.098
1747252183834742201,-0.088
1747252183842429740,-0.083
1747252183850117279,-0.076
1747252183857804818,-0.066
1747252183865492357,-0.068
1747252183873179896,-0.091
1747252183880867435,-0.098
1747252183888554974,-0.088
1747252183896242513,-0.08600000000000001
1747252183903930052,-0.083
1747252183911617591,-0.078
1747252183919305130,-0.076
1747252183926992669,-0.083
1747252183934680208,-0.12
1747252183942367815,-0.201,92,662
1747252183950055633,-0.23600000000000002,,645
1747252183957743451,0.054
1747252183965431269,0.78
1747252183973119087,1.582
1747252183980806905,1.747
1747252183988494723,0.775
1747252183996182541,-0.396
1747252184003870359,-0.452
1747252184011558177,-0.076
1747252184019245995,-0.164
1747252184026933813,-0.256
1747252184034621631,-0.147
1747252184042309449,-0.135
1747252184049997267,-0.164
1747252184057685085,-0.125
1747252184065372903,-0.093
1747252184073060721,-0.091
1747252184080748539,-0.07100000000000001
1747252184088436357,-0.044
1747252184096124175,-0.034
1747252184103811993,-0.024
1747252184111499811,0.0
1747252184119187629,0.027
1747252184126875447,0.044
1747252184134563265,0.059000000000000004
1747252184142251083,0.08600000000000001
1747252184149938901,0.115
1747252184157626719,0.14200000000000002
1747252184165314537,0.162
1747252184173002355,0.179
1747252184180690173,0.184
1747252184188377991,0.184
1747252184196065809,0.182
1747252184203753627,0.17200000000000001
1747252184211441445,0.15
1747252184219129263,0.113
1747252184226817081,0.056
1747252184234504899,-0.019
1747252184242192717,-0.088
1747252184249880535,-0.14
1747252184257568353,-0.177
1747252184265256171,-0.20400000000000001
1747252184272943989,-0.211
1747252184280631807,-0.20400000000000001
1747252184288319625,-0.194
1747252184296007443,-0.187
1747252184303695261,-0.182
1747252184311383079,-0.17200000000000001
1747252184319070897,-0.16
1747252184326758715,-0.152
1747252184334446533,-0.145
1747252184342134351,-0.137
1747252184349822169,-0.132
1747252184357509987,-0.135
1747252184365197805,-0.13
1747252184372885623,-0.125
1747252184380573441,-0.125
1747252184388261259,-0.123
1747252184395949077,-0.115
1747252184403636895,-0.108
1747252184411324713,-0.11
1747252184419012531,-0.11
1747252184426700349,-0.108
1747252184434388167,-0.10300000000000001
1747252184442075985,-0.1
1747252184449763803,-0.098
1747252184457451621,-0.1
1747252184465139439,-0.105
1747252184472827257,-0.105
1747252184480515075,-0.098
1747252184488202893,-0.073
1747252184495890711,-0.056
1747252184503578578,-0.059000000000000004
1747252184511266257,-0.051000000000000004
1747252184518953936,-0.034
1747252184526641615,-0.049
1747252184534329294,-0.08600000000000001
1747252184542016973,-0.091
1747252184549704652,-0.068
1747252184557392331,-0.061
1747252184565080010,-0.068
1747252184572767689,-0.068
1747252184580455368,-0.056
1747252184588143047,-0.051000000000000004
1747252184595830726,-0.093
1747252184603518405,-0.189
1747252184611206084,-0.209
1747252184618893763,0.145
1747252184626581442,0.928
1747252184634269121,1.701
1747252184641956800,1.693
1747252184649644479,0.556
1747252184657332158,-0.484
1747252184665019837,-0.34700000000000003
1747252184672707516,-0.014
1747252184680395195,-0.164
1747252184688082874,-0.211
1747252184695770553,-0.096
1747252184703458232,-0.10300000000000001
1747252184711145911,-0.123
1747252184718833590,-0.073
1747252184726521269,-0.054
1747252184734208948,-0.041
1747252184741896627,-0.017
1747252184749584306,-0.012
1747252184757271985,-0.002
1747252184764959664,0.029
1747252184772647343,0.051000000000000004
1747252184780335022,0.061
1747252184788022701,0.091
1747252184795710380,0.125
1747252184803398059,0.14
1747252184811085738,0.15
1747252184818773417,0.177
1747252184826461096,0.20600000000000002
1747252184834148775,0.226
1747252184841836454,0.231
1747252184849524133,0.224
1747252184857211812,0.209
1747252184864899491,0.201
1747252184872587170,0.182
1747252184880274849,0.125
1747252184887962528,0.064
1747252184895650207,0.007
1747252184903337886,-0.059000000000000004
1747252184911025565,-0.113
1747252184918713244,-0.15
1747252184926400923,-0.177
1747252184934088602,-0.179
1747252184941776281,-0.17400000000000002
1747252184949463960,-0.17200000000000001
1747252184957151639,-0.152
1747252184964839318,-0.135
1747252184972526997,-0.145
1747252184980214676,-0.14
1747252184987902355,-0.11800000000000001
1747252184995590034,-0.113
1747252185003277713,-0.115
1747252185010965392,-0.1
1747252185018653071,-0.088
1747252185026340750,-0.098
1747252185034028429,-0.10300000000000001
1747252185041716108,-0.1
1747252185049403787,-0.1
1747252185057091466,-0.096
1747252185064779163,-0.08600000000000001,92,644
1747252185072466702,-0.083
1747252185080154241,-0.083
1747252185087841780,-0.078
1747252185095529319,-0.073
1747252185103216858,-0.076
1747252185110904397,-0.091
1747252185118591936,-0.1
1747252185126279475,-0.096
1747252185133967014,-0.076
1747252185141654553,-0.059000000000000004
1747252185149342092,-0.056
1747252185157029631,-0.061
1747252185164717170,-0.054
1747252185172404709,-0.029
1747252185180092248,-0.034
1747252185187779787,-0.078
1747252185195467326,-0.088
1747252185203154865,-0.059000000000000004
1747252185210842404,-0.051000000000000004
1747252185218529943,-0.059000000000000004
1747252185226217482,-0.054
1747252185233905021,-0.049
1747252185241592560,-0.061
1747252185249280099,-0.096
1747252185256967638,-0.17400000000000002
1747252185264655177,-0.246
1747252185272342716,-0.017
1747252185280030255,0.721
1747252185287717794,1.59
1747252185295405333,1.866
1747252185303092872,0.982
1747252185310780411,-0.307
1747252185318467950,-0.494
1747252185326155489,-0.068
1747252185333843028,-0.11800000000000001
1747252185341530567,-0.221
1747252185349218106,-0.1
1747252185356905645,-0.093
1747252185364593184,-0.135
1747252185372280723,-0.078
1747252185379968262,-0.044
1747252185387655801,-0.051000000000000004
1747252185395343340,-0.027
1747252185403030879,-0.002
1747252185410718418,0.007
1747252185418405957,0.022
1747252185426093496,0.039
1747252185433781035,0.064
1747252185441468574,0.088
1747252185449156113,0.10300000000000001
1747252185456843652,0.125
1747252185464531191,0.15
1747252185472218730,0.169
1747252185479906269,0.189
1747252185487593808,0.201
1747252185495281347,0.20600000000000002
1747252185502968886,0.196
1747252185510656425,0.182
1747252185518343964,0.167
1747252185526031503,0.14200000000000002
1747252185533719042,0.108
1747252185541406581,0.059000000000000004
1747252185549094120,-0.009000000000000001
1747252185556781659,-0.076
1747252185564469198,-0.128
1747252185572156737,-0.167
1747252185579844276,-0.194
1747252185587531815,-0.194
1747252185595219354,-0.184
1747252185602906893,-0.184
1747252185610594432,-0.177
1747252185618281971,-0.16
1747252185625969578,-0.157
1747252185633657536,-0.155
1747252185641345494,-0.14200000000000002
1747252185649033452,-0.132
1747252185656721410,-0.135
1747252185664409368,-0.13
1747252185672097326,-0.11800000000000001
1747252185679785284,-0.115
1747252185687473242,-0.11800000000000001
1747252185695161200,-0.113
1747252185702849158,-0.11
1747252185710537116,-0.11800000000000001
1747252185718225074,-0.11
1747252185725913032,-0.10300000000000001
1747252185733600990,-0.12
1747252185741288948,-0.11800000000000001
1747252185748976906,-0.1
1747252185756664864,-0.10300000000000001
1747252185764352822,-0.11
1747252185772040780,-0.113
1747252185779728738,-0.115
1747252185787416696,-0.113
1747252185795104654,-0.1
1747252185802792612,-0.08600000000000001
1747252185810480570,-0.081
1747252185818168528,-0.081
1747252185825856486,-0.068
1747252185833544444,-0.064
1747252185841232402,-0.078
1747252185848920360,-0.1
1747252185856608318,-0.098
1747252185864296276,-0.08600000000000001
1747252185871984234,-0.083
1747252185879672192,-0.083
1747252185887360150,-0.081
1747252185895048108,-0.078
1747252185902736066,-0.096
1747252185910424024,-0.157
1747252185918111982,-0.241
1747252185925799940,-0.137
1747252185933487898,0.406
1747252185941175856,1.201
1747252185948863814,1.73
1747252185956551772,1.349
1747252185964239730,0.083
1747252185971927688,-0.6
1747252185979615646,-0.224
1747252185987303604,-0.034
1747252185994991562,-0.228
1747252186002679520,-0.196
1747252186010367478,-0.105
1747252186018055436,-0.145
1747252186025743394,-0.135
1747252186033431352,-0.083
1747252186041119310,-0.083
1747252186048807268,-0.073
1747252186056495226,-0.044
1747252186064183184,-0.036000000000000004
1747252186071871142,-0.029
1747252186079559100,0.0
1747252186087247058,0.014
1747252186094935016,0.022
1747252186102622974,0.046
1747252186110310932,0.07100000000000001
1747252186117998890,0.091
1747252186125686848,0.11
1747252186133374806,0.128
1747252186141062764,0.135
1747252186148750722,0.14
1747252186156438680,0.14200000000000002
1747252186164126638,0.14
1747252186171814596,0.128
1747252186179502554,0.11
1747252186187190515,0.088,92,654
1747252186194878054,0.046,,660
1747252186202565593,-0.014
1747252186210253132,-0.078
1747252186217940671,-0.128
1747252186225628210,-0.162
1747252186233315749,-0.189
1747252186241003288,-0.196
1747252186248690827,-0.199
1747252186256378366,-0.199
1747252186264065905,-0.192
1747252186271753444,-0.182
1747252186279440983,-0.17400000000000002
1747252186287128522,-0.162
1747252186294816061,-0.155
1747252186302503600,-0.155
1747252186310191139,-0.147
1747252186317878678,-0.14200000000000002
1747252186325566217,-0.14200000000000002
1747252186333253756,-0.137
1747252186340941295,-0.132
1747252186348628834,-0.132
1747252186356316373,-0.132
1747252186364003912,-0.125
1747252186371691451,-0.12
1747252186379378990,-0.12
1747252186387066529,-0.115
1747252186394754068,-0.113
1747252186402441607,-0.11800000000000001
1747252186410129146,-0.11800000000000001
1747252186417816685,-0.11
1747252186425504224,-0.105
1747252186433191763,-0.11
1747252186440879302,-0.12
1747252186448566841,-0.12
1747252186456254380,-0.11
1747252186463941919,-0.098
1747252186471629458,-0.088
1747252186479316997,-0.088
1747252186487004536,-0.083
1747252186494692075,-0.068
1747252186502379614,-0.068
1747252186510067153,-0.091
1747252186517754692,-0.10300000000000001
1747252186525442231,-0.098
1747252186533129770,-0.091
1747252186540817309,-0.08600000000000001
1747252186548504848,-0.081
1747252186556192387,-0.076
1747252186563879926,-0.08600000000000001
1747252186571567465,-0.113
1747252186579255004,-0.177
1747252186586942543,-0.248
1747252186594630082,-0.076
1747252186602317621,0.548
1747252186610005160,1.366
1747252186617692699,1.7570000000000001
1747252186625380238,1.068
1747252186633067777,-0.209
1747252186640755316,-0.551
1747252186648442855,-0.12
1747252186656130394,-0.093
1747252186663817933,-0.258
1747252186671505472,-0.17200000000000001
1747252186679193011,-0.115
1747252186686880550,-0.155
1747252186694568089,-0.128
1747252186702255628,-0.08600000000000001
1747252186709943167,-0.088
1747252186717630706,-0.076
1747252186725318245,-0.049
1747252186733005784,-0.034
1747252186740693323,-0.022
1747252186748380930,-0.007
1747252186756068678,0.007
1747252186763756426,0.029
1747252186771444174,0.051000000000000004
1747252186779131922,0.068
1747252186786819670,0.091
1747252186794507418,0.115
1747252186802195166,0.13
1747252186809882914,0.14200000000000002
1747252186817570662,0.145
1747252186825258410,0.14200000000000002
1747252186832946158,0.135
1747252186840633906,0.125
1747252186848321654,0.11
1747252186856009402,0.081
1747252186863697150,0.034
1747252186871384898,-0.024
1747252186879072646,-0.083
1747252186886760394,-0.137
1747252186894448142,-0.182
1747252186902135890,-0.196
1747252186909823638,-0.199
1747252186917511386,-0.20400000000000001
1747252186925199134,-0.196
1747252186932886882,-0.187
1747252186940574630,-0.182
1747252186948262378,-0.17200000000000001
1747252186955950126,-0.162
1747252186963637874,-0.155
1747252186971325622,-0.152
1747252186979013370,-0.147
1747252186986701118,-0.145
1747252186994388866,-0.137
1747252187002076614,-0.13
1747252187009764362,-0.13
1747252187017452110,-0.13
1747252187025139858,-0.125
1747252187032827606,-0.125
1747252187040515354,-0.12
1747252187048203102,-0.115
1747252187055890850,-0.115
1747252187063578598,-0.115
1747252187071266346,-0.113
1747252187078954094,-0.11
1747252187086641842,-0.108
1747252187094329590,-0.105
1747252187102017338,-0.105
1747252187109705086,-0.105
1747252187117392834,-0.11
1747252187125080582,-0.11800000000000001
1747252187132768330,-0.105
1747252187140456078,-0.088
1747252187148143826,-0.078
1747252187155831574,-0.076
1747252187163519322,-0.07100000000000001
1747252187171207070,-0.056
1747252187178894818,-0.061
1747252187186582566,-0.088
1747252187194270314,-0.1
1747252187201958062,-0.088
1747252187209645810,-0.078
1747252187217333558,-0.076
1747252187225021306,-0.073
1747252187232709054,-0.068
1747252187240396802,-0.076
1747252187248084550,-0.105
1747252187255772298,-0.179
1747252187263460046,-0.246
1747252187271147794,-0.044
1747252187278835542,0.622
1747252187286523290,1.445
1747252187294211038,1.7550000000000001
1747252187301898786,0.9570000000000001
1747252187309586606,-0.28800000000000003,92,655
1747252187317274215,-0.512
1747252187324961824,-0.088
1747252187332649433,-0.11
1747252187340337042,-0.253
1747252187348024651,-0.157
1747252187355712260,-0.113
1747252187363399869,-0.15
1747252187371087478,-0.11800000000000001
1747252187378775087,-0.081
1747252187386462696,-0.083
1747252187394150305,-0.066
1747252187401837914,-0.039
1747252187409525523,-0.027
1747252187417213132,-0.017
1747252187424900741,0.004
1747252187432588350,0.024
1747252187440275959,0.041
1747252187447963568,0.064
1747252187455651177,0.081
1747252187463338786,0.098
1747252187471026395,0.123
1747252187478714004,0.145
1747252187486401613,0.155
1747252187494089222,0.155
1747252187501776831,0.152
1747252187509464440,0.145
1747252187517152049,0.13
1747252187524839658,0.115
1747252187532527267,0.091
1747252187540214876,0.044
1747252187547902485,-0.019
1747252187555590094,-0.081
1747252187563277703,-0.123
1747252187570965312,-0.162
1747252187578652921,-0.184
1747252187586340530,-0.187
1747252187594028139,-0.184
1747252187601715748,-0.179
1747252187609403357,-0.17400000000000002
1747252187617090966,-0.164
1747252187624778575,-0.155
1747252187632466184,-0.147
1747252187640153793,-0.14
1747252187647841402,-0.132
1747252187655529011,-0.128
1747252187663216620,-0.125
1747252187670904229,-0.11800000000000001
1747252187678591838,-0.115
1747252187686279447,-0.115
1747252187693967056,-0.115
1747252187701654665,-0.115
1747252187709342274,-0.11
1747252187717029883,-0.105
1747252187724717492,-0.105
1747252187732405101,-0.108
1747252187740092710,-0.1
1747252187747780319,-0.093
1747252187755467928,-0.093
1747252187763155537,-0.093
1747252187770843146,-0.08600000000000001
1747252187778530755,-0.083
1747252187786218364,-0.08600000000000001
1747252187793905973,-0.093
1747252187801593582,-0.1
1747252187809281191,-0.098
1747252187816968800,-0.081
1747252187824656409,-0.066
1747252187832344018,-0.064
1747252187840031627,-0.066
1747252187847719236,-0.056
1747252187855406845,-0.044
1747252187863094454,-0.061
1747252187870782108,-0.08600000000000001
1747252187878469787,-0.08600000000000001
1747252187886157466,-0.076
1747252187893845145,-0.073
1747252187901532824,-0.073
1747252187909220503,-0.07100000000000001
1747252187916908182,-0.07100000000000001
1747252187924595861,-0.083
1747252187932283540,-0.125
1747252187939971219,-0.216
1747252187947658898,-0.214
1747252187955346577,0.189
1747252187963034256,0.979
1747252187970721935,1.661
1747252187978409614,1.5230000000000001
1747252187986097293,0.359
1747252187993784972,-0.556
1747252188001472651,-0.332
1747252188009160330,-0.039
1747252188016848009,-0.20400000000000001
1747252188024535688,-0.219
1747252188032223367,-0.108
1747252188039911046,-0.137
1747252188047598725,-0.152
1747252188055286404,-0.096
1747252188062974083,-0.07100000000000001
1747252188070661762,-0.073
1747252188078349441,-0.064
1747252188086037120,-0.049
1747252188093724799,-0.032
1747252188101412478,-0.009000000000000001
1747252188109100157,0.002
1747252188116787836,0.012
1747252188124475515,0.036000000000000004
1747252188132163194,0.061
1747252188139850873,0.078
1747252188147538552,0.096
1747252188155226231,0.115
1747252188162913910,0.13
1747252188170601589,0.137
1747252188178289268,0.13
1747252188185976947,0.12
1747252188193664626,0.11800000000000001
1747252188201352305,0.1
1747252188209039984,0.076
1747252188216727663,0.041
1747252188224415342,-0.012
1747252188232103021,-0.066
1747252188239790700,-0.115
1747252188247478379,-0.162
1747252188255166058,-0.194
1747252188262853737,-0.20400000000000001
1747252188270541416,-0.201
1747252188278229095,-0.20400000000000001
1747252188285916774,-0.194
1747252188293604453,-0.17400000000000002
1747252188301292132,-0.169
1747252188308979811,-0.17200000000000001
1747252188316667490,-0.157
1747252188324355169,-0.15
1747252188332042848,-0.155
1747252188339730527,-0.14200000000000002
1747252188347418206,-0.13
1747252188355105885,-0.132
1747252188362793564,-0.135
1747252188370481243,-0.125
1747252188378168922,-0.12
1747252188385856601,-0.125
1747252188393544280,-0.12
1747252188401231959,-0.11800000000000001
1747252188408919638,-0.11800000000000001
1747252188416607317,-0.113
1747252188424294996,-0.113
1747252188431982693,-0.115,92,656
1747252188439670232,-0.108,,667
1747252188447357771,-0.10300000000000001
1747252188455045310,-0.108
1747252188462732849,-0.108
1747252188470420388,-0.10300000000000001
1747252188478107927,-0.10300000000000001
1747252188485795466,-0.115
1747252188493483005,-0.12
1747252188501170544,-0.11
1747252188508858083,-0.088
1747252188516545622,-0.073
1747252188524233161,-0.076
1747252188531920700,-0.07100000000000001
1747252188539608239,-0.056
1747252188547295778,-0.064
1747252188554983317,-0.088
1747252188562670856,-0.098
1747252188570358395,-0.088
1747252188578045934,-0.081
1747252188585733473,-0.078
1747252188593421012,-0.073
1747252188601108551,-0.073
1747252188608796090,-0.08600000000000001
1747252188616483629,-0.11800000000000001
1747252188624171168,-0.196
1747252188631858707,-0.233
1747252188639546246,0.073
1747252188647233785,0.834
1747252188654921324,1.612
1747252188662608863,1.639
1747252188670296402,0.5660000000000001
1747252188677983941,-0.47000000000000003
1747252188685671480,-0.381
1747252188693359019,-0.061
1747252188701046558,-0.182
1747252188708734097,-0.216
1747252188716421636,-0.113
1747252188724109175,-0.125
1747252188731796714,-0.14
1747252188739484253,-0.093
1747252188747171792,-0.078
1747252188754859331,-0.076
1747252188762546870,-0.049
1747252188770234409,-0.032
1747252188777921948,-0.024
1747252188785609487,0.0
1747252188793297026,0.019
1747252188800984565,0.032
1747252188808672104,0.054
1747252188816359643,0.078
1747252188824047182,0.093
1747252188831734721,0.113
1747252188839422260,0.135
1747252188847109799,0.15
1747252188854797338,0.157
1747252188862484877,0.157
1747252188870172416,0.152
1747252188877859955,0.14
1747252188885547494,0.123
1747252188893235033,0.1
1747252188900922572,0.07100000000000001
1747252188908610111,0.027
1747252188916297650,-0.034
1747252188923985189,-0.093
1747252188931672728,-0.137
1747252188939360267,-0.167
1747252188947047806,-0.189
1747252188954735345,-0.201
1747252188962422884,-0.199
1747252188970110423,-0.189
1747252188977797962,-0.182
1747252188985485501,-0.177
1747252188993173108,-0.167,92,676
1747252189000861066,-0.155
1747252189008549024,-0.147
1747252189016236982,-0.14200000000000002
1747252189023924940,-0.135
1747252189031612898,-0.13
1747252189039300856,-0.132
1747252189046988814,-0.132
1747252189054676772,-0.125
1747252189062364730,-0.125
1747252189070052688,-0.125
1747252189077740646,-0.125
1747252189085428604,-0.12
1747252189093116562,-0.115
1747252189100804520,-0.11800000000000001
1747252189108492478,-0.11800000000000001
1747252189116180436,-0.113
1747252189123868394,-0.11
1747252189131556352,-0.113
1747252189139244310,-0.108
1747252189146932268,-0.105
1747252189154620226,-0.11
1747252189162308184,-0.11800000000000001
1747252189169996142,-0.123
1747252189177684100,-0.115
1747252189185372058,-0.096
1747252189193060016,-0.081
1747252189200747974,-0.081
1747252189208435932,-0.078
1747252189216123890,-0.059000000000000004
1747252189223811848,-0.064
1747252189231499806,-0.098
1747252189239187764,-0.11
1747252189246875722,-0.098
1747252189254563680,-0.091
1747252189262251638,-0.088
1747252189269939596,-0.088
1747252189277627554,-0.08600000000000001
1747252189285315512,-0.088
1747252189293003470,-0.113
1747252189300691428,-0.179
1747252189308379386,-0.23800000000000002
1747252189316067344,-0.046
1747252189323755302,0.595
1747252189331443260,1.415
1747252189339131218,1.733
1747252189346819176,0.933
1747252189354507134,-0.28800000000000003
1747252189362195092,-0.507
1747252189369883050,-0.11800000000000001
1747252189377571008,-0.137
1747252189385258966,-0.246
1747252189392946924,-0.152
1747252189400634882,-0.128
1747252189408322840,-0.155
1747252189416010798,-0.11
1747252189423698756,-0.078
1747252189431386714,-0.08600000000000001
1747252189439074672,-0.064
1747252189446762630,-0.032
1747252189454450588,-0.017
1747252189462138546,-0.002
1747252189469826504,0.019
1747252189477514462,0.032
1747252189485202420,0.049
1747252189492890378,0.078
1747252189500578336,0.1
1747252189508266294,0.115
1747252189515954252,0.14200000000000002
1747252189523642210,0.162
1747252189531330168,0.17200000000000001
1747252189539018126,0.179
1747252189546706084,0.177
1747252189554394045,0.167
1747252189562081584,0.155
1747252189569769123,0.13
1747252189577456662,0.10300000000000001
1747252189585144201,0.059000000000000004
1747252189592831740,-0.004
1747252189600519279,-0.066
1747252189608206818,-0.12
1747252189615894357,-0.16
1747252189623581896,-0.179
1747252189631269435,-0.184
1747252189638956974,-0.187
1747252189646644513,-0.184
1747252189654332052,-0.17200000000000001
1747252189662019591,-0.162
1747252189669707130,-0.157
1747252189677394669,-0.145
1747252189685082208,-0.125
1747252189692769747,-0.115
1747252189700457286,-0.12
1747252189708144825,-0.115
1747252189715832364,-0.105
1747252189723519903,-0.10300000000000001
1747252189731207442,-0.1
1747252189738894981,-0.098
1747252189746582520,-0.1
1747252189754270059,-0.105
1747252189761957598,-0.098
1747252189769645137,-0.091
1747252189777332676,-0.096
1747252189785020215,-0.096
1747252189792707754,-0.08600000000000001
1747252189800395293,-0.08600000000000001
1747252189808082832,-0.093
1747252189815770371,-0.091
1747252189823457910,-0.091
1747252189831145449,-0.105
1747252189838832988,-0.105
1747252189846520527,-0.083
1747252189854208066,-0.056
1747252189861895605,-0.054
1747252189869583144,-0.07100000000000001
1747252189877270683,-0.046
1747252189884958222,-0.022
1747252189892645761,-0.059000000000000004
1747252189900333300,-0.093
1747252189908020839,-0.081
1747252189915708378,-0.066
1747252189923395917,-0.064
1747252189931083456,-0.061
1747252189938770995,-0.054
1747252189946458534,-0.064
1747252189954146073,-0.091
1747252189961833612,-0.132
1747252189969521151,-0.209
1747252189977208690,-0.132
1747252189984896229,0.398
1747252189992583768,1.238
1747252190000271307,1.797
1747252190007958846,1.366
1747252190015646385,0.061
1747252190023333924,-0.59
1747252190031021463,-0.196
1747252190038709002,-0.024
1747252190046396541,-0.20400000000000001
1747252190054084080,-0.167
1747252190061771619,-0.088
1747252190069459158,-0.113
1747252190077146697,-0.10300000000000001
1747252190084834236,-0.064
1747252190092521775,-0.054
1747252190100209314,-0.036000000000000004
1747252190107896853,-0.007
1747252190115584460,0.0,91,681
1747252190123272208,0.007,,686
1747252190130959956,0.039
1747252190138647704,0.066
1747252190146335452,0.083
1747252190154023200,0.108
1747252190161710948,0.113
1747252190169398696,0.123
1747252190177086444,0.167
1747252190184774192,0.201
1747252190192461940,0.216
1747252190200149688,0.224
1747252190207837436,0.211
1747252190215525184,0.179
1747252190223212932,0.17200000000000001
1747252190230900680,0.162
1747252190238588428,0.125
1747252190246276176,0.091
1747252190253963924,0.034
1747252190261651672,-0.061
1747252190269339420,-0.13
1747252190277027168,-0.155
1747252190284714916,-0.162
1747252190292402664,-0.17400000000000002
1747252190300090412,-0.182
1747252190307778160,-0.179
1747252190315465908,-0.179
1747252190323153656,-0.167
1747252190330841404,-0.145
1747252190338529152,-0.137
1747252190346216900,-0.125
1747252190353904648,-0.113
1747252190361592396,-0.115
1747252190369280144,-0.113
1747252190376967892,-0.108
1747252190384655640,-0.098
1747252190392343388,-0.091
1747252190400031136,-0.098
1747252190407718884,-0.10300000000000001
1747252190415406632,-0.093
1747252190423094380,-0.093
1747252190430782128,-0.091
1747252190438469876,-0.093
1747252190446157624,-0.1
1747252190453845372,-0.093
1747252190461533120,-0.08600000000000001
1747252190469220868,-0.098
1747252190476908616,-0.108
1747252190484596364,-0.105
1747252190492284112,-0.096
1747252190499971860,-0.088
1747252190507659608,-0.078
1747252190515347356,-0.07100000000000001
1747252190523035104,-0.066
1747252190530722852,-0.061
1747252190538410600,-0.068
1747252190546098348,-0.091
1747252190553786096,-0.105
1747252190561473844,-0.096
1747252190569161592,-0.083
1747252190576849340,-0.081
1747252190584537088,-0.08600000000000001
1747252190592224836,-0.08600000000000001
1747252190599912584,-0.088
1747252190607600332,-0.13
1747252190615288080,-0.224
1747252190622975828,-0.248
1747252190630663576,0.113
1747252190638351324,0.903
1747252190646039072,1.622
1747252190653726820,1.6340000000000001
1747252190661414568,0.605
1747252190669102316,-0.484
1747252190676790136,-0.443
1747252190684477745,-0.07100000000000001
1747252190692165354,-0.189
1747252190699852963,-0.246
1747252190707540572,-0.125
1747252190715228181,-0.132
1747252190722915790,-0.16
1747252190730603399,-0.10300000000000001
1747252190738291008,-0.083
1747252190745978617,-0.091
1747252190753666226,-0.068
1747252190761353835,-0.049
1747252190769041444,-0.039
1747252190776729053,-0.017
1747252190784416662,0.002
1747252190792104271,0.014
1747252190799791880,0.034
1747252190807479489,0.059000000000000004
1747252190815167098,0.076
1747252190822854707,0.091
1747252190830542316,0.11
1747252190838229925,0.128
1747252190845917534,0.135
1747252190853605143,0.132
1747252190861292752,0.11800000000000001
1747252190868980361,0.10300000000000001
1747252190876667970,0.093
1747252190884355579,0.076
1747252190892043188,0.039
1747252190899730797,-0.019
1747252190907418406,-0.081
1747252190915106015,-0.13
1747252190922793624,-0.167
1747252190930481233,-0.194
1747252190938168842,-0.211
1747252190945856451,-0.211
1747252190953544060,-0.20400000000000001
1747252190961231669,-0.194
1747252190968919278,-0.184
1747252190976606887,-0.17400000000000002
1747252190984294496,-0.167
1747252190991982105,-0.16
1747252190999669714,-0.152
1747252191007357323,-0.145
1747252191015044932,-0.137
1747252191022732541,-0.13
1747252191030420150,-0.125
1747252191038107759,-0.125
1747252191045795368,-0.123
1747252191053482977,-0.115
1747252191061170586,-0.113
1747252191068858195,-0.115
1747252191076545804,-0.12
1747252191084233413,-0.11800000000000001
1747252191091921022,-0.108
1747252191099608631,-0.108
1747252191107296240,-0.115
1747252191114983849,-0.113
1747252191122671458,-0.115
1747252191130359067,-0.12
1747252191138046676,-0.115
1747252191145734285,-0.1
1747252191153421894,-0.091
1747252191161109503,-0.091
1747252191168797112,-0.088
1747252191176484721,-0.076
1747252191184172330,-0.068
1747252191191859939,-0.081
1747252191199547548,-0.1
1747252191207235157,-0.1
1747252191214922766,-0.093
1747252191222610375,-0.093
1747252191230297984,-0.088
1747252191237985638,-0.078,90,679
1747252191245673317,-0.081
1747252191253360996,-0.10300000000000001
1747252191261048675,-0.157
1747252191268736354,-0.23600000000000002
1747252191276424033,-0.14200000000000002
1747252191284111712,0.401
1747252191291799391,1.228
1747252191299487070,1.772
1747252191307174749,1.351
1747252191314862428,0.066
1747252191322550107,-0.598
1747252191330237786,-0.226
1747252191337925465,-0.056
1747252191345613144,-0.248
1747252191353300823,-0.211
1747252191360988502,-0.115
1747252191368676181,-0.152
1747252191376363860,-0.15
1747252191384051539,-0.1
1747252191391739218,-0.088
1747252191399426897,-0.078
1747252191407114576,-0.056
1747252191414802255,-0.041
1747252191422489934,-0.029
1747252191430177613,-0.012
1747252191437865292,0.007
1747252191445552971,0.027
1747252191453240650,0.051000000000000004
1747252191460928329,0.07100000000000001
1747252191468616008,0.093
1747252191476303687,0.12
1747252191483991366,0.137
1747252191491679045,0.147
1747252191499366724,0.152
1747252191507054403,0.15
1747252191514742082,0.14200000000000002
1747252191522429761,0.13
1747252191530117440,0.105
1747252191537805119,0.078
1747252191545492798,0.029
1747252191553180477,-0.036000000000000004
1747252191560868156,-0.105
1747252191568555835,-0.155
1747252191576243514,-0.187
1747252191583931193,-0.20600000000000002
1747252191591618872,-0.216
1747252191599306551,-0.214
1747252191606994230,-0.20400000000000001
1747252191614681909,-0.196
1747252191622369588,-0.189
1747252191630057267,-0.179
1747252191637744946,-0.167
1747252191645432625,-0.157
1747252191653120304,-0.155
1747252191660807983,-0.15
1747252191668495662,-0.145
1747252191676183341,-0.14
1747252191683871020,-0.135
1747252191691558699,-0.13
1747252191699246378,-0.128
1747252191706934057,-0.125
1747252191714621736,-0.123
1747252191722309415,-0.12
1747252191729997094,-0.11800000000000001
1747252191737684773,-0.12
1747252191745372452,-0.11800000000000001
1747252191753060131,-0.113
1747252191760747810,-0.11
1747252191768435489,-0.11
1747252191776123168,-0.113
1747252191783810847,-0.11800000000000001
1747252191791498526,-0.12
1747252191799186223,-0.11800000000000001
1747252191806873762,-0.105
1747252191814561301,-0.091
1747252191822248840,-0.088
1747252191829936379,-0.083
1747252191837623918,-0.07100000000000001
1747252191845311457,-0.076
1747252191852998996,-0.096
1747252191860686535,-0.108
1747252191868374074,-0.105
1747252191876061613,-0.096
1747252191883749152,-0.093
1747252191891436691,-0.088
1747252191899124230,-0.083
1747252191906811769,-0.08600000000000001
1747252191914499308,-0.115
1747252191922186847,-0.182
1747252191929874386,-0.253
1747252191937561925,-0.091
1747252191945249464,0.544
1747252191952937003,1.3980000000000001
1747252191960624542,1.811
1747252191968312081,1.139
1747252191975999620,-0.167
1747252191983687159,-0.5730000000000001
1747252191991374698,-0.15
1747252191999062237,-0.098
1747252192006749776,-0.263
1747252192014437315,-0.184
1747252192022124854,-0.123
1747252192029812393,-0.162
1747252192037499932,-0.135
1747252192045187471,-0.088
1747252192052875010,-0.091
1747252192060562549,-0.083
1747252192068250088,-0.051000000000000004
1747252192075937627,-0.034
1747252192083625166,-0.027
1747252192091312705,-0.004
1747252192099000244,0.019
1747252192106687783,0.036000000000000004
1747252192114375322,0.056
1747252192122062861,0.081
1747252192129750400,0.10300000000000001
1747252192137437939,0.128
1747252192145125478,0.15
1747252192152813017,0.164
1747252192160500556,0.162
1747252192168188095,0.157
1747252192175875634,0.152
1747252192183563173,0.137
1747252192191250712,0.11800000000000001
1747252192198938251,0.08600000000000001
1747252192206625790,0.032
1747252192214313329,-0.039
1747252192222000868,-0.1
1747252192229688407,-0.15
1747252192237375946,-0.187
1747252192245063485,-0.20600000000000002
1747252192252751024,-0.216
1747252192260438563,-0.219
1747252192268126102,-0.20600000000000002
1747252192275813641,-0.194
1747252192283501180,-0.189
1747252192291188719,-0.182
1747252192298876258,-0.167
1747252192306563797,-0.157
1747252192314251336,-0.152
1747252192321938875,-0.147
1747252192329626414,-0.15
1747252192337313953,-0.14200000000000002
1747252192345001492,-0.132
1747252192352689031,-0.132
1747252192360376638,-0.132,90,663
1747252192368064247,-0.13,,648
1747252192375751856,-0.125
1747252192383439465,-0.123
1747252192391127074,-0.123
1747252192398814683,-0.11800000000000001
1747252192406502292,-0.11800000000000001
1747252192414189901,-0.11800000000000001
1747252192421877510,-0.115
1747252192429565119,-0.113
1747252192437252728,-0.115
1747252192444940337,-0.12
1747252192452627946,-0.125
1747252192460315555,-0.123
1747252192468003164,-0.11
1747252192475690773,-0.091
1747252192483378382,-0.08600000000000001
1747252192491065991,-0.08600000000000001
1747252192498753600,-0.073
1747252192506441209,-0.066
1747252192514128818,-0.08600000000000001
1747252192521816427,-0.108
1747252192529504036,-0.105
1747252192537191645,-0.093
1747252192544879254,-0.088
1747252192552566863,-0.08600000000000001
1747252192560254472,-0.083
1747252192567942081,-0.083
1747252192575629690,-0.10300000000000001
1747252192583317299,-0.16
1747252192591004908,-0.246
1747252192598692517,-0.164
1747252192606380126,0.371
1747252192614067735,1.233
1747252192621755344,1.811
1747252192629442953,1.358
1747252192637130562,0.054
1747252192644818171,-0.585
1747252192652505780,-0.228
1747252192660193389,-0.078
1747252192667880998,-0.248
1747252192675568607,-0.20400000000000001
1747252192683256216,-0.12
1747252192690943825,-0.155
1747252192698631434,-0.15
1747252192706319043,-0.1
1747252192714006652,-0.088
1747252192721694261,-0.081
1747252192729381870,-0.056
1747252192737069479,-0.041
1747252192744757088,-0.029
1747252192752444697,-0.007
1747252192760132306,0.012
1747252192767819915,0.032
1747252192775507524,0.054
1747252192783195133,0.078
1747252192790882742,0.1
1747252192798570351,0.123
1747252192806257960,0.145
1747252192813945569,0.162
1747252192821633178,0.167
1747252192829320787,0.162
1747252192837008396,0.152
1747252192844696005,0.137
1747252192852383614,0.12
1747252192860071223,0.091
1747252192867758832,0.036000000000000004
1747252192875446441,-0.029
1747252192883134050,-0.091
1747252192890821659,-0.145
1747252192898509268,-0.184
1747252192906196877,-0.20400000000000001
1747252192913884486,-0.216
1747252192921572144,-0.214,90,650
1747252192929259753,-0.20600000000000002
1747252192936947362,-0.196
1747252192944634971,-0.189
1747252192952322580,-0.179
1747252192960010189,-0.169
1747252192967697798,-0.16
1747252192975385407,-0.152
1747252192983073016,-0.147
1747252192990760625,-0.14
1747252192998448234,-0.137
1747252193006135843,-0.135
1747252193013823452,-0.13
1747252193021511061,-0.125
1747252193029198670,-0.123
1747252193036886279,-0.123
1747252193044573888,-0.123
1747252193052261497,-0.12
1747252193059949106,-0.11800000000000001
1747252193067636715,-0.113
1747252193075324324,-0.11
1747252193083011933,-0.113
1747252193090699542,-0.11
1747252193098387151,-0.105
1747252193106074760,-0.105
1747252193113762369,-0.10300000000000001
1747252193121449978,-0.108
1747252193129137587,-0.11800000000000001
1747252193136825196,-0.11800000000000001
1747252193144512805,-0.1
1747252193152200414,-0.083
1747252193159888023,-0.076
1747252193167575632,-0.073
1747252193175263241,-0.056
1747252193182950850,-0.054
1747252193190638459,-0.078
1747252193198326068,-0.098
1747252193206013677,-0.091
1747252193213701286,-0.083
1747252193221388895,-0.088
1747252193229076504,-0.08600000000000001
1747252193236764113,-0.076
1747252193244451722,-0.073
1747252193252139331,-0.096
1747252193259826940,-0.152
1747252193267514549,-0.23800000000000002
1747252193275202158,-0.179
1747252193282889767,0.327
1747252193290577376,1.181
1747252193298264985,1.794
1747252193305952594,1.413
1747252193313640203,0.128
1747252193321327812,-0.5710000000000001
1747252193329015421,-0.23800000000000002
1747252193336703030,-0.059000000000000004
1747252193344390639,-0.228
1747252193352078248,-0.199
1747252193359765857,-0.113
1747252193367453466,-0.14200000000000002
1747252193375141075,-0.14
1747252193382828684,-0.096
1747252193390516293,-0.083
1747252193398203902,-0.078
1747252193405891511,-0.051000000000000004
1747252193413579120,-0.032
1747252193421266729,-0.017
1747252193428954338,0.002
1747252193436641947,0.019
1747252193444329556,0.036000000000000004
1747252193452017165,0.064
1747252193459704774,0.088
1747252193467392383,0.108
1747252193475079992,0.132
1747252193482767646,0.157
1747252193490455464,0.169
1747252193498143282,0.17400000000000002
1747252193505831100,0.17200000000000001
1747252193513518918,0.164
1747252193521206736,0.145
1747252193528894554,0.125
1747252193536582372,0.098
1747252193544270190,0.051000000000000004
1747252193551958008,-0.012
1747252193559645826,-0.078
1747252193567333644,-0.132
1747252193575021462,-0.17400000000000002
1747252193582709280,-0.199
1747252193590397098,-0.214
1747252193598084916,-0.219
1747252193605772734,-0.209
1747252193613460552,-0.194
1747252193621148370,-0.187
1747252193628836188,-0.179
1747252193636524006,-0.17200000000000001
1747252193644211824,-0.162
1747252193651899642,-0.152
1747252193659587460,-0.145
1747252193667275278,-0.135
1747252193674963096,-0.13
1747252193682650914,-0.128
1747252193690338732,-0.125
1747252193698026550,-0.125
1747252193705714368,-0.125
1747252193713402186,-0.12
1747252193721090004,-0.11800000000000001
1747252193728777822,-0.115
1747252193736465640,-0.108
1747252193744153458,-0.108
1747252193751841276,-0.115
1747252193759529094,-0.113
1747252193767216912,-0.105
1747252193774904730,-0.098
1747252193782592548,-0.098
1747252193790280366,-0.105
1747252193797968184,-0.105
1747252193805656002,-0.105
1747252193813343820,-0.11
1747252193821031638,-0.096
1747252193828719456,-0.068
1747252193836407274,-0.066
1747252193844095092,-0.076
1747252193851782910,-0.061
1747252193859470728,-0.046
1747252193867158546,-0.076
1747252193874846364,-0.1
1747252193882534182,-0.088
1747252193890222000,-0.073
1747252193897909818,-0.073
1747252193905597636,-0.068
1747252193913285454,-0.064
1747252193920973272,-0.078
1747252193928661090,-0.098
1747252193936348908,-0.155
1747252193944036726,-0.23600000000000002
1747252193951724544,-0.088
1747252193959412362,0.534
1747252193967100180,1.3880000000000001
1747252193974787998,1.834
1747252193982475816,1.169
1747252193990163634,-0.15
1747252193997851452,-0.553
1747252194005539270,-0.137
1747252194013227088,-0.098
1747252194020914906,-0.246
1747252194028602724,-0.152
1747252194036290542,-0.10300000000000001
1747252194043978405,-0.155,91,659
1747252194051665944,-0.12,,662
1747252194059353483,-0.068
1747252194067041022,-0.073
1747252194074728561,-0.061
1747252194082416100,-0.027
1747252194090103639,-0.017
1747252194097791178,-0.009000000000000001
1747252194105478717,0.017
1747252194113166256,0.036000000000000004
1747252194120853795,0.056
1747252194128541334,0.081
1747252194136228873,0.105
1747252194143916412,0.128
1747252194151603951,0.157
1747252194159291490,0.17400000000000002
1747252194166979029,0.177
1747252194174666568,0.189
1747252194182354107,0.201
1747252194190041646,0.194
1747252194197729185,0.17200000000000001
1747252194205416724,0.14200000000000002
1747252194213104263,0.113
1747252194220791802,0.056
1747252194228479341,-0.029
1747252194236166880,-0.088
1747252194243854419,-0.123
1747252194251541958,-0.17200000000000001
1747252194259229497,-0.20600000000000002
1747252194266917036,-0.20400000000000001
1747252194274604575,-0.199
1747252194282292114,-0.20400000000000001
1747252194289979653,-0.184
1747252194297667192,-0.16
1747252194305354731,-0.155
1747252194313042270,-0.155
1747252194320729809,-0.15
1747252194328417348,-0.145
1747252194336104887,-0.13
1747252194343792426,-0.12
1747252194351479965,-0.11800000000000001
1747252194359167504,-0.105
1747252194366855043,-0.10300000000000001
1747252194374542582,-0.113
1747252194382230121,-0.105
1747252194389917660,-0.098
1747252194397605199,-0.105
1747252194405292738,-0.098
1747252194412980277,-0.096
1747252194420667816,-0.105
1747252194428355355,-0.088
1747252194436042894,-0.078
1747252194443730433,-0.098
1747252194451417972,-0.098
1747252194459105511,-0.08600000000000001
1747252194466793050,-0.088
1747252194474480589,-0.1
1747252194482168128,-0.1
1747252194489855667,-0.066
1747252194497543206,-0.049
1747252194505230745,-0.07100000000000001
1747252194512918284,-0.061
1747252194520605823,-0.029
1747252194528293362,-0.049
1747252194535980901,-0.093
1747252194543668440,-0.08600000000000001
1747252194551355979,-0.059000000000000004
1747252194559043518,-0.061
1747252194566731057,-0.068
1747252194574418596,-0.061
1747252194582106135,-0.064
1747252194589793674,-0.076
1747252194597481213,-0.128
1747252194605168820,-0.228
1747252194612856359,-0.132
1747252194620543898,0.467
1747252194628231437,1.356
1747252194635918976,1.863
1747252194643606515,1.2750000000000001
1747252194651294054,-0.07100000000000001
1747252194658981593,-0.5730000000000001
1747252194666669132,-0.155
1747252194674356671,-0.083
1747252194682044210,-0.248
1747252194689731749,-0.155
1747252194697419288,-0.093
1747252194705106827,-0.137
1747252194712794366,-0.1
1747252194720481905,-0.064
1747252194728169444,-0.081
1747252194735856983,-0.064
1747252194743544522,-0.019
1747252194751232061,-0.009000000000000001
1747252194758919600,-0.002
1747252194766607139,0.022
1747252194774294678,0.049
1747252194781982217,0.064
1747252194789669756,0.083
1747252194797357295,0.115
1747252194805044834,0.14200000000000002
1747252194812732373,0.162
1747252194820419912,0.184
1747252194828107451,0.194
1747252194835794990,0.192
1747252194843482529,0.194
1747252194851170068,0.179
1747252194858857607,0.155
1747252194866545146,0.135
1747252194874232685,0.10300000000000001
1747252194881920224,0.032
1747252194889607763,-0.046
1747252194897295302,-0.1
1747252194904982841,-0.145
1747252194912670380,-0.189
1747252194920357919,-0.221
1747252194928045458,-0.224
1747252194935732997,-0.216
1747252194943420536,-0.209
1747252194951108075,-0.199
1747252194958795614,-0.189
1747252194966483153,-0.182
1747252194974170692,-0.17400000000000002
1747252194981858231,-0.167
1747252194989545770,-0.16
1747252194997233309,-0.152
1747252195004920848,-0.14200000000000002
1747252195012608387,-0.137
1747252195020295926,-0.132
1747252195027983465,-0.123
1747252195035671004,-0.12
1747252195043358543,-0.12
1747252195051046082,-0.11800000000000001
1747252195058733621,-0.12
1747252195066421160,-0.128
1747252195074108699,-0.128
1747252195081796238,-0.12
1747252195089483777,-0.113
1747252195097171316,-0.113
1747252195104858855,-0.113
1747252195112546394,-0.115
1747252195120233933,-0.11800000000000001
1747252195127921472,-0.125
1747252195135609011,-0.13
1747252195143296550,-0.123
1747252195150984089,-0.105
1747252195158671628,-0.096
1747252195166359235,-0.093,91,677
1747252195174047193,-0.083
1747252195181735151,-0.07100000000000001
1747252195189423109,-0.073
1747252195197111067,-0.10300000000000001
1747252195204799025,-0.115
1747252195212486983,-0.10300000000000001
1747252195220174941,-0.091
1747252195227862899,-0.091
1747252195235550857,-0.093
1747252195243238815,-0.091
1747252195250926773,-0.098
1747252195258614731,-0.132
1747252195266302689,-0.214
1747252195273990647,-0.251
1747252195281678605,0.059000000000000004
1747252195289366563,0.812
1747252195297054521,1.609
1747252195304742479,1.7570000000000001
1747252195312430437,0.763
1747252195320118395,-0.435
1747252195327806353,-0.482
1747252195335494311,-0.078
1747252195343182269,-0.17400000000000002
1747252195350870227,-0.273
1747252195358558185,-0.157
1747252195366246143,-0.147
1747252195373934101,-0.177
1747252195381622059,-0.128
1747252195389310017,-0.1
1747252195396997975,-0.105
1747252195404685933,-0.081
1747252195412373891,-0.054
1747252195420061849,-0.044
1747252195427749807,-0.027
1747252195435437765,-0.004
1747252195443125723,0.012
1747252195450813681,0.034
1747252195458501639,0.059000000000000004
1747252195466189597,0.081
1747252195473877555,0.105
1747252195481565513,0.132
1747252195489253471,0.155
1747252195496941429,0.167
1747252195504629387,0.169
1747252195512317345,0.16
1747252195520005303,0.15
1747252195527693261,0.135
1747252195535381219,0.108
1747252195543069177,0.066
1747252195550757135,0.004
1747252195558445093,-0.07100000000000001
1747252195566133051,-0.137
1747252195573821009,-0.177
1747252195581508967,-0.201
1747252195589196925,-0.221
1747252195596884883,-0.226
1747252195604572841,-0.216
1747252195612260799,-0.20600000000000002
1747252195619948757,-0.20400000000000001
1747252195627636715,-0.192
1747252195635324673,-0.179
1747252195643012631,-0.17200000000000001
1747252195650700589,-0.164
1747252195658388547,-0.157
1747252195666076505,-0.152
1747252195673764463,-0.147
1747252195681452421,-0.145
1747252195689140379,-0.14200000000000002
1747252195696828337,-0.137
1747252195704516295,-0.137
1747252195712204253,-0.135
1747252195719892211,-0.132
1747252195727580172,-0.13
1747252195735267711,-0.13
1747252195742955250,-0.128
1747252195750642789,-0.125
1747252195758330328,-0.128
1747252195766017867,-0.13
1747252195773705406,-0.125
1747252195781392945,-0.115
1747252195789080484,-0.113
1747252195796768023,-0.123
1747252195804455562,-0.132
1747252195812143101,-0.132
1747252195819830640,-0.125
1747252195827518179,-0.105
1747252195835205718,-0.091
1747252195842893257,-0.093
1747252195850580796,-0.091
1747252195858268335,-0.07100000000000001
1747252195865955874,-0.073
1747252195873643413,-0.10300000000000001
1747252195881330952,-0.113
1747252195889018491,-0.1
1747252195896706030,-0.096
1747252195904393569,-0.096
1747252195912081108,-0.093
1747252195919768647,-0.088
1747252195927456186,-0.088
1747252195935143725,-0.11
1747252195942831264,-0.182
1747252195950518803,-0.256
1747252195958206342,-0.096
1747252195965893881,0.524
1747252195973581420,1.3880000000000001
1747252195981268959,1.843
1747252195988956498,1.164
1747252195996644037,-0.17200000000000001
1747252196004331576,-0.5730000000000001
1747252196012019115,-0.15
1747252196019706654,-0.11
1747252196027394193,-0.273
1747252196035081732,-0.187
1747252196042769271,-0.128
1747252196050456810,-0.17200000000000001
1747252196058144349,-0.147
1747252196065831888,-0.1
1747252196073519427,-0.096
1747252196081206966,-0.08600000000000001
1747252196088894505,-0.059000000000000004
1747252196096582044,-0.041
1747252196104269583,-0.029
1747252196111957122,-0.009000000000000001
1747252196119644661,0.009000000000000001
1747252196127332200,0.032
1747252196135019739,0.056
1747252196142707278,0.081
1747252196150394817,0.108
1747252196158082356,0.135
1747252196165769895,0.16
1747252196173457434,0.17400000000000002
1747252196181144973,0.179
1747252196188832512,0.177
1747252196196520051,0.167
1747252196204207590,0.152
1747252196211895129,0.13
1747252196219582668,0.091
1747252196227270207,0.032
1747252196234957746,-0.041
1747252196242645285,-0.11
1747252196250332824,-0.164
1747252196258020363,-0.201
1747252196265707902,-0.221
1747252196273395441,-0.231
1747252196281082980,-0.231
1747252196288770587,-0.224,90,675
1747252196296458126,-0.214,,661
1747252196304145665,-0.201
1747252196311833204,-0.192
1747252196319520743,-0.179
1747252196327208282,-0.169
1747252196334895821,-0.164
1747252196342583360,-0.162
1747252196350270899,-0.155
1747252196357958438,-0.15
1747252196365645977,-0.15
1747252196373333516,-0.147
1747252196381021055,-0.14200000000000002
1747252196388708594,-0.14
1747252196396396133,-0.135
1747252196404083672,-0.132
1747252196411771211,-0.137
1747252196419458750,-0.137
1747252196427146289,-0.13
1747252196434833828,-0.125
1747252196442521367,-0.125
1747252196450208906,-0.125
1747252196457896445,-0.123
1747252196465583984,-0.11800000000000001
1747252196473271523,-0.113
1747252196480959062,-0.115
1747252196488646601,-0.123
1747252196496334140,-0.128
1747252196504021679,-0.125
1747252196511709218,-0.11
1747252196519396757,-0.093
1747252196527084296,-0.08600000000000001
1747252196534771835,-0.081
1747252196542459374,-0.068
1747252196550146913,-0.064
1747252196557834452,-0.08600000000000001
1747252196565521991,-0.108
1747252196573209530,-0.10300000000000001
1747252196580897069,-0.093
1747252196588584608,-0.093
1747252196596272147,-0.091
1747252196603959686,-0.08600000000000001
1747252196611647225,-0.081
1747252196619334764,-0.093
1747252196627022303,-0.145
1747252196634709842,-0.231
1747252196642397381,-0.219
1747252196650084920,0.192
1747252196657772459,1.004
1747252196665459998,1.733
1747252196673147537,1.595
1747252196680835076,0.381
1747252196688522615,-0.556
1747252196696210154,-0.34400000000000003
1747252196703897693,-0.066
1747252196711585232,-0.221
1747252196719272771,-0.23800000000000002
1747252196726960310,-0.135
1747252196734647849,-0.147
1747252196742335388,-0.152
1747252196750022927,-0.10300000000000001
1747252196757710466,-0.093
1747252196765398005,-0.093
1747252196773085544,-0.066
1747252196780773083,-0.046
1747252196788460622,-0.032
1747252196796148161,-0.009000000000000001
1747252196803835700,0.012
1747252196811523239,0.029
1747252196819210778,0.051000000000000004
1747252196826898317,0.078
1747252196834585856,0.105
1747252196842273395,0.128
1747252196849961002,0.15
1747252196857648750,0.17200000000000001
1747252196865336498,0.187
1747252196873024246,0.187
1747252196880711994,0.177
1747252196888399742,0.167
1747252196896087490,0.155
1747252196903775238,0.132
1747252196911462986,0.081
1747252196919150734,0.002
1747252196926838482,-0.064
1747252196934526230,-0.123
1747252196942213978,-0.17200000000000001
1747252196949901726,-0.196
1747252196957589474,-0.216
1747252196965277222,-0.228
1747252196972964970,-0.219
1747252196980652718,-0.201
1747252196988340466,-0.189
1747252196996028214,-0.182
1747252197003715962,-0.164
1747252197011403710,-0.147
1747252197019091458,-0.145
1747252197026779206,-0.147
1747252197034466954,-0.14
1747252197042154702,-0.13
1747252197049842450,-0.123
1747252197057530198,-0.11800000000000001
1747252197065217946,-0.10300000000000001
1747252197072905694,-0.10300000000000001
1747252197080593442,-0.11800000000000001
1747252197088281190,-0.115
1747252197095968938,-0.1
1747252197103656686,-0.096
1747252197111344434,-0.093
1747252197119032182,-0.088
1747252197126719930,-0.093
1747252197134407678,-0.098
1747252197142095426,-0.08600000000000001
1747252197149783174,-0.073
1747252197157470922,-0.073
1747252197165158670,-0.073
1747252197172846418,-0.068
1747252197180534166,-0.07100000000000001
1747252197188221914,-0.083
1747252197195909662,-0.08600000000000001
1747252197203597410,-0.076
1747252197211285158,-0.066
1747252197218972906,-0.051000000000000004
1747252197226660654,-0.044
1747252197234348402,-0.036000000000000004
1747252197242036150,-0.034
1747252197249723898,-0.024
1747252197257411646,-0.017
1747252197265099394,-0.056
1747252197272787142,-0.091
1747252197280474890,-0.059000000000000004
1747252197288162638,-0.032
1747252197295850386,-0.049
1747252197303538134,-0.056
1747252197311225882,-0.039
1747252197318913630,-0.041
1747252197326601378,-0.083
1747252197334289126,-0.167
1747252197341976874,-0.221
1747252197349664622,0.036000000000000004
1747252197357352370,0.77
1747252197365040118,1.609
1747252197372727866,1.814
1747252197380415614,0.8270000000000001
1747252197388103362,-0.398
1747252197395791110,-0.445
1747252197403478858,-0.034
1747252197411166678,-0.135,90,666
1747252197418854287,-0.221
1747252197426541896,-0.093
1747252197434229505,-0.081
1747252197441917114,-0.123
1747252197449604723,-0.081
1747252197457292332,-0.049
1747252197464979941,-0.041
1747252197472667550,-0.017
1747252197480355159,-0.002
1747252197488042768,0.009000000000000001
1747252197495730377,0.029
1747252197503417986,0.041
1747252197511105595,0.068
1747252197518793204,0.105
1747252197526480813,0.125
1747252197534168422,0.137
1747252197541856031,0.17400000000000002
1747252197549543640,0.209
1747252197557231249,0.228
1747252197564918858,0.23800000000000002
1747252197572606467,0.241
1747252197580294076,0.248
1747252197587981685,0.241
1747252197595669294,0.211
1747252197603356903,0.184
1747252197611044512,0.137
1747252197618732121,0.061
1747252197626419730,-0.004
1747252197634107339,-0.068
1747252197641794948,-0.137
1747252197649482557,-0.164
1747252197657170166,-0.17200000000000001
1747252197664857775,-0.199
1747252197672545384,-0.194
1747252197680232993,-0.177
1747252197687920602,-0.182
1747252197695608211,-0.177
1747252197703295820,-0.15
1747252197710983429,-0.135
1747252197718671038,-0.128
1747252197726358647,-0.12
1747252197734046256,-0.11800000000000001
1747252197741733865,-0.105
1747252197749421474,-0.108
1747252197757109083,-0.11800000000000001
1747252197764796692,-0.1
1747252197772484301,-0.088
1747252197780171910,-0.096
1747252197787859519,-0.096
1747252197795547128,-0.088
1747252197803234737,-0.093
1747252197810922346,-0.098
1747252197818609955,-0.096
1747252197826297564,-0.098
1747252197833985173,-0.091
1747252197841672782,-0.083
1747252197849360391,-0.08600000000000001
1747252197857048000,-0.088
1747252197864735609,-0.091
1747252197872423218,-0.098
1747252197880110827,-0.096
1747252197887798436,-0.088
1747252197895486045,-0.078
1747252197903173654,-0.068
1747252197910861263,-0.064
1747252197918548872,-0.056
1747252197926236481,-0.051000000000000004
1747252197933924090,-0.056
1747252197941611699,-0.081
1747252197949299308,-0.1
1747252197956986917,-0.088
1747252197964674526,-0.066
1747252197972362180,-0.066,90,679
1747252197980049859,-0.083,,688
1747252197987737538,-0.078
1747252197995425217,-0.07100000000000001
1747252198003112896,-0.098
1747252198010800575,-0.162
1747252198018488254,-0.241
1747252198026175933,-0.145
1747252198033863612,0.40800000000000003
1747252198041551291,1.262
1747252198049238970,1.802
1747252198056926649,1.287
1747252198064614328,-0.041
1747252198072302007,-0.617
1747252198079989686,-0.216
1747252198087677365,-0.091
1747252198095365044,-0.246
1747252198103052723,-0.184
1747252198110740402,-0.132
1747252198118428081,-0.16
1747252198126115760,-0.128
1747252198133803439,-0.08600000000000001
1747252198141491118,-0.088
1747252198149178797,-0.088
1747252198156866476,-0.056
1747252198164554155,-0.027
1747252198172241834,-0.027
1747252198179929513,-0.017
1747252198187617192,0.022
1747252198195304871,0.041
1747252198202992550,0.051000000000000004
1747252198210680229,0.096
1747252198218367908,0.13
1747252198226055587,0.135
1747252198233743266,0.157
1747252198241430945,0.182
1747252198249118624,0.196
1747252198256806303,0.199
1747252198264493982,0.179
1747252198272181661,0.152
1747252198279869340,0.14200000000000002
1747252198287557019,0.11
1747252198295244698,0.036000000000000004
1747252198302932377,-0.029
1747252198310620056,-0.093
1747252198318307735,-0.157
1747252198325995414,-0.196
1747252198333683093,-0.221
1747252198341370772,-0.228
1747252198349058451,-0.209
1747252198356746130,-0.20400000000000001
1747252198364433809,-0.20400000000000001
1747252198372121488,-0.184
1747252198379809167,-0.184
1747252198387496846,-0.179
1747252198395184525,-0.152
1747252198402872204,-0.147
1747252198410559883,-0.152
1747252198418247562,-0.128
1747252198425935241,-0.12
1747252198433622920,-0.14
1747252198441310599,-0.13
1747252198448998278,-0.105
1747252198456685957,-0.096
1747252198464373636,-0.11800000000000001
1747252198472061315,-0.13
1747252198479748994,-0.125
1747252198487436673,-0.10300000000000001
1747252198495124352,-0.081
1747252198502812031,-0.11
1747252198510499710,-0.132
1747252198518187389,-0.091
1747252198525875068,-0.083
1747252198533562765,-0.11800000000000001
1747252198541250304,-0.096
1747252198548937843,-0.078
1747252198556625382,-0.11
1747252198564312921,-0.113
1747252198572000460,-0.093
1747252198579687999,-0.081
1747252198587375538,-0.054
1747252198595063077,-0.039
1747252198602750616,-0.054
1747252198610438155,-0.056
1747252198618125694,-0.046
1747252198625813233,-0.066
1747252198633500772,-0.098
1747252198641188311,-0.10300000000000001
1747252198648875850,-0.08600000000000001
1747252198656563389,-0.073
1747252198664250928,-0.064
1747252198671938467,-0.064
1747252198679626006,-0.066
1747252198687313545,-0.093
1747252198695001084,-0.184
1747252198702688623,-0.248
1747252198710376162,-0.022
1747252198718063701,0.667
1747252198725751240,1.496
1747252198733438779,1.7570000000000001
1747252198741126318,0.861
1747252198748813857,-0.371
1747252198756501396,-0.489
1747252198764188935,-0.076
1747252198771876474,-0.15
1747252198779564013,-0.23800000000000002
1747252198787251552,-0.113
1747252198794939091,-0.105
1747252198802626630,-0.135
1747252198810314169,-0.078
1747252198818001708,-0.056
1747252198825689247,-0.07100000000000001
1747252198833376786,-0.044
1747252198841064325,-0.012
1747252198848751864,-0.007
1747252198856439403,0.009000000000000001
1747252198864126942,0.034
1747252198871814481,0.056
1747252198879502020,0.083
1747252198887189559,0.105
1747252198894877098,0.128
1747252198902564637,0.152
1747252198910252176,0.184
1747252198917939715,0.214
1747252198925627254,0.209
1747252198933314793,0.209
1747252198941002332,0.219
1747252198948689871,0.196
1747252198956377410,0.162
1747252198964064949,0.147
1747252198971752488,0.115
1747252198979440027,0.044
1747252198987127566,-0.032
1747252198994815105,-0.098
1747252199002502644,-0.155
1747252199010190183,-0.187
1747252199017877722,-0.199
1747252199025565261,-0.20400000000000001
1747252199033252800,-0.20600000000000002
1747252199040940339,-0.199
1747252199048627878,-0.192
1747252199056315417,-0.179
1747252199064002956,-0.169
1747252199071690495,-0.164
1747252199079378034,-0.15
1747252199087065573,-0.132
1747252199094753180,-0.13,90,702
1747252199102441138,-0.13
1747252199110129096,-0.125
1747252199117817054,-0.11800000000000001
1747252199125505012,-0.115
1747252199133192970,-0.113
1747252199140880928,-0.10300000000000001
1747252199148568886,-0.098
1747252199156256844,-0.108
1747252199163944802,-0.113
1747252199171632760,-0.098
1747252199179320718,-0.091
1747252199187008676,-0.10300000000000001
1747252199194696634,-0.11
1747252199202384592,-0.10300000000000001
1747252199210072550,-0.093
1747252199217760508,-0.093
1747252199225448466,-0.093
1747252199233136424,-0.091
1747252199240824382,-0.088
1747252199248512340,-0.093
1747252199256200298,-0.10300000000000001
1747252199263888256,-0.091
1747252199271576214,-0.064
1747252199279264172,-0.061
1747252199286952130,-0.068
1747252199294640088,-0.054
1747252199302328046,-0.044
1747252199310016004,-0.076
1747252199317703962,-0.1
1747252199325391920,-0.08600000000000001
1747252199333079878,-0.073
1747252199340767836,-0.078
1747252199348455794,-0.076
1747252199356143752,-0.064
1747252199363831710,-0.068
1747252199371519668,-0.088
1747252199379207626,-0.132
1747252199386895584,-0.214
1747252199394583542,-0.182
1747252199402271500,0.256
1747252199409959458,1.048
1747252199417647416,1.718
1747252199425335374,1.577
1747252199433023332,0.381
1747252199440711290,-0.5630000000000001
1747252199448399248,-0.332
1747252199456087206,-0.036000000000000004
1747252199463775164,-0.221
1747252199471463122,-0.23800000000000002
1747252199479151080,-0.113
1747252199486839038,-0.145
1747252199494526996,-0.167
1747252199502214954,-0.108
1747252199509902912,-0.08600000000000001
1747252199517590870,-0.088
1747252199525278828,-0.066
1747252199532966786,-0.041
1747252199540654744,-0.029
1747252199548342702,-0.017
1747252199556030660,0.0
1747252199563718618,0.022
1747252199571406576,0.046
1747252199579094534,0.059000000000000004
1747252199586782492,0.076
1747252199594470450,0.115
1747252199602158408,0.145
1747252199609846366,0.157
1747252199617534324,0.17400000000000002
1747252199625222282,0.17400000000000002
1747252199632910240,0.157
1747252199640598198,0.15
1747252199648286156,0.147
1747252199655974117,0.125
1747252199663661656,0.078
1747252199671349195,0.009000000000000001
1747252199679036734,-0.066
1747252199686724273,-0.125
1747252199694411812,-0.169
1747252199702099351,-0.199
1747252199709786890,-0.211
1747252199717474429,-0.20600000000000002
1747252199725161968,-0.199
1747252199732849507,-0.194
1747252199740537046,-0.189
1747252199748224585,-0.177
1747252199755912124,-0.162
1747252199763599663,-0.157
1747252199771287202,-0.152
1747252199778974741,-0.14
1747252199786662280,-0.132
1747252199794349819,-0.128
1747252199802037358,-0.123
1747252199809724897,-0.128
1747252199817412436,-0.132
1747252199825099975,-0.125
1747252199832787514,-0.115
1747252199840475053,-0.12
1747252199848162592,-0.12
1747252199855850131,-0.113
1747252199863537670,-0.11
1747252199871225209,-0.108
1747252199878912748,-0.108
1747252199886600287,-0.105
1747252199894287826,-0.098
1747252199901975365,-0.091
1747252199909662904,-0.098
1747252199917350443,-0.10300000000000001
1747252199925037982,-0.1
1747252199932725521,-0.105
1747252199940413060,-0.113
1747252199948100599,-0.105
1747252199955788138,-0.08600000000000001
1747252199963475677,-0.068
1747252199971163216,-0.059000000000000004
1747252199978850755,-0.059000000000000004
1747252199986538294,-0.056
1747252199994225833,-0.064
1747252200001913372,-0.091
1747252200009600911,-0.10300000000000001
1747252200017288450,-0.091
1747252200024975989,-0.081
1747252200032663528,-0.083
1747252200040351067,-0.083
1747252200048038606,-0.073
1747252200055726145,-0.076
1747252200063413684,-0.108
1747252200071101223,-0.17200000000000001
1747252200078788762,-0.23800000000000002
1747252200086476301,-0.091
1747252200094163840,0.502
1747252200101851379,1.334
1747252200109538918,1.804
1747252200117226457,1.196
1747252200124913996,-0.13
1747252200132601535,-0.583
1747252200140289074,-0.14200000000000002
1747252200147976613,-0.078
1747252200155664152,-0.263
1747252200163351691,-0.182
1747252200171039230,-0.105
1747252200178726769,-0.155
1747252200186414308,-0.137
1747252200194101847,-0.083
1747252200201789386,-0.081
1747252200209476925,-0.073
1747252200217164532,-0.044,89,680
1747252200224852071,-0.032,,682
1747252200232539610,-0.019
1747252200240227149,-0.002
1747252200247914688,0.012
1747252200255602227,0.029
1747252200263289766,0.056
1747252200270977305,0.083
1747252200278664844,0.108
1747252200286352383,0.135
1747252200294039922,0.16
1747252200301727461,0.177
1747252200309415000,0.182
1747252200317102539,0.179
1747252200324790078,0.17400000000000002
1747252200332477617,0.152
1747252200340165156,0.132
1747252200347852695,0.11800000000000001
1747252200355540234,0.061
1747252200363227773,-0.022
1747252200370915312,-0.093
1747252200378602851,-0.14200000000000002
1747252200386290390,-0.184
1747252200393977929,-0.209
1747252200401665468,-0.214
1747252200409353007,-0.209
1747252200417040546,-0.199
1747252200424728085,-0.184
1747252200432415624,-0.17400000000000002
1747252200440103163,-0.17200000000000001
1747252200447790702,-0.167
1747252200455478241,-0.164
1747252200463165780,-0.16
1747252200470853319,-0.135
1747252200478540858,-0.123
1747252200486228397,-0.135
1747252200493915936,-0.137
1747252200501603475,-0.12
1747252200509291014,-0.115
1747252200516978553,-0.11800000000000001
1747252200524666092,-0.12
1747252200532353631,-0.12
1747252200540041170,-0.11
1747252200547728709,-0.11
1747252200555416248,-0.105
1747252200563103787,-0.093
1747252200570791326,-0.088
1747252200578478865,-0.1
1747252200586166404,-0.108
1747252200593853943,-0.093
1747252200601541482,-0.078
1747252200609229021,-0.078
1747252200616916560,-0.083
1747252200624604099,-0.088
1747252200632291638,-0.088
1747252200639979177,-0.088
1747252200647666716,-0.081
1747252200655354255,-0.064
1747252200663041794,-0.039
1747252200670729333,-0.029
1747252200678416872,-0.034
1747252200686104411,-0.034
1747252200693791950,-0.044
1747252200701479489,-0.07100000000000001
1747252200709167028,-0.083
1747252200716854567,-0.066
1747252200724542106,-0.049
1747252200732229645,-0.061
1747252200739917184,-0.061
1747252200747604723,-0.034
1747252200755292262,-0.061
1747252200762979801,-0.11
1747252200770667340,-0.169
1747252200778354947,-0.209
1747252200786042486,0.068
1747252200793730025,0.8190000000000001
1747252200801417564,1.629
1747252200809105103,1.737
1747252200816792642,0.6890000000000001
1747252200824480181,-0.455
1747252200832167720,-0.40800000000000003
1747252200839855259,-0.014
1747252200847542798,-0.132
1747252200855230337,-0.20600000000000002
1747252200862917876,-0.091
1747252200870605415,-0.091
1747252200878292954,-0.115
1747252200885980493,-0.068
1747252200893668032,-0.041
1747252200901355571,-0.036000000000000004
1747252200909043110,-0.007
1747252200916730649,0.004
1747252200924418188,0.009000000000000001
1747252200932105727,0.041
1747252200939793266,0.059000000000000004
1747252200947480805,0.064
1747252200955168344,0.11
1747252200962855883,0.155
1747252200970543422,0.16
1747252200978230961,0.177
1747252200985918500,0.231
1747252200993606039,0.263
1747252201001293578,0.258
1747252201008981117,0.27
1747252201016668656,0.275
1747252201024356195,0.256
1747252201032043734,0.23800000000000002
1747252201039731273,0.201
1747252201047418812,0.145
1747252201055106351,0.088
1747252201062793890,0.004
1747252201070481429,-0.083
1747252201078168968,-0.137
1747252201085856507,-0.164
1747252201093544046,-0.187
1747252201101231585,-0.196
1747252201108919124,-0.192
1747252201116606663,-0.179
1747252201124294202,-0.17200000000000001
1747252201131981741,-0.167
1747252201139669280,-0.152
1747252201147356819,-0.13
1747252201155044358,-0.128
1747252201162731897,-0.147
1747252201170419436,-0.14
1747252201178106975,-0.12
1747252201185794514,-0.123
1747252201193482053,-0.128
1747252201201169592,-0.125
1747252201208857131,-0.128
1747252201216544670,-0.11800000000000001
1747252201224232209,-0.105
1747252201231919748,-0.11800000000000001
1747252201239607287,-0.13
1747252201247294826,-0.12
1747252201254982365,-0.115
1747252201262669904,-0.12
1747252201270357443,-0.115
1747252201278044982,-0.108
1747252201285732521,-0.105
1747252201293420060,-0.115
1747252201301107599,-0.123
1747252201308795138,-0.11800000000000001
1747252201316482677,-0.113
1747252201324170216,-0.1
1747252201331857755,-0.083
1747252201339545362,-0.076,89,689
1747252201347232901,-0.076
1747252201354920440,-0.073
1747252201362607979,-0.076
1747252201370295518,-0.11
1747252201377983057,-0.125
1747252201385670596,-0.105
1747252201393358135,-0.093
1747252201401045674,-0.10300000000000001
1747252201408733213,-0.105
1747252201416420752,-0.098
1747252201424108291,-0.105
1747252201431795830,-0.14200000000000002
1747252201439483369,-0.224
1747252201447170908,-0.265
1747252201454858447,0.009000000000000001
1747252201462545986,0.726
1747252201470233525,1.496
1747252201477921064,1.683
1747252201485608603,0.785
1747252201493296142,-0.41600000000000004
1747252201500983681,-0.531
1747252201508671220,-0.11
1747252201516358759,-0.164
1747252201524046298,-0.265
1747252201531733837,-0.157
1747252201539421376,-0.14200000000000002
1747252201547108915,-0.17200000000000001
1747252201554796454,-0.125
1747252201562483993,-0.10300000000000001
1747252201570171532,-0.108
1747252201577859071,-0.081
1747252201585546610,-0.056
1747252201593234149,-0.049
1747252201600921688,-0.032
1747252201608609227,-0.009000000000000001
1747252201616296766,0.007
1747252201623984305,0.024
1747252201631671844,0.046
1747252201639359383,0.07100000000000001
1747252201647046922,0.098
1747252201654734461,0.12
1747252201662422000,0.14
1747252201670109539,0.152
1747252201677797078,0.145
1747252201685484617,0.132
1747252201693172156,0.123
1747252201700859695,0.113
1747252201708547234,0.088
1747252201716234773,0.049
1747252201723922312,-0.012
1747252201731609851,-0.078
1747252201739297390,-0.132
1747252201746984929,-0.177
1747252201754672468,-0.20600000000000002
1747252201762360007,-0.221
1747252201770047546,-0.221
1747252201777735085,-0.214
1747252201785422624,-0.20400000000000001
1747252201793110163,-0.196
1747252201800797702,-0.189
1747252201808485241,-0.179
1747252201816172780,-0.167
1747252201823860319,-0.162
1747252201831547858,-0.157
1747252201839235397,-0.15
1747252201846922936,-0.147
1747252201854610475,-0.14200000000000002
1747252201862298014,-0.135
1747252201869985553,-0.132
1747252201877673092,-0.13
1747252201885360631,-0.132
1747252201893048170,-0.137
1747252201900735777,-0.132
1747252201908423316,-0.125
1747252201916110855,-0.13
1747252201923798394,-0.132
1747252201931485933,-0.128
1747252201939173472,-0.123
1747252201946861011,-0.123
1747252201954548550,-0.123
1747252201962236089,-0.12
1747252201969923628,-0.11800000000000001
1747252201977611167,-0.11800000000000001
1747252201985298706,-0.11800000000000001
1747252201992986245,-0.11800000000000001
1747252202000673784,-0.123
1747252202008361323,-0.13
1747252202016048862,-0.12
1747252202023736401,-0.093
1747252202031423940,-0.081
1747252202039111479,-0.081
1747252202046799018,-0.073
1747252202054486557,-0.064
1747252202062174096,-0.081
1747252202069861635,-0.113
1747252202077549174,-0.115
1747252202085236713,-0.1
1747252202092924252,-0.096
1747252202100611791,-0.091
1747252202108299330,-0.083
1747252202115986869,-0.088
1747252202123674408,-0.108
1747252202131361947,-0.157
1747252202139049486,-0.241
1747252202146737025,-0.187
1747252202154424564,0.28300000000000003
1747252202162112103,1.088
1747252202169799642,1.733
1747252202177487181,1.479
1747252202185174720,0.226
1747252202192862259,-0.588
1747252202200549798,-0.292
1747252202208237337,-0.066
1747252202215924876,-0.246
1747252202223612415,-0.231
1747252202231299954,-0.13
1747252202238987493,-0.162
1747252202246675032,-0.157
1747252202254362571,-0.10300000000000001
1747252202262050110,-0.093
1747252202269737649,-0.093
1747252202277425188,-0.066
1747252202285112727,-0.044
1747252202292800266,-0.034
1747252202300487805,-0.017
1747252202308175344,0.002
1747252202315862883,0.019
1747252202323550422,0.041
1747252202331237961,0.066
1747252202338925500,0.096
1747252202346613039,0.125
1747252202354300578,0.145
1747252202361988117,0.162
1747252202369675656,0.17400000000000002
1747252202377363195,0.17400000000000002
1747252202385050734,0.164
1747252202392738273,0.152
1747252202400425812,0.135
1747252202408113351,0.105
1747252202415800890,0.059000000000000004
1747252202423488429,-0.007
1747252202431175968,-0.078
1747252202438863507,-0.14
1747252202446551046,-0.179
1747252202454238585,-0.199
1747252202461926192,-0.214,88,688
1747252202469613941,-0.214,,696
1747252202477301690,-0.20600000000000002
1747252202484989439,-0.196
1747252202492677188,-0.189
1747252202500364937,-0.179
1747252202508052686,-0.169
1747252202515740435,-0.16
1747252202523428184,-0.155
1747252202531115933,-0.147
1747252202538803682,-0.14200000000000002
1747252202546491431,-0.14200000000000002
1747252202554179180,-0.14200000000000002
1747252202561866929,-0.132
1747252202569554678,-0.128
1747252202577242427,-0.13
1747252202584930176,-0.13
1747252202592617925,-0.125
1747252202600305674,-0.125
1747252202607993423,-0.123
1747252202615681172,-0.123
1747252202623368921,-0.12
1747252202631056670,-0.115
1747252202638744419,-0.11800000000000001
1747252202646432168,-0.11800000000000001
1747252202654119917,-0.11
1747252202661807666,-0.11
1747252202669495415,-0.113
1747252202677183164,-0.115
1747252202684870913,-0.12
1747252202692558662,-0.123
1747252202700246411,-0.113
1747252202707934160,-0.08600000000000001
1747252202715621909,-0.07100000000000001
1747252202723309658,-0.07100000000000001
1747252202730997407,-0.066
1747252202738685156,-0.059000000000000004
1747252202746372905,-0.076
1747252202754060654,-0.10300000000000001
1747252202761748403,-0.10300000000000001
1747252202769436152,-0.091
1747252202777123901,-0.08600000000000001
1747252202784811650,-0.08600000000000001
1747252202792499399,-0.081
1747252202800187148,-0.081
1747252202807874897,-0.098
1747252202815562646,-0.15
1747252202823250395,-0.233
1747252202830938144,-0.194
1747252202838625893,0.251
1747252202846313642,1.07
1747252202854001391,1.747
1747252202861689140,1.518
1747252202869376889,0.278
1747252202877064638,-0.5710000000000001
1747252202884752387,-0.305
1747252202892440136,-0.064
1747252202900127885,-0.231
1747252202907815634,-0.224
1747252202915503383,-0.12
1747252202923191132,-0.147
1747252202930878881,-0.152
1747252202938566630,-0.10300000000000001
1747252202946254379,-0.093
1747252202953942128,-0.083
1747252202961629877,-0.051000000000000004
1747252202969317626,-0.036000000000000004
1747252202977005375,-0.032
1747252202984693124,-0.009000000000000001
1747252202992380873,0.017
1747252203000068622,0.032
1747252203007756371,0.049
1747252203015444120,0.081
1747252203023131870,0.11,88,670
1747252203030819618,0.135
1747252203038507366,0.162
1747252203046195114,0.182
1747252203053882862,0.189
1747252203061570610,0.187
1747252203069258358,0.179
1747252203076946106,0.169
1747252203084633854,0.15
1747252203092321602,0.115
1747252203100009350,0.066
1747252203107697098,0.0
1747252203115384846,-0.076
1747252203123072594,-0.132
1747252203130760342,-0.17200000000000001
1747252203138448090,-0.199
1747252203146135838,-0.209
1747252203153823586,-0.209
1747252203161511334,-0.20600000000000002
1747252203169199082,-0.194
1747252203176886830,-0.182
1747252203184574578,-0.177
1747252203192262326,-0.164
1747252203199950074,-0.152
1747252203207637822,-0.147
1747252203215325570,-0.14200000000000002
1747252203223013318,-0.135
1747252203230701066,-0.13
1747252203238388814,-0.128
1747252203246076562,-0.128
1747252203253764310,-0.123
1747252203261452058,-0.11800000000000001
1747252203269139806,-0.113
1747252203276827554,-0.113
1747252203284515302,-0.113
1747252203292203050,-0.113
1747252203299890798,-0.11
1747252203307578546,-0.113
1747252203315266294,-0.113
1747252203322954042,-0.105
1747252203330641790,-0.1
1747252203338329538,-0.1
1747252203346017286,-0.098
1747252203353705034,-0.098
1747252203361392782,-0.1
1747252203369080530,-0.105
1747252203376768278,-0.108
1747252203384456026,-0.10300000000000001
1747252203392143774,-0.081
1747252203399831522,-0.064
1747252203407519270,-0.064
1747252203415207018,-0.061
1747252203422894766,-0.049
1747252203430582514,-0.064
1747252203438270262,-0.091
1747252203445958010,-0.093
1747252203453645758,-0.088
1747252203461333506,-0.088
1747252203469021254,-0.081
1747252203476709002,-0.076
1747252203484396750,-0.076
1747252203492084498,-0.08600000000000001
1747252203499772246,-0.128
1747252203507459994,-0.219
1747252203515147742,-0.219
1747252203522835490,0.177
1747252203530523238,0.982
1747252203538210986,1.72
1747252203545898734,1.614
1747252203553586482,0.41300000000000003
1747252203561274230,-0.551
1747252203568961978,-0.34700000000000003
1747252203576649726,-0.054
1747252203584337544,-0.214
1747252203592025083,-0.224
1747252203599712622,-0.113
1747252203607400161,-0.14200000000000002
1747252203615087700,-0.152
1747252203622775239,-0.083
1747252203630462778,-0.064
1747252203638150317,-0.076
1747252203645837856,-0.056
1747252203653525395,-0.032
1747252203661212934,-0.022
1747252203668900473,0.002
1747252203676588012,0.029
1747252203684275551,0.044
1747252203691963090,0.059000000000000004
1747252203699650629,0.083
1747252203707338168,0.115
1747252203715025707,0.147
1747252203722713246,0.17400000000000002
1747252203730400785,0.189
1747252203738088324,0.194
1747252203745775863,0.20600000000000002
1747252203753463402,0.209
1747252203761150941,0.192
1747252203768838480,0.16
1747252203776526019,0.13
1747252203784213558,0.093
1747252203791901097,0.029
1747252203799588636,-0.059000000000000004
1747252203807276175,-0.12
1747252203814963714,-0.155
1747252203822651253,-0.187
1747252203830338792,-0.20400000000000001
1747252203838026331,-0.214
1747252203845713870,-0.211
1747252203853401409,-0.192
1747252203861088948,-0.182
1747252203868776487,-0.169
1747252203876464026,-0.16
1747252203884151565,-0.16
1747252203891839104,-0.15
1747252203899526643,-0.137
1747252203907214182,-0.135
1747252203914901721,-0.132
1747252203922589260,-0.128
1747252203930276799,-0.125
1747252203937964338,-0.113
1747252203945651877,-0.108
1747252203953339416,-0.115
1747252203961026955,-0.11
1747252203968714494,-0.10300000000000001
1747252203976402033,-0.108
1747252203984089572,-0.123
1747252203991777111,-0.11800000000000001
1747252203999464650,-0.1
1747252204007152189,-0.10300000000000001
1747252204014839728,-0.108
1747252204022527267,-0.093
1747252204030214806,-0.091
1747252204037902345,-0.098
1747252204045589884,-0.108
1747252204053277423,-0.113
1747252204060964962,-0.098
1747252204068652501,-0.08600000000000001
1747252204076340040,-0.081
1747252204084027579,-0.066
1747252204091715118,-0.054
1747252204099402657,-0.051000000000000004
1747252204107090196,-0.051000000000000004
1747252204114777735,-0.073
1747252204122465274,-0.108
1747252204130152813,-0.098
1747252204137840352,-0.076
1747252204145527959,-0.083,88,696
1747252204153215498,-0.081
1747252204160903037,-0.07100000000000001
1747252204168590576,-0.078
1747252204176278115,-0.11
1747252204183965654,-0.192
1747252204191653193,-0.256
1747252204199340732,-0.019
1747252204207028271,0.704
1747252204214715810,1.55
1747252204222403349,1.784
1747252204230090888,0.851
1747252204237778427,-0.393
1747252204245465966,-0.507
1747252204253153505,-0.088
1747252204260841044,-0.167
1747252204268528583,-0.258
1747252204276216122,-0.13
1747252204283903661,-0.12
1747252204291591200,-0.157
1747252204299278739,-0.105
1747252204306966278,-0.083
1747252204314653817,-0.091
1747252204322341356,-0.061
1747252204330028895,-0.036000000000000004
1747252204337716434,-0.029
1747252204345403973,-0.009000000000000001
1747252204353091512,0.014
1747252204360779051,0.029
1747252204368466590,0.051000000000000004
1747252204376154129,0.073
1747252204383841668,0.096
1747252204391529207,0.125
1747252204399216746,0.15
1747252204406904285,0.164
1747252204414591824,0.177
1747252204422279363,0.179
1747252204429966902,0.17200000000000001
1747252204437654441,0.16
1747252204445341980,0.145
1747252204453029519,0.115
1747252204460717058,0.066
1747252204468404597,0.0
1747252204476092136,-0.068
1747252204483779675,-0.128
1747252204491467214,-0.17200000000000001
1747252204499154753,-0.20400000000000001
1747252204506842292,-0.221
1747252204514529831,-0.231
1747252204522217370,-0.228
1747252204529904909,-0.214
1747252204537592448,-0.201
1747252204545279987,-0.196
1747252204552967526,-0.189
1747252204560655065,-0.17400000000000002
1747252204568342604,-0.167
1747252204576030143,-0.164
1747252204583717682,-0.155
1747252204591405221,-0.145
1747252204599092760,-0.14200000000000002
1747252204606780299,-0.14
1747252204614467838,-0.132
1747252204622155377,-0.13
1747252204629842916,-0.13
1747252204637530455,-0.128
1747252204645217994,-0.128
1747252204652905533,-0.128
1747252204660593072,-0.132
1747252204668280611,-0.132
1747252204675968150,-0.125
1747252204683655689,-0.11800000000000001
1747252204691343228,-0.123
1747252204699030767,-0.125
1747252204706718374,-0.123
1747252204714405913,-0.115
1747252204722093452,-0.115
1747252204729780991,-0.123
1747252204737468530,-0.13
1747252204745156069,-0.128
1747252204752843608,-0.113
1747252204760531147,-0.098
1747252204768218686,-0.091
1747252204775906225,-0.088
1747252204783593764,-0.078
1747252204791281303,-0.07100000000000001
1747252204798968842,-0.091
1747252204806656381,-0.115
1747252204814343920,-0.113
1747252204822031459,-0.1
1747252204829718998,-0.1
1747252204837406537,-0.098
1747252204845094076,-0.088
1747252204852781615,-0.093
1747252204860469154,-0.123
1747252204868156693,-0.196
1747252204875844232,-0.263
1747252204883531771,-0.064
1747252204891219310,0.6
1747252204898906849,1.435
1747252204906594388,1.794
1747252204914281927,1.036
1747252204921969466,-0.263
1747252204929657005,-0.5680000000000001
1747252204937344544,-0.135
1747252204945032083,-0.132
1747252204952719622,-0.28500000000000003
1747252204960407161,-0.189
1747252204968094700,-0.135
1747252204975782239,-0.17400000000000002
1747252204983469778,-0.147
1747252204991157317,-0.11
1747252204998844856,-0.10300000000000001
1747252205006532395,-0.08600000000000001
1747252205014219934,-0.066
1747252205021907473,-0.056
1747252205029595012,-0.039
1747252205037282551,-0.017
1747252205044970090,0.004
1747252205052657629,0.029
1747252205060345168,0.049
1747252205068032707,0.073
1747252205075720246,0.10300000000000001
1747252205083407785,0.128
1747252205091095324,0.15
1747252205098782863,0.169
1747252205106470402,0.177
1747252205114157941,0.169
1747252205121845480,0.16
1747252205129533019,0.152
1747252205137220558,0.13
1747252205144908097,0.08600000000000001
1747252205152595636,0.024
1747252205160283175,-0.046
1747252205167970714,-0.113
1747252205175658253,-0.162
1747252205183345792,-0.199
1747252205191033331,-0.221
1747252205198720870,-0.224
1747252205206408409,-0.219
1747252205214095948,-0.214
1747252205221783487,-0.20400000000000001
1747252205229471026,-0.192
1747252205237158565,-0.184
1747252205244846104,-0.177
1747252205252533643,-0.162
1747252205260221182,-0.157
1747252205267908789,-0.152,88,685
1747252205275596328,-0.145,,685
1747252205283283867,-0.14200000000000002
1747252205290971406,-0.14
1747252205298658945,-0.132
1747252205306346484,-0.132
1747252205314034023,-0.135
1747252205321721562,-0.132
1747252205329409101,-0.128
1747252205337096640,-0.125
1747252205344784179,-0.125
1747252205352471718,-0.123
1747252205360159257,-0.123
1747252205367846796,-0.12
1747252205375534335,-0.12
1747252205383221874,-0.11800000000000001
1747252205390909413,-0.11800000000000001
1747252205398596952,-0.113
1747252205406284491,-0.108
1747252205413972030,-0.105
1747252205421659569,-0.11
1747252205429347108,-0.115
1747252205437034647,-0.11800000000000001
1747252205444722186,-0.113
1747252205452409725,-0.098
1747252205460097264,-0.083
1747252205467784803,-0.08600000000000001
1747252205475472342,-0.081
1747252205483159881,-0.066
1747252205490847420,-0.07100000000000001
1747252205498534959,-0.096
1747252205506222498,-0.105
1747252205513910037,-0.096
1747252205521597576,-0.093
1747252205529285115,-0.091
1747252205536972654,-0.083
1747252205544660193,-0.081
1747252205552347732,-0.091
1747252205560035271,-0.128
1747252205567722810,-0.214
1747252205575410349,-0.258
1747252205583097888,0.036000000000000004
1747252205590785427,0.792
1747252205598472966,1.617
1747252205606160505,1.7690000000000001
1747252205613848044,0.75
1747252205621535583,-0.443
1747252205629223122,-0.47500000000000003
1747252205636910661,-0.083
1747252205644598200,-0.179
1747252205652285739,-0.268
1747252205659973278,-0.155
1747252205667660817,-0.14
1747252205675348356,-0.167
1747252205683035895,-0.125
1747252205690723434,-0.1
1747252205698410973,-0.098
1747252205706098512,-0.076
1747252205713786051,-0.054
1747252205721473590,-0.041
1747252205729161129,-0.024
1747252205736848668,-0.007
1747252205744536207,0.014
1747252205752223746,0.039
1747252205759911285,0.061
1747252205767598824,0.08600000000000001
1747252205775286363,0.11800000000000001
1747252205782973902,0.14200000000000002
1747252205790661441,0.164
1747252205798348980,0.184
1747252205806036519,0.187
1747252205813724058,0.182
1747252205821411597,0.17400000000000002
1747252205829099204,0.16
1747252205836786813,0.13
1747252205844474422,0.08600000000000001
1747252205852162031,0.019
1747252205859849640,-0.054
1747252205867537249,-0.12
1747252205875224858,-0.17200000000000001
1747252205882912467,-0.20400000000000001
1747252205890600076,-0.219
1747252205898287685,-0.221
1747252205905975294,-0.221
1747252205913662903,-0.219
1747252205921350512,-0.209
1747252205929038121,-0.192
1747252205936725730,-0.184
1747252205944413339,-0.179
1747252205952100948,-0.167
1747252205959788557,-0.16
1747252205967476166,-0.157
1747252205975163775,-0.15
1747252205982851384,-0.14200000000000002
1747252205990538993,-0.14
1747252205998226602,-0.14
1747252206005914211,-0.135
1747252206013601820,-0.132
1747252206021289429,-0.132
1747252206028977038,-0.132
1747252206036664647,-0.13
1747252206044352256,-0.128
1747252206052039865,-0.128
1747252206059727474,-0.125
1747252206067415083,-0.12
1747252206075102692,-0.11800000000000001
1747252206082790301,-0.12
1747252206090477910,-0.115
1747252206098165519,-0.113
1747252206105853128,-0.113
1747252206113540737,-0.108
1747252206121228346,-0.113
1747252206128915955,-0.123
1747252206136603564,-0.12
1747252206144291173,-0.105
1747252206151978782,-0.096
1747252206159666391,-0.088
1747252206167354000,-0.081
1747252206175041609,-0.07100000000000001
1747252206182729218,-0.064
1747252206190416827,-0.073
1747252206198104436,-0.098
1747252206205792045,-0.10300000000000001
1747252206213479654,-0.091
1747252206221167263,-0.088
1747252206228854872,-0.088
1747252206236542481,-0.083
1747252206244230090,-0.081
1747252206251917699,-0.096
1747252206259605308,-0.14200000000000002
1747252206267292917,-0.228
1747252206274980526,-0.211
1747252206282668135,0.219
1747252206290355744,1.048
1747252206298043353,1.762
1747252206305730962,1.585
1747252206313418571,0.34400000000000003
1747252206321106180,-0.5760000000000001
1747252206328793789,-0.334
1747252206336481398,-0.061
1747252206344169007,-0.228
1747252206351856616,-0.23800000000000002
1747252206359544225,-0.13
1747252206367231834,-0.155
1747252206374919443,-0.164
1747252206382607052,-0.108
1747252206390294710,-0.091,88,679
1747252206397982319,-0.093
1747252206405669928,-0.068
1747252206413357537,-0.046
1747252206421045146,-0.034
1747252206428732755,-0.019
1747252206436420364,0.002
1747252206444107973,0.024
1747252206451795582,0.049
1747252206459483191,0.073
1747252206467170800,0.098
1747252206474858409,0.125
1747252206482546018,0.152
1747252206490233627,0.169
1747252206497921236,0.182
1747252206505608845,0.184
1747252206513296454,0.179
1747252206520984063,0.164
1747252206528671672,0.145
1747252206536359281,0.12
1747252206544046890,0.07100000000000001
1747252206551734499,-0.002
1747252206559422108,-0.076
1747252206567109717,-0.135
1747252206574797326,-0.182
1747252206582484935,-0.209
1747252206590172544,-0.224
1747252206597860153,-0.228
1747252206605547762,-0.221
1747252206613235371,-0.211
1747252206620922980,-0.20400000000000001
1747252206628610589,-0.189
1747252206636298198,-0.177
1747252206643985807,-0.169
1747252206651673416,-0.164
1747252206659361025,-0.157
1747252206667048634,-0.152
1747252206674736243,-0.145
1747252206682423852,-0.14
1747252206690111461,-0.135
1747252206697799070,-0.132
1747252206705486679,-0.128
1747252206713174288,-0.125
1747252206720861897,-0.128
1747252206728549506,-0.128
1747252206736237115,-0.12
1747252206743924724,-0.115
1747252206751612333,-0.12
1747252206759299942,-0.125
1747252206766987551,-0.11800000000000001
1747252206774675160,-0.113
1747252206782362769,-0.11
1747252206790050378,-0.108
1747252206797737987,-0.105
1747252206805425596,-0.10300000000000001
1747252206813113205,-0.105
1747252206820800814,-0.113
1747252206828488423,-0.115
1747252206836176032,-0.113
1747252206843863641,-0.10300000000000001
1747252206851551250,-0.091
1747252206859238859,-0.088
1747252206866926468,-0.091
1747252206874614077,-0.078
1747252206882301686,-0.059000000000000004
1747252206889989295,-0.068
1747252206897676904,-0.093
1747252206905364513,-0.1
1747252206913052122,-0.093
1747252206920739731,-0.088
1747252206928427340,-0.08600000000000001
1747252206936114949,-0.083
1747252206943802558,-0.083
1747252206951490212,-0.096,88,686
1747252206959177821,-0.14,,698
1747252206966865430,-0.231
1747252206974553039,-0.228
1747252206982240648,0.179
1747252206989928257,0.994
1747252206997615866,1.737
1747252207005303475,1.6340000000000001
1747252207012991084,0.423
1747252207020678693,-0.561
1747252207028366302,-0.369
1747252207036053911,-0.07100000000000001
1747252207043741520,-0.226
1747252207051429129,-0.248
1747252207059116738,-0.14
1747252207066804347,-0.16
1747252207074491956,-0.17200000000000001
1747252207082179565,-0.123
1747252207089867174,-0.10300000000000001
1747252207097554783,-0.1
1747252207105242392,-0.078
1747252207112930001,-0.059000000000000004
1747252207120617610,-0.046
1747252207128305219,-0.027
1747252207135992828,-0.007
1747252207143680437,0.014
1747252207151368046,0.039
1747252207159055655,0.064
1747252207166743264,0.091
1747252207174430873,0.12
1747252207182118482,0.145
1747252207189806091,0.164
1747252207197493700,0.179
1747252207205181309,0.182
1747252207212868918,0.177
1747252207220556527,0.164
1747252207228244136,0.14200000000000002
1747252207235931745,0.11800000000000001
1747252207243619354,0.073
1747252207251306963,0.002
1747252207258994572,-0.07100000000000001
1747252207266682181,-0.132
1747252207274369790,-0.182
1747252207282057399,-0.211
1747252207289745008,-0.224
1747252207297432617,-0.228
1747252207305120226,-0.224
1747252207312807835,-0.216
1747252207320495444,-0.211
1747252207328183053,-0.201
1747252207335870662,-0.187
1747252207343558271,-0.179
1747252207351245880,-0.17200000000000001
1747252207358933489,-0.162
1747252207366621098,-0.155
1747252207374308707,-0.147
1747252207381996316,-0.145
1747252207389683925,-0.14200000000000002
1747252207397371534,-0.135
1747252207405059143,-0.132
1747252207412746752,-0.135
1747252207420434361,-0.13
1747252207428121970,-0.128
1747252207435809579,-0.125
1747252207443497188,-0.128
1747252207451184797,-0.128
1747252207458872406,-0.123
1747252207466560015,-0.11800000000000001
1747252207474247624,-0.12
1747252207481935233,-0.11800000000000001
1747252207489622842,-0.115
1747252207497310451,-0.11800000000000001
1747252207504998060,-0.115
1747252207512685714,-0.113
1747252207520373323,-0.11800000000000001
1747252207528060932,-0.125
1747252207535748541,-0.128
1747252207543436150,-0.115
1747252207551123759,-0.098
1747252207558811368,-0.093
1747252207566498977,-0.096
1747252207574186586,-0.088
1747252207581874195,-0.07100000000000001
1747252207589561804,-0.078
1747252207597249413,-0.105
1747252207604937022,-0.115
1747252207612624631,-0.105
1747252207620312240,-0.1
1747252207627999849,-0.10300000000000001
1747252207635687458,-0.093
1747252207643375067,-0.088
1747252207651062676,-0.105
1747252207658750285,-0.14200000000000002
1747252207666437894,-0.219
1747252207674125503,-0.263
1747252207681813112,0.014
1747252207689500721,0.76
1747252207697188330,1.597
1747252207704875939,1.774
1747252207712563548,0.772
1747252207720251157,-0.428
1747252207727938766,-0.484
1747252207735626375,-0.098
1747252207743313984,-0.184
1747252207751001593,-0.265
1747252207758689202,-0.16
1747252207766376811,-0.15
1747252207774064420,-0.177
1747252207781752029,-0.135
1747252207789439638,-0.105
1747252207797127247,-0.1
1747252207804814856,-0.081
1747252207812502465,-0.059000000000000004
1747252207820190074,-0.046
1747252207827877683,-0.032
1747252207835565292,-0.009000000000000001
1747252207843252901,0.017
1747252207850940510,0.041
1747252207858628119,0.059000000000000004
1747252207866315728,0.083
1747252207874003337,0.123
1747252207881690946,0.157
1747252207889378555,0.169
1747252207897066164,0.179
1747252207904753773,0.192
1747252207912441382,0.189
1747252207920128991,0.17400000000000002
1747252207927816600,0.157
1747252207935504209,0.14
1747252207943191818,0.105
1747252207950879427,0.032
1747252207958567036,-0.046
1747252207966254645,-0.1
1747252207973942254,-0.157
1747252207981629863,-0.209
1747252207989317472,-0.226
1747252207997005081,-0.226
1747252208004692690,-0.226
1747252208012380299,-0.219
1747252208020067908,-0.211
1747252208027755517,-0.199
1747252208035443126,-0.177
1747252208043130735,-0.164
1747252208050818344,-0.164
1747252208058505953,-0.162
1747252208066193562,-0.152
1747252208073881216,-0.145,88,697
1747252208081568825,-0.14
1747252208089256434,-0.14
1747252208096944043,-0.132
1747252208104631652,-0.12
1747252208112319261,-0.125
1747252208120006870,-0.137
1747252208127694479,-0.123
1747252208135382088,-0.115
1747252208143069697,-0.13
1747252208150757306,-0.128
1747252208158444915,-0.113
1747252208166132524,-0.12
1747252208173820133,-0.128
1747252208181507742,-0.115
1747252208189195351,-0.105
1747252208196882960,-0.108
1747252208204570569,-0.105
1747252208212258178,-0.10300000000000001
1747252208219945787,-0.11
1747252208227633396,-0.113
1747252208235321005,-0.11
1747252208243008614,-0.113
1747252208250696223,-0.1
1747252208258383832,-0.083
1747252208266071441,-0.083
1747252208273759050,-0.081
1747252208281446659,-0.068
1747252208289134268,-0.064
1747252208296821877,-0.076
1747252208304509486,-0.093
1747252208312197095,-0.096
1747252208319884704,-0.08600000000000001
1747252208327572313,-0.083
1747252208335259922,-0.088
1747252208342947531,-0.093
1747252208350635140,-0.091
1747252208358322749,-0.088
1747252208366010358,-0.125
1747252208373697967,-0.211
1747252208381385576,-0.243
1747252208389073185,0.1
1747252208396760794,0.918
1747252208404448403,1.725
1747252208412136012,1.725
1747252208419823621,0.5630000000000001
1747252208427511230,-0.534
1747252208435198839,-0.40800000000000003
1747252208442886448,-0.066
1747252208450574057,-0.209
1747252208458261666,-0.241
1747252208465949275,-0.123
1747252208473636884,-0.135
1747252208481324493,-0.16
1747252208489012102,-0.11
1747252208496699711,-0.081
1747252208504387320,-0.083
1747252208512074929,-0.064
1747252208519762538,-0.034
1747252208527450147,-0.022
1747252208535137756,0.0
1747252208542825365,0.024
1747252208550512974,0.044
1747252208558200583,0.076
1747252208565888192,0.11
1747252208573575801,0.125
1747252208581263410,0.152
1747252208588951019,0.189
1747252208596638628,0.219
1747252208604326237,0.233
1747252208612013846,0.23600000000000002
1747252208619701455,0.228
1747252208627389064,0.216
1747252208635076718,0.201
1747252208642764327,0.177
1747252208650451936,0.12
1747252208658139545,0.034
1747252208665827154,-0.049
1747252208673514763,-0.11800000000000001
1747252208681202372,-0.169
1747252208688889981,-0.196
1747252208696577590,-0.216
1747252208704265199,-0.233
1747252208711952808,-0.228
1747252208719640417,-0.20400000000000001
1747252208727328026,-0.196
1747252208735015635,-0.199
1747252208742703244,-0.184
1747252208750390853,-0.167
1747252208758078462,-0.157
1747252208765766071,-0.155
1747252208773453680,-0.15
1747252208781141289,-0.14200000000000002
1747252208788828898,-0.132
1747252208796516507,-0.128
1747252208804204116,-0.123
1747252208811891725,-0.115
1747252208819579334,-0.115
1747252208827266943,-0.11800000000000001
1747252208834954552,-0.123
1747252208842642161,-0.12
1747252208850329770,-0.10300000000000001
1747252208858017379,-0.10300000000000001
1747252208865704988,-0.11
1747252208873392597,-0.115
1747252208881080206,-0.11
1747252208888767815,-0.1
1747252208896455424,-0.113
1747252208904143033,-0.125
1747252208911830642,-0.10300000000000001
1747252208919518251,-0.098
1747252208927205860,-0.113
1747252208934893469,-0.096
1747252208942581078,-0.076
1747252208950268687,-0.08600000000000001
1747252208957956296,-0.088
1747252208965643905,-0.066
1747252208973331514,-0.066
1747252208981019123,-0.1
1747252208988706732,-0.113
1747252208996394341,-0.10300000000000001
1747252209004081950,-0.1
1747252209011769559,-0.1
1747252209019457168,-0.098
1747252209027144777,-0.093
1747252209034832386,-0.096
1747252209042519995,-0.137
1747252209050207604,-0.233
1747252209057895213,-0.275
1747252209065582822,0.054
1747252209073270431,0.871
1747252209080958040,1.696
1747252209088645649,1.7670000000000001
1747252209096333258,0.686
1747252209104020867,-0.487
1747252209111708476,-0.47200000000000003
1747252209119396085,-0.10300000000000001
1747252209127083694,-0.224
1747252209134771303,-0.27
1747252209142458912,-0.14
1747252209150146521,-0.157
1747252209157834130,-0.182
1747252209165521739,-0.123
1747252209173209348,-0.108
1747252209180896957,-0.11800000000000001
1747252209188584566,-0.091
1747252209196272220,-0.061,87,700
1747252209203959759,-0.049,,701
1747252209211647298,-0.036000000000000004
1747252209219334837,-0.012
1747252209227022376,0.012
1747252209234709915,0.034
1747252209242397454,0.061
1747252209250084993,0.088
1747252209257772532,0.11
1747252209265460071,0.14
1747252209273147610,0.157
1747252209280835149,0.157
1747252209288522688,0.17200000000000001
1747252209296210227,0.169
1747252209303897766,0.14200000000000002
1747252209311585305,0.123
1747252209319272844,0.10300000000000001
1747252209326960383,0.056
1747252209334647922,-0.014
1747252209342335461,-0.08600000000000001
1747252209350023000,-0.147
1747252209357710539,-0.192
1747252209365398078,-0.224
1747252209373085617,-0.241
1747252209380773156,-0.246
1747252209388460695,-0.246
1747252209396148234,-0.233
1747252209403835773,-0.216
1747252209411523312,-0.211
1747252209419210851,-0.199
1747252209426898390,-0.184
1747252209434585929,-0.179
1747252209442273468,-0.17200000000000001
1747252209449961007,-0.162
1747252209457648546,-0.155
1747252209465336085,-0.15
1747252209473023624,-0.14200000000000002
1747252209480711163,-0.135
1747252209488398702,-0.135
1747252209496086241,-0.137
1747252209503773780,-0.137
1747252209511461319,-0.132
1747252209519148858,-0.135
1747252209526836397,-0.137
1747252209534523936,-0.132
1747252209542211475,-0.132
1747252209549899014,-0.135
1747252209557586553,-0.13
1747252209565274092,-0.125
1747252209572961631,-0.13
1747252209580649170,-0.13
1747252209588336709,-0.128
1747252209596024248,-0.13
1747252209603711787,-0.135
1747252209611399326,-0.132
1747252209619086865,-0.128
1747252209626774404,-0.115
1747252209634461943,-0.108
1747252209642149482,-0.108
1747252209649837021,-0.098
1747252209657524560,-0.083
1747252209665212099,-0.08600000000000001
1747252209672899638,-0.108
1747252209680587177,-0.11800000000000001
1747252209688274716,-0.11
1747252209695962255,-0.105
1747252209703649794,-0.10300000000000001
1747252209711337333,-0.1
1747252209719024872,-0.096
1747252209726712411,-0.11
1747252209734399950,-0.155
1747252209742087489,-0.243
1747252209749775028,-0.243
1747252209757462635,0.14200000000000002
1747252209765150174,0.9500000000000001
1747252209772837713,1.725
1747252209780525252,1.723
1747252209788212791,0.5680000000000001
1747252209795900330,-0.539
1747252209803587869,-0.43
1747252209811275408,-0.073
1747252209818962947,-0.226
1747252209826650486,-0.28800000000000003
1747252209834338025,-0.164
1747252209842025564,-0.17200000000000001
1747252209849713103,-0.194
1747252209857400642,-0.14200000000000002
1747252209865088181,-0.123
1747252209872775720,-0.12
1747252209880463259,-0.096
1747252209888150798,-0.073
1747252209895838337,-0.064
1747252209903525876,-0.046
1747252209911213415,-0.024
1747252209918900954,0.0
1747252209926588493,0.022
1747252209934276032,0.041
1747252209941963571,0.068
1747252209949651110,0.105
1747252209957338649,0.135
1747252209965026188,0.155
1747252209972713727,0.167
1747252209980401266,0.17400000000000002
1747252209988088805,0.17400000000000002
1747252209995776344,0.164
1747252210003463883,0.14200000000000002
1747252210011151422,0.115
1747252210018838961,0.068
1747252210026526500,0.0
1747252210034214039,-0.081
1747252210041901578,-0.15
1747252210049589117,-0.196
1747252210057276656,-0.221
1747252210064964195,-0.23600000000000002
1747252210072651734,-0.246
1747252210080339273,-0.23800000000000002
1747252210088026812,-0.224
1747252210095714351,-0.216
1747252210103401890,-0.20600000000000002
1747252210111089429,-0.196
1747252210118776968,-0.187
1747252210126464507,-0.17400000000000002
1747252210134152046,-0.162
1747252210141839585,-0.162
1747252210149527124,-0.16
1747252210157214663,-0.155
1747252210164902202,-0.152
1747252210172589741,-0.15
1747252210180277280,-0.145
1747252210187964819,-0.145
1747252210195652358,-0.14200000000000002
1747252210203339897,-0.14
1747252210211027436,-0.137
1747252210218714975,-0.137
1747252210226402514,-0.135
1747252210234090053,-0.13
1747252210241777592,-0.13
1747252210249465131,-0.128
1747252210257152670,-0.123
1747252210264840209,-0.12
1747252210272527748,-0.123
1747252210280215287,-0.123
1747252210287902826,-0.128
1747252210295590365,-0.135
1747252210303277904,-0.132
1747252210310965443,-0.115
1747252210318653050,-0.105,87,706
1747252210326340589,-0.105
1747252210334028128,-0.1
1747252210341715667,-0.083
1747252210349403206,-0.073
1747252210357090745,-0.088
1747252210364778284,-0.113
1747252210372465823,-0.11800000000000001
1747252210380153362,-0.108
1747252210387840901,-0.1
1747252210395528440,-0.1
1747252210403215979,-0.1
1747252210410903518,-0.096
1747252210418591057,-0.105
1747252210426278596,-0.16
1747252210433966135,-0.253
1747252210441653674,-0.231
1747252210449341213,0.219
1747252210457028752,1.061
1747252210464716291,1.7790000000000001
1747252210472403830,1.612
1747252210480091369,0.361
1747252210487778908,-0.59
1747252210495466447,-0.359
1747252210503153986,-0.073
1747252210510841525,-0.246
1747252210518529064,-0.256
1747252210526216603,-0.147
1747252210533904142,-0.179
1747252210541591681,-0.184
1747252210549279220,-0.128
1747252210556966759,-0.11800000000000001
1747252210564654298,-0.113
1747252210572341837,-0.083
1747252210580029376,-0.068
1747252210587716915,-0.054
1747252210595404454,-0.029
1747252210603091993,-0.012
1747252210610779532,0.007
1747252210618467071,0.034
1747252210626154610,0.061
1747252210633842149,0.091
1747252210641529688,0.123
1747252210649217227,0.15
1747252210656904766,0.17200000000000001
1747252210664592305,0.187
1747252210672279844,0.192
1747252210679967383,0.184
1747252210687654922,0.17200000000000001
1747252210695342461,0.155
1747252210703030000,0.125
1747252210710717539,0.068
1747252210718405078,-0.009000000000000001
1747252210726092617,-0.088
1747252210733780156,-0.15
1747252210741467695,-0.196
1747252210749155234,-0.228
1747252210756842773,-0.23800000000000002
1747252210764530312,-0.23800000000000002
1747252210772217851,-0.23600000000000002
1747252210779905390,-0.231
1747252210787592929,-0.219
1747252210795280468,-0.20600000000000002
1747252210802968007,-0.194
1747252210810655546,-0.184
1747252210818343085,-0.17400000000000002
1747252210826030624,-0.167
1747252210833718163,-0.162
1747252210841405702,-0.157
1747252210849093241,-0.152
1747252210856780780,-0.15
1747252210864468319,-0.147
1747252210872155858,-0.14
1747252210879843465,-0.14
1747252210887531004,-0.14
1747252210895218543,-0.137
1747252210902906082,-0.137
1747252210910593621,-0.135
1747252210918281160,-0.128
1747252210925968699,-0.13
1747252210933656238,-0.135
1747252210941343777,-0.125
1747252210949031316,-0.11800000000000001
1747252210956718855,-0.11800000000000001
1747252210964406394,-0.115
1747252210972093933,-0.12
1747252210979781472,-0.137
1747252210987469011,-0.14
1747252210995156550,-0.11800000000000001
1747252211002844089,-0.098
1747252211010531628,-0.088
1747252211018219167,-0.093
1747252211025906706,-0.091
1747252211033594245,-0.078
1747252211041281784,-0.081
1747252211048969323,-0.10300000000000001
1747252211056656862,-0.113
1747252211064344401,-0.10300000000000001
1747252211072031940,-0.098
1747252211079719479,-0.093
1747252211087407018,-0.083
1747252211095094557,-0.08600000000000001
1747252211102782096,-0.10300000000000001
1747252211110469635,-0.14200000000000002
1747252211118157174,-0.226
1747252211125844713,-0.251
1747252211133532252,0.1
1747252211141219791,0.903
1747252211148907330,1.703
1747252211156594869,1.742
1747252211164282408,0.612
1747252211171969947,-0.519
1747252211179657486,-0.43
1747252211187345025,-0.051000000000000004
1747252211195032564,-0.194
1747252211202720103,-0.268
1747252211210407642,-0.147
1747252211218095181,-0.147
1747252211225782720,-0.162
1747252211233470259,-0.105
1747252211241157798,-0.088
1747252211248845337,-0.1
1747252211256532876,-0.076
1747252211264220415,-0.044
1747252211271907954,-0.032
1747252211279595493,-0.017
1747252211287283032,0.012
1747252211294970571,0.041
1747252211302658110,0.066
1747252211310345649,0.083
1747252211318033188,0.098
1747252211325720727,0.145
1747252211333408266,0.194
1747252211341095805,0.20600000000000002
1747252211348783344,0.214
1747252211356470883,0.228
1747252211364158422,0.23600000000000002
1747252211371845961,0.211
1747252211379533500,0.182
1747252211387221039,0.164
1747252211394908578,0.108
1747252211402596117,0.024
1747252211410283656,-0.041
1747252211417971195,-0.11800000000000001
1747252211425658734,-0.184
1747252211433346273,-0.20600000000000002
1747252211441033880,-0.211,87,677
1747252211448721419,-0.228,,691
1747252211456408958,-0.231
1747252211464096497,-0.209
1747252211471784036,-0.199
1747252211479471575,-0.189
1747252211487159114,-0.17400000000000002
1747252211494846653,-0.169
1747252211502534192,-0.16
1747252211510221731,-0.137
1747252211517909270,-0.14
1747252211525596809,-0.145
1747252211533284348,-0.137
1747252211540971887,-0.135
1747252211548659426,-0.132
1747252211556346965,-0.13
1747252211564034504,-0.123
1747252211571722043,-0.115
1747252211579409582,-0.11800000000000001
1747252211587097121,-0.125
1747252211594784660,-0.113
1747252211602472199,-0.105
1747252211610159738,-0.12
1747252211617847277,-0.12
1747252211625534816,-0.105
1747252211633222355,-0.098
1747252211640909894,-0.105
1747252211648597433,-0.11
1747252211656284972,-0.113
1747252211663972511,-0.10300000000000001
1747252211671660050,-0.08600000000000001
1747252211679347589,-0.088
1747252211687035128,-0.096
1747252211694722667,-0.091
1747252211702410206,-0.068
1747252211710097745,-0.049
1747252211717785284,-0.066
1747252211725472823,-0.093
1747252211733160362,-0.096
1747252211740847901,-0.083
1747252211748535440,-0.08600000000000001
1747252211756222979,-0.088
1747252211763910518,-0.081
1747252211771598057,-0.076
1747252211779285596,-0.081
1747252211786973135,-0.123
1747252211794660674,-0.214
1747252211802348213,-0.268
1747252211810035752,0.007
1747252211817723291,0.785
1747252211825410830,1.669
1747252211833098369,1.858
1747252211840785908,0.8270000000000001
1747252211848473447,-0.438
1747252211856160986,-0.499
1747252211863848525,-0.091
1747252211871536064,-0.192
1747252211879223603,-0.275
1747252211886911142,-0.147
1747252211894598681,-0.14
1747252211902286220,-0.17200000000000001
1747252211909973759,-0.125
1747252211917661298,-0.1
1747252211925348837,-0.10300000000000001
1747252211933036376,-0.076
1747252211940723915,-0.046
1747252211948411454,-0.036000000000000004
1747252211956098993,-0.022
1747252211963786532,-0.002
1747252211971474071,0.019
1747252211979161610,0.041
1747252211986849149,0.064
1747252211994536688,0.091
1747252212002224295,0.12,87,690
1747252212009911834,0.155
1747252212017599373,0.179
1747252212025286912,0.182
1747252212032974451,0.179
1747252212040661990,0.179
1747252212048349529,0.162
1747252212056037068,0.135
1747252212063724607,0.108
1747252212071412146,0.061
1747252212079099685,-0.009000000000000001
