time,ecg,hr,rr,marker
1747252841843642858,-0.216
1747252841851330815,-0.209
1747252841859018772,-0.196
1747252841866706729,-0.187
1747252841874394686,-0.177
1747252841882082643,-0.167
1747252841889770600,-0.162
1747252841897458557,-0.157
1747252841905146514,-0.145
1747252841912834471,-0.14200000000000002
1747252841920522428,-0.145
1747252841928210385,-0.14
1747252841935898342,-0.13
1747252841943586299,-0.132
1747252841951274256,-0.135
1747252841958962213,-0.132
1747252841966650170,-0.128
1747252841974338127,-0.13
1747252841982026084,-0.128
1747252841989714041,-0.12
1747252841997401998,-0.12
1747252842005089955,-0.12
1747252842012777912,-0.113
1747252842020465869,-0.11
1747252842028153826,-0.113
1747252842035841783,-0.113
1747252842043529740,-0.113
1747252842051217697,-0.105
1747252842058905654,-0.096
1747252842066593611,-0.096
1747252842074281568,-0.105
1747252842081969525,-0.11800000000000001
1747252842089657482,-0.11
1747252842097345439,-0.091
1747252842105033396,-0.081
1747252842112721353,-0.078
1747252842120409310,-0.073
1747252842128097267,-0.061
1747252842135785224,-0.056
1747252842143473181,-0.073
1747252842151161138,-0.096
1747252842158849095,-0.096
1747252842166537052,-0.083
1747252842174225009,-0.081
1747252842181912966,-0.081
1747252842189600923,-0.076
1747252842197288880,-0.078
1747252842204976837,-0.115
1747252842212664794,-0.199
1747252842220352751,-0.23600000000000002
1747252842228040708,0.044
1747252842235728665,0.787
1747252842243416622,1.637
1747252842251104579,1.821
1747252842258792536,0.792
1747252842266480493,-0.448
1747252842274168450,-0.497
1747252842281856407,-0.083
1747252842289544364,-0.17400000000000002
1747252842297232321,-0.263
1747252842304920278,-0.145
1747252842312608235,-0.145
1747252842320296192,-0.17400000000000002
1747252842327984149,-0.12
1747252842335672106,-0.096
1747252842343360063,-0.10300000000000001
1747252842351048020,-0.073
1747252842358735977,-0.049
1747252842366423934,-0.036000000000000004
1747252842374111891,-0.007
1747252842381799848,0.014
1747252842389487805,0.024
1747252842397175762,0.039
1747252842404863791,0.061,89,665
1747252842412551888,0.096,,688
1747252842420239985,0.13
1747252842427928082,0.15
1747252842435616179,0.179
1747252842443304276,0.209
1747252842450992373,0.20600000000000002
1747252842458680470,0.194
1747252842466368567,0.192
1747252842474056664,0.182
1747252842481744761,0.157
1747252842489432858,0.123
1747252842497120955,0.068
1747252842504809052,0.0
1747252842512497149,-0.068
1747252842520185246,-0.128
1747252842527873343,-0.17200000000000001
1747252842535561440,-0.20400000000000001
1747252842543249537,-0.214
1747252842550937634,-0.209
1747252842558625731,-0.209
1747252842566313828,-0.216
1747252842574001925,-0.209
1747252842581690022,-0.187
1747252842589378119,-0.164
1747252842597066216,-0.152
1747252842604754313,-0.157
1747252842612442410,-0.157
1747252842620130507,-0.135
1747252842627818604,-0.11800000000000001
1747252842635506701,-0.128
1747252842643194798,-0.132
1747252842650882895,-0.113
1747252842658570992,-0.098
1747252842666259089,-0.105
1747252842673947186,-0.11800000000000001
1747252842681635283,-0.123
1747252842689323380,-0.11
1747252842697011477,-0.108
1747252842704699574,-0.11800000000000001
1747252842712387671,-0.108
1747252842720075768,-0.096
1747252842727763865,-0.105
1747252842735451962,-0.108
1747252842743140059,-0.10300000000000001
1747252842750828156,-0.1
1747252842758516253,-0.093
1747252842766204350,-0.098
1747252842773892447,-0.113
1747252842781580544,-0.113
1747252842789268641,-0.098
1747252842796956738,-0.081
1747252842804644835,-0.078
1747252842812332932,-0.076
1747252842820021029,-0.056
1747252842827709126,-0.051000000000000004
1747252842835397223,-0.076
1747252842843085320,-0.096
1747252842850773417,-0.091
1747252842858461514,-0.076
1747252842866149611,-0.073
1747252842873837708,-0.088
1747252842881525805,-0.08600000000000001
1747252842889213902,-0.078
1747252842896901999,-0.105
1747252842904590096,-0.189
1747252842912278193,-0.251
1747252842919966290,0.002
1747252842927654387,0.75
1747252842935342484,1.614
1747252842943030581,1.851
1747252842950718678,0.901
1747252842958406775,-0.388
1747252842966094898,-0.531,89,704
1747252842973782925,-0.096
1747252842981470952,-0.162
1747252842989158979,-0.28
1747252842996847006,-0.15
1747252843004535033,-0.12
1747252843012223060,-0.169
1747252843019911087,-0.125
1747252843027599114,-0.083
1747252843035287141,-0.1
1747252843042975168,-0.083
1747252843050663195,-0.039
1747252843058351222,-0.029
1747252843066039249,-0.024
1747252843073727276,0.012
1747252843081415303,0.036000000000000004
1747252843089103330,0.044
1747252843096791357,0.078
1747252843104479384,0.11800000000000001
1747252843112167411,0.137
1747252843119855438,0.157
1747252843127543465,0.192
1747252843135231492,0.221
1747252843142919519,0.226
1747252843150607546,0.214
1747252843158295573,0.20400000000000001
1747252843165983600,0.187
1747252843173671627,0.162
1747252843181359654,0.128
1747252843189047681,0.059000000000000004
1747252843196735708,-0.027
1747252843204423735,-0.093
1747252843212111762,-0.152
1747252843219799789,-0.20400000000000001
1747252843227487816,-0.228
1747252843235175843,-0.23600000000000002
1747252843242863870,-0.241
1747252843250551897,-0.23600000000000002
1747252843258239924,-0.226
1747252843265927951,-0.216
1747252843273615978,-0.209
1747252843281304005,-0.199
1747252843288992032,-0.187
1747252843296680059,-0.17400000000000002
1747252843304368086,-0.164
1747252843312056113,-0.16
1747252843319744140,-0.152
1747252843327432167,-0.15
1747252843335120194,-0.14
1747252843342808221,-0.132
1747252843350496248,-0.13
1747252843358184275,-0.128
1747252843365872302,-0.125
1747252843373560329,-0.13
1747252843381248356,-0.132
1747252843388936383,-0.128
1747252843396624410,-0.128
1747252843404312437,-0.13
1747252843412000464,-0.125
1747252843419688491,-0.12
1747252843427376518,-0.12
1747252843435064545,-0.128
1747252843442752572,-0.128
1747252843450440599,-0.128
1747252843458128626,-0.132
1747252843465816653,-0.13
1747252843473504680,-0.11800000000000001
1747252843481192707,-0.108
1747252843488880734,-0.108
1747252843496568761,-0.10300000000000001
1747252843504256788,-0.088
1747252843511944815,-0.081
1747252843519632842,-0.098
1747252843527320918,-0.11800000000000001
1747252843535008945,-0.123
1747252843542696972,-0.115
1747252843550384999,-0.108
1747252843558073026,-0.10300000000000001
1747252843565761053,-0.098
1747252843573449080,-0.11
1747252843581137107,-0.15
1747252843588825134,-0.231
1747252843596513161,-0.256
1747252843604201188,0.093
1747252843611889215,0.893
1747252843619577242,1.693
1747252843627265269,1.752
1747252843634953296,0.642
1747252843642641323,-0.534
1747252843650329350,-0.492
1747252843658017377,-0.1
1747252843665705404,-0.224
1747252843673393431,-0.295
1747252843681081458,-0.169
1747252843688769485,-0.164
1747252843696457512,-0.192
1747252843704145539,-0.14200000000000002
1747252843711833566,-0.11800000000000001
1747252843719521593,-0.12
1747252843727209620,-0.10300000000000001
1747252843734897647,-0.076
1747252843742585674,-0.061
1747252843750273701,-0.046
1747252843757961728,-0.024
1747252843765649755,-0.002
1747252843773337782,0.019
1747252843781025809,0.046
1747252843788713836,0.07100000000000001
1747252843796401863,0.098
1747252843804089890,0.125
1747252843811777917,0.15
1747252843819465944,0.167
1747252843827153971,0.17400000000000002
1747252843834841998,0.169
1747252843842530025,0.16
1747252843850218052,0.145
1747252843857906079,0.123
1747252843865594106,0.081
1747252843873282133,0.022
1747252843880970160,-0.046
1747252843888658187,-0.11800000000000001
1747252843896346214,-0.17400000000000002
1747252843904034241,-0.209
1747252843911722268,-0.228
1747252843919410295,-0.23800000000000002
1747252843927098322,-0.241
1747252843934786349,-0.23600000000000002
1747252843942474376,-0.224
1747252843950162403,-0.214
1747252843957850430,-0.201
1747252843965538457,-0.194
1747252843973226484,-0.184
1747252843980914511,-0.17400000000000002
1747252843988602538,-0.164
1747252843996290565,-0.155
1747252844003978592,-0.147
1747252844011666619,-0.147
1747252844019354646,-0.14200000000000002
1747252844027042673,-0.14
1747252844034730700,-0.137
1747252844042418727,-0.132
1747252844050106754,-0.13
1747252844057794781,-0.135
1747252844065482808,-0.132
1747252844073170835,-0.128
1747252844080858862,-0.13
1747252844088546938,-0.13,89,719
1747252844096235035,-0.125
1747252844103923132,-0.12
1747252844111611229,-0.12
1747252844119299326,-0.123
1747252844126987423,-0.12
1747252844134675520,-0.11800000000000001
1747252844142363617,-0.123
1747252844150051714,-0.125
1747252844157739811,-0.128
1747252844165427908,-0.128
1747252844173116005,-0.115
1747252844180804102,-0.10300000000000001
1747252844188492199,-0.1
1747252844196180296,-0.093
1747252844203868393,-0.076
1747252844211556490,-0.073
1747252844219244587,-0.098
1747252844226932684,-0.115
1747252844234620781,-0.113
1747252844242308878,-0.10300000000000001
1747252844249996975,-0.098
1747252844257685072,-0.098
1747252844265373169,-0.093
1747252844273061266,-0.1
1747252844280749363,-0.14
1747252844288437460,-0.224
1747252844296125557,-0.253
1747252844303813654,0.054
1747252844311501751,0.8190000000000001
1747252844319189848,1.659
1747252844326877945,1.821
1747252844334566042,0.777
1747252844342254139,-0.467
1747252844349942236,-0.514
1747252844357630333,-0.098
1747252844365318430,-0.196
1747252844373006527,-0.295
1747252844380694624,-0.177
1747252844388382721,-0.164
1747252844396070818,-0.194
1747252844403758915,-0.145
1747252844411447012,-0.115
1747252844419135109,-0.11800000000000001
1747252844426823206,-0.098
1747252844434511303,-0.07100000000000001
1747252844442199400,-0.059000000000000004
1747252844449887497,-0.044
1747252844457575594,-0.022
1747252844465263691,0.0
1747252844472951788,0.019
1747252844480639885,0.041
1747252844488327982,0.07100000000000001
1747252844496016079,0.1
1747252844503704176,0.128
1747252844511392273,0.152
1747252844519080370,0.17400000000000002
1747252844526768467,0.184
1747252844534456564,0.179
1747252844542144661,0.169
1747252844549832758,0.157
1747252844557520855,0.135
1747252844565208952,0.098
1747252844572897049,0.039
1747252844580585146,-0.032
1747252844588273243,-0.10300000000000001
1747252844595961340,-0.162
1747252844603649437,-0.201
1747252844611337534,-0.226
1747252844619025631,-0.241
1747252844626713728,-0.241
1747252844634401825,-0.233
1747252844642089922,-0.226
1747252844649778041,-0.216
1747252844657465998,-0.20600000000000002
1747252844665153955,-0.192
1747252844672841912,-0.179
1747252844680529869,-0.17200000000000001
1747252844688217826,-0.164
1747252844695905783,-0.157
1747252844703593740,-0.152
1747252844711281697,-0.147
1747252844718969654,-0.147
1747252844726657611,-0.145
1747252844734345568,-0.14
1747252844742033525,-0.135
1747252844749721482,-0.135
1747252844757409439,-0.135
1747252844765097396,-0.132
1747252844772785353,-0.13
1747252844780473310,-0.13
1747252844788161267,-0.13
1747252844795849224,-0.128
1747252844803537181,-0.128
1747252844811225138,-0.123
1747252844818913095,-0.123
1747252844826601052,-0.12
1747252844834289009,-0.115
1747252844841976966,-0.113
1747252844849664923,-0.113
1747252844857352880,-0.11800000000000001
1747252844865040837,-0.128
1747252844872728794,-0.13
1747252844880416751,-0.12
1747252844888104708,-0.105
1747252844895792665,-0.096
1747252844903480622,-0.091
1747252844911168579,-0.081
1747252844918856536,-0.066
1747252844926544493,-0.073
1747252844934232450,-0.10300000000000001
1747252844941920407,-0.11
1747252844949608364,-0.1
1747252844957296321,-0.098
1747252844964984278,-0.096
1747252844972672235,-0.091
1747252844980360192,-0.088
1747252844988048149,-0.10300000000000001
1747252844995736106,-0.15
1747252845003424063,-0.23800000000000002
1747252845011112020,-0.228
1747252845018799977,0.192
1747252845026487934,1.026
1747252845034175891,1.782
1747252845041863848,1.681
1747252845049551805,0.45
1747252845057239762,-0.583
1747252845064927719,-0.403
1747252845072615676,-0.081
1747252845080303633,-0.23800000000000002
1747252845087991590,-0.273
1747252845095679547,-0.16
1747252845103367504,-0.17400000000000002
1747252845111055461,-0.187
1747252845118743418,-0.135
1747252845126431375,-0.115
1747252845134119332,-0.11800000000000001
1747252845141807289,-0.096
1747252845149495246,-0.07100000000000001
1747252845157183203,-0.056
1747252845164871160,-0.036000000000000004
1747252845172559117,-0.022
1747252845180247074,0.0
1747252845187935031,0.029
1747252845195622988,0.049
1747252845203310945,0.073
1747252845210998974,0.108,88,692
1747252845218687350,0.135,,683
1747252845226375726,0.157
1747252845234064102,0.179
1747252845241752478,0.189
1747252845249440854,0.187
1747252845257129230,0.17200000000000001
1747252845264817606,0.155
1747252845272505982,0.13
1747252845280194358,0.091
1747252845287882734,0.029
1747252845295571110,-0.044
1747252845303259486,-0.113
1747252845310947862,-0.169
1747252845318636238,-0.209
1747252845326324614,-0.231
1747252845334012990,-0.241
1747252845341701366,-0.243
1747252845349389742,-0.23800000000000002
1747252845357078118,-0.224
1747252845364766494,-0.214
1747252845372454870,-0.20400000000000001
1747252845380143246,-0.194
1747252845387831622,-0.182
1747252845395519998,-0.17400000000000002
1747252845403208374,-0.167
1747252845410896750,-0.162
1747252845418585126,-0.155
1747252845426273502,-0.147
1747252845433961878,-0.14200000000000002
1747252845441650254,-0.137
1747252845449338630,-0.137
1747252845457027006,-0.137
1747252845464715382,-0.135
1747252845472403758,-0.13
1747252845480092134,-0.13
1747252845487780510,-0.132
1747252845495468886,-0.128
1747252845503157262,-0.128
1747252845510845638,-0.13
1747252845518534014,-0.125
1747252845526222390,-0.12
1747252845533910766,-0.12
1747252845541599142,-0.11800000000000001
1747252845549287518,-0.113
1747252845556975894,-0.11
1747252845564664270,-0.11
1747252845572352646,-0.105
1747252845580041022,-0.105
1747252845587729398,-0.11
1747252845595417774,-0.113
1747252845603106150,-0.12
1747252845610794526,-0.11800000000000001
1747252845618482902,-0.1
1747252845626171278,-0.08600000000000001
1747252845633859654,-0.083
1747252845641548030,-0.076
1747252845649236406,-0.059000000000000004
1747252845656924782,-0.064
1747252845664613158,-0.096
1747252845672301534,-0.108
1747252845679989910,-0.096
1747252845687678286,-0.093
1747252845695366662,-0.093
1747252845703055038,-0.083
1747252845710743414,-0.081
1747252845718431790,-0.096
1747252845726120166,-0.13
1747252845733808542,-0.211
1747252845741496918,-0.246
1747252845749185294,0.056
1747252845756873670,0.8170000000000001
1747252845764562046,1.649
1747252845772250429,1.802
1747252845779938526,0.765
1747252845787626623,-0.452
1747252845795314720,-0.497
1747252845803002817,-0.098
1747252845810690914,-0.189
1747252845818379011,-0.278
1747252845826067108,-0.164
1747252845833755205,-0.155
1747252845841443302,-0.189
1747252845849131399,-0.147
1747252845856819496,-0.12
1747252845864507593,-0.11800000000000001
1747252845872195690,-0.093
1747252845879883787,-0.066
1747252845887571884,-0.049
1747252845895259981,-0.032
1747252845902948078,-0.012
1747252845910636175,0.009000000000000001
1747252845918324272,0.029
1747252845926012369,0.054
1747252845933700466,0.078
1747252845941388563,0.105
1747252845949076660,0.137
1747252845956764757,0.164
1747252845964452854,0.184
1747252845972140951,0.196
1747252845979829048,0.201
1747252845987517145,0.192
1747252845995205242,0.169
1747252846002893339,0.147
1747252846010581436,0.12
1747252846018269533,0.061
1747252846025957630,-0.014
1747252846033645727,-0.076
1747252846041333824,-0.135
1747252846049021921,-0.184
1747252846056710018,-0.209
1747252846064398115,-0.226
1747252846072086212,-0.231
1747252846079774309,-0.219
1747252846087462406,-0.211
1747252846095150503,-0.20600000000000002
1747252846102838600,-0.194
1747252846110526697,-0.182
1747252846118214794,-0.169
1747252846125902891,-0.162
1747252846133590988,-0.155
1747252846141279085,-0.15
1747252846148967182,-0.14200000000000002
1747252846156655279,-0.132
1747252846164343376,-0.128
1747252846172031473,-0.132
1747252846179719570,-0.13
1747252846187407667,-0.123
1747252846195095764,-0.128
1747252846202783861,-0.128
1747252846210471958,-0.115
1747252846218160055,-0.11800000000000001
1747252846225848152,-0.123
1747252846233536249,-0.123
1747252846241224346,-0.11800000000000001
1747252846248912443,-0.108
1747252846256600540,-0.10300000000000001
1747252846264288637,-0.11
1747252846271976734,-0.115
1747252846279664831,-0.11
1747252846287352928,-0.1
1747252846295041025,-0.093
1747252846302729122,-0.096
1747252846310417219,-0.098
1747252846318105316,-0.091
1747252846325793413,-0.093
1747252846333481536,-0.10300000000000001,88,700
1747252846341169354,-0.1
1747252846348857172,-0.091
1747252846356544990,-0.083
1747252846364232808,-0.078
1747252846371920626,-0.068
1747252846379608444,-0.054
1747252846387296262,-0.054
1747252846394984080,-0.07100000000000001
1747252846402671898,-0.081
1747252846410359716,-0.083
1747252846418047534,-0.08600000000000001
1747252846425735352,-0.088
1747252846433423170,-0.081
1747252846441110988,-0.073
1747252846448798806,-0.08600000000000001
1747252846456486624,-0.123
1747252846464174442,-0.196
1747252846471862260,-0.241
1747252846479550078,0.076
1747252846487237896,0.883
1747252846494925714,1.723
1747252846502613532,1.814
1747252846510301350,0.7010000000000001
1747252846517989168,-0.499
1747252846525676986,-0.462
1747252846533364804,-0.068
1747252846541052622,-0.20400000000000001
1747252846548740440,-0.27
1747252846556428258,-0.132
1747252846564116076,-0.14
1747252846571803894,-0.177
1747252846579491712,-0.12
1747252846587179530,-0.096
1747252846594867348,-0.1
1747252846602555166,-0.068
1747252846610242984,-0.041
1747252846617930802,-0.034
1747252846625618620,-0.019
1747252846633306438,0.007
1747252846640994256,0.039
1747252846648682074,0.064
1747252846656369892,0.076
1747252846664057710,0.10300000000000001
1747252846671745528,0.145
1747252846679433346,0.17400000000000002
1747252846687121164,0.201
1747252846694808982,0.226
1747252846702496800,0.231
1747252846710184618,0.226
1747252846717872436,0.226
1747252846725560254,0.20600000000000002
1747252846733248072,0.177
1747252846740935890,0.15
1747252846748623708,0.098
1747252846756311526,0.0
1747252846763999344,-0.096
1747252846771687162,-0.147
1747252846779374980,-0.187
1747252846787062798,-0.233
1747252846794750616,-0.241
1747252846802438434,-0.226
1747252846810126252,-0.219
1747252846817814070,-0.219
1747252846825501888,-0.219
1747252846833189706,-0.199
1747252846840877524,-0.189
1747252846848565342,-0.196
1747252846856253160,-0.177
1747252846863940978,-0.14
1747252846871628796,-0.132
1747252846879316614,-0.152
1747252846887004432,-0.155
1747252846894692295,-0.135
1747252846902380531,-0.123
1747252846910068767,-0.11800000000000001
1747252846917757003,-0.108
1747252846925445239,-0.10300000000000001
1747252846933133475,-0.11
1747252846940821711,-0.123
1747252846948509947,-0.128
1747252846956198183,-0.12
1747252846963886419,-0.115
1747252846971574655,-0.113
1747252846979262891,-0.108
1747252846986951127,-0.1
1747252846994639363,-0.10300000000000001
1747252847002327599,-0.12
1747252847010015835,-0.11
1747252847017704071,-0.091
1747252847025392307,-0.10300000000000001
1747252847033080543,-0.115
1747252847040768779,-0.105
1747252847048457015,-0.098
1747252847056145251,-0.098
1747252847063833487,-0.088
1747252847071521723,-0.081
1747252847079209959,-0.076
1747252847086898195,-0.068
1747252847094586431,-0.059000000000000004
1747252847102274667,-0.07100000000000001
1747252847109962903,-0.1
1747252847117651139,-0.105
1747252847125339375,-0.091
1747252847133027611,-0.083
1747252847140715847,-0.08600000000000001
1747252847148404083,-0.083
1747252847156092319,-0.083
1747252847163780555,-0.113
1747252847171468791,-0.187
1747252847179157027,-0.26
1747252847186845263,-0.1
1747252847194533499,0.558
1747252847202221735,1.467
1747252847209909971,1.922
1747252847217598207,1.216
1747252847225286443,-0.17400000000000002
1747252847232974679,-0.622
1747252847240662915,-0.194
1747252847248351151,-0.14200000000000002
1747252847256039387,-0.295
1747252847263727623,-0.196
1747252847271415859,-0.145
1747252847279104095,-0.196
1747252847286792331,-0.164
1747252847294480567,-0.113
1747252847302168803,-0.115
1747252847309857039,-0.11
1747252847317545275,-0.078
1747252847325233511,-0.054
1747252847332921747,-0.041
1747252847340609983,-0.024
1747252847348298219,-0.004
1747252847355986455,0.014
1747252847363674691,0.041
1747252847371362927,0.073
1747252847379051163,0.1
1747252847386739399,0.128
1747252847394427635,0.155
1747252847402115871,0.177
1747252847409804107,0.192
1747252847417492343,0.194
1747252847425180579,0.187
1747252847432868815,0.169
1747252847440557051,0.145
1747252847448245287,0.11
1747252847455933576,0.064,87,713
1747252847463621603,-0.009000000000000001,,732
1747252847471309630,-0.096
1747252847478997657,-0.157
1747252847486685684,-0.199
1747252847494373711,-0.231
1747252847502061738,-0.246
1747252847509749765,-0.248
1747252847517437792,-0.248
1747252847525125819,-0.241
1747252847532813846,-0.231
1747252847540501873,-0.226
1747252847548189900,-0.209
1747252847555877927,-0.192
1747252847563565954,-0.187
1747252847571253981,-0.179
1747252847578942008,-0.164
1747252847586630035,-0.157
1747252847594318062,-0.152
1747252847602006089,-0.15
1747252847609694116,-0.14
1747252847617382143,-0.132
1747252847625070170,-0.135
1747252847632758197,-0.135
1747252847640446224,-0.128
1747252847648134251,-0.125
1747252847655822278,-0.128
1747252847663510305,-0.125
1747252847671198332,-0.123
1747252847678886359,-0.125
1747252847686574386,-0.125
1747252847694262413,-0.125
1747252847701950440,-0.123
1747252847709638467,-0.11800000000000001
1747252847717326494,-0.11800000000000001
1747252847725014521,-0.115
1747252847732702548,-0.11
1747252847740390575,-0.113
1747252847748078602,-0.13
1747252847755766629,-0.135
1747252847763454656,-0.12
1747252847771142683,-0.105
1747252847778830710,-0.1
1747252847786518737,-0.096
1747252847794206764,-0.083
1747252847801894791,-0.066
1747252847809582818,-0.073
1747252847817270845,-0.105
1747252847824958872,-0.115
1747252847832646899,-0.10300000000000001
1747252847840334926,-0.098
1747252847848022953,-0.098
1747252847855710980,-0.093
1747252847863399007,-0.091
1747252847871087034,-0.10300000000000001
1747252847878775061,-0.15
1747252847886463088,-0.241
1747252847894151115,-0.23600000000000002
1747252847901839142,0.167
1747252847909527169,0.999
1747252847917215196,1.794
1747252847924903223,1.7670000000000001
1747252847932591250,0.553
1747252847940279277,-0.5630000000000001
1747252847947967304,-0.435
1747252847955655331,-0.083
1747252847963343358,-0.233
1747252847971031385,-0.28500000000000003
1747252847978719412,-0.169
1747252847986407439,-0.182
1747252847994095466,-0.196
1747252848001783493,-0.14
1747252848009471520,-0.12
1747252848017159596,-0.11800000000000001,87,729
1747252848024847623,-0.091
1747252848032535650,-0.068
1747252848040223677,-0.061
1747252848047911704,-0.036000000000000004
1747252848055599731,-0.014
1747252848063287758,-0.004
1747252848070975785,0.022
1747252848078663812,0.056
1747252848086351839,0.08600000000000001
1747252848094039866,0.11
1747252848101727893,0.145
1747252848109415920,0.179
1747252848117103947,0.194
1747252848124791974,0.201
1747252848132480001,0.20600000000000002
1747252848140168028,0.199
1747252848147856055,0.179
1747252848155544082,0.155
1747252848163232109,0.11800000000000001
1747252848170920136,0.049
1747252848178608163,-0.036000000000000004
1747252848186296190,-0.113
1747252848193984217,-0.17200000000000001
1747252848201672244,-0.214
1747252848209360271,-0.23600000000000002
1747252848217048298,-0.243
1747252848224736325,-0.248
1747252848232424352,-0.246
1747252848240112379,-0.231
1747252848247800406,-0.219
1747252848255488433,-0.209
1747252848263176460,-0.196
1747252848270864487,-0.187
1747252848278552514,-0.179
1747252848286240541,-0.169
1747252848293928568,-0.16
1747252848301616595,-0.155
1747252848309304622,-0.152
1747252848316992649,-0.15
1747252848324680676,-0.14200000000000002
1747252848332368703,-0.137
1747252848340056730,-0.135
1747252848347744757,-0.135
1747252848355432784,-0.13
1747252848363120811,-0.13
1747252848370808838,-0.132
1747252848378496865,-0.132
1747252848386184892,-0.125
1747252848393872919,-0.123
1747252848401560946,-0.125
1747252848409248973,-0.125
1747252848416937000,-0.12
1747252848424625027,-0.115
1747252848432313054,-0.115
1747252848440001081,-0.113
1747252848447689108,-0.11
1747252848455377135,-0.108
1747252848463065162,-0.113
1747252848470753189,-0.123
1747252848478441216,-0.125
1747252848486129243,-0.11
1747252848493817270,-0.093
1747252848501505297,-0.091
1747252848509193324,-0.091
1747252848516881351,-0.073
1747252848524569378,-0.061
1747252848532257405,-0.078
1747252848539945432,-0.105
1747252848547633459,-0.108
1747252848555321486,-0.098
1747252848563009513,-0.096
1747252848570697540,-0.091
1747252848578385612,-0.083
1747252848586073779,-0.088
1747252848593761946,-0.108
1747252848601450113,-0.162
1747252848609138280,-0.251
1747252848616826447,-0.196
1747252848624514614,0.3
1747252848632202781,1.166
1747252848639890948,1.861
1747252848647579115,1.587
1747252848655267282,0.258
1747252848662955449,-0.62
1747252848670643616,-0.329
1747252848678331783,-0.08600000000000001
1747252848686019950,-0.268
1747252848693708117,-0.258
1747252848701396284,-0.152
1747252848709084451,-0.184
1747252848716772618,-0.184
1747252848724460785,-0.13
1747252848732148952,-0.12
1747252848739837119,-0.115
1747252848747525286,-0.08600000000000001
1747252848755213453,-0.061
1747252848762901620,-0.049
1747252848770589787,-0.029
1747252848778277954,-0.009000000000000001
1747252848785966121,0.007
1747252848793654288,0.034
1747252848801342455,0.066
1747252848809030622,0.098
1747252848816718789,0.123
1747252848824406956,0.155
1747252848832095123,0.187
1747252848839783290,0.20600000000000002
1747252848847471457,0.211
1747252848855159624,0.214
1747252848862847791,0.211
1747252848870535958,0.192
1747252848878224125,0.157
1747252848885912292,0.108
1747252848893600459,0.039
1747252848901288626,-0.039
1747252848908976793,-0.115
1747252848916664960,-0.179
1747252848924353127,-0.216
1747252848932041294,-0.233
1747252848939729461,-0.243
1747252848947417628,-0.248
1747252848955105795,-0.241
1747252848962793962,-0.226
1747252848970482129,-0.211
1747252848978170296,-0.20400000000000001
1747252848985858463,-0.194
1747252848993546630,-0.179
1747252849001234797,-0.17200000000000001
1747252849008922964,-0.164
1747252849016611131,-0.155
1747252849024299298,-0.15
1747252849031987465,-0.147
1747252849039675632,-0.14200000000000002
1747252849047363799,-0.14
1747252849055051966,-0.137
1747252849062740133,-0.135
1747252849070428300,-0.13
1747252849078116467,-0.132
1747252849085804634,-0.132
1747252849093492801,-0.128
1747252849101180968,-0.12
1747252849108869135,-0.123
1747252849116557302,-0.12
1747252849124245469,-0.11800000000000001
1747252849131933636,-0.11800000000000001
1747252849139621808,-0.113,86,710
1747252849147309696,-0.113
1747252849154997584,-0.11
1747252849162685472,-0.11
1747252849170373360,-0.108
1747252849178061248,-0.10300000000000001
1747252849185749136,-0.1
1747252849193437024,-0.1
1747252849201124912,-0.10300000000000001
1747252849208812800,-0.113
1747252849216500688,-0.11800000000000001
1747252849224188576,-0.108
1747252849231876464,-0.091
1747252849239564352,-0.083
1747252849247252240,-0.081
1747252849254940128,-0.068
1747252849262628016,-0.054
1747252849270315904,-0.064
1747252849278003792,-0.093
1747252849285691680,-0.1
1747252849293379568,-0.088
1747252849301067456,-0.083
1747252849308755344,-0.08600000000000001
1747252849316443232,-0.078
1747252849324131120,-0.073
1747252849331819008,-0.08600000000000001
1747252849339506896,-0.123
1747252849347194784,-0.20600000000000002
1747252849354882672,-0.248
1747252849362570560,0.054
1747252849370258448,0.8220000000000001
1747252849377946336,1.659
1747252849385634224,1.831
1747252849393322112,0.8140000000000001
1747252849401010000,-0.425
1747252849408697888,-0.497
1747252849416385776,-0.093
1747252849424073664,-0.182
1747252849431761552,-0.28300000000000003
1747252849439449440,-0.17200000000000001
1747252849447137328,-0.155
1747252849454825216,-0.184
1747252849462513104,-0.137
1747252849470200992,-0.11
1747252849477888880,-0.11
1747252849485576768,-0.088
1747252849493264656,-0.066
1747252849500952544,-0.049
1747252849508640432,-0.029
1747252849516328320,-0.012
1747252849524016208,0.004
1747252849531704096,0.029
1747252849539391984,0.056
1747252849547079872,0.08600000000000001
1747252849554767760,0.12
1747252849562455648,0.15
1747252849570143536,0.177
1747252849577831424,0.201
1747252849585519312,0.219
1747252849593207200,0.221
1747252849600895088,0.211
1747252849608582976,0.199
1747252849616270864,0.177
1747252849623958752,0.14200000000000002
1747252849631646640,0.081
1747252849639334528,0.002
1747252849647022416,-0.076
1747252849654710304,-0.14200000000000002
1747252849662398192,-0.187
1747252849670086080,-0.219
1747252849677773968,-0.23600000000000002
1747252849685461856,-0.241
1747252849693149744,-0.23600000000000002
1747252849700837656,-0.226
1747252849708525892,-0.214
1747252849716214128,-0.201
1747252849723902364,-0.189
1747252849731590600,-0.179
1747252849739278836,-0.17200000000000001
1747252849746967072,-0.164
1747252849754655308,-0.155
1747252849762343544,-0.15
1747252849770031780,-0.145
1747252849777720016,-0.137
1747252849785408252,-0.137
1747252849793096488,-0.137
1747252849800784724,-0.132
1747252849808472960,-0.128
1747252849816161196,-0.128
1747252849823849432,-0.13
1747252849831537668,-0.125
1747252849839225904,-0.123
1747252849846914140,-0.123
1747252849854602376,-0.123
1747252849862290612,-0.11800000000000001
1747252849869978848,-0.115
1747252849877667084,-0.113
1747252849885355320,-0.113
1747252849893043556,-0.115
1747252849900731792,-0.113
1747252849908420028,-0.105
1747252849916108264,-0.10300000000000001
1747252849923796500,-0.105
1747252849931484736,-0.1
1747252849939172972,-0.098
1747252849946861208,-0.096
1747252849954549444,-0.091
1747252849962237680,-0.093
1747252849969925916,-0.108
1747252849977614152,-0.11
1747252849985302388,-0.098
1747252849992990624,-0.081
1747252850000678860,-0.073
1747252850008367096,-0.07100000000000001
1747252850016055332,-0.056
1747252850023743568,-0.044
1747252850031431804,-0.061
1747252850039120040,-0.088
1747252850046808276,-0.093
1747252850054496512,-0.083
1747252850062184748,-0.083
1747252850069872984,-0.083
1747252850077561220,-0.076
1747252850085249456,-0.073
1747252850092937692,-0.08600000000000001
1747252850100625928,-0.13
1747252850108314164,-0.224
1747252850116002400,-0.189
1747252850123690636,0.28800000000000003
1747252850131378872,1.139
1747252850139067108,1.841
1747252850146755344,1.627
1747252850154443580,0.342
1747252850162131816,-0.583
1747252850169820052,-0.329
1747252850177508288,-0.068
1747252850185196524,-0.243
1747252850192884760,-0.246
1747252850200572996,-0.14
1747252850208261232,-0.162
1747252850215949468,-0.164
1747252850223637704,-0.115
1747252850231325940,-0.1
1747252850239014176,-0.096
1747252850246702412,-0.068
1747252850254390648,-0.049
1747252850262078933,-0.041,86,712
1747252850269766890,-0.019,,721
1747252850277454847,0.014
1747252850285142804,0.029
1747252850292830761,0.049
1747252850300518718,0.081
1747252850308206675,0.115
1747252850315894632,0.137
1747252850323582589,0.162
1747252850331270546,0.194
1747252850338958503,0.221
1747252850346646460,0.231
1747252850354334417,0.228
1747252850362022374,0.219
1747252850369710331,0.20400000000000001
1747252850377398288,0.179
1747252850385086245,0.14
1747252850392774202,0.07100000000000001
1747252850400462159,-0.012
1747252850408150116,-0.091
1747252850415838073,-0.15
1747252850423526030,-0.196
1747252850431213987,-0.228
1747252850438901944,-0.241
1747252850446589901,-0.23600000000000002
1747252850454277858,-0.228
1747252850461965815,-0.221
1747252850469653772,-0.211
1747252850477341729,-0.20400000000000001
1747252850485029686,-0.194
1747252850492717643,-0.182
1747252850500405600,-0.167
1747252850508093557,-0.155
1747252850515781514,-0.152
1747252850523469471,-0.152
1747252850531157428,-0.132
1747252850538845385,-0.125
1747252850546533342,-0.132
1747252850554221299,-0.13
1747252850561909256,-0.11800000000000001
1747252850569597213,-0.115
1747252850577285170,-0.128
1747252850584973127,-0.132
1747252850592661084,-0.123
1747252850600349041,-0.115
1747252850608036998,-0.108
1747252850615724955,-0.108
1747252850623412912,-0.12
1747252850631100869,-0.123
1747252850638788826,-0.108
1747252850646476783,-0.10300000000000001
1747252850654164740,-0.113
1747252850661852697,-0.115
1747252850669540654,-0.1
1747252850677228611,-0.093
1747252850684916568,-0.096
1747252850692604525,-0.1
1747252850700292482,-0.093
1747252850707980439,-0.091
1747252850715668396,-0.098
1747252850723356353,-0.11
1747252850731044310,-0.098
1747252850738732267,-0.073
1747252850746420224,-0.073
1747252850754108181,-0.068
1747252850761796138,-0.051000000000000004
1747252850769484095,-0.054
1747252850777172052,-0.078
1747252850784860009,-0.098
1747252850792547966,-0.096
1747252850800235923,-0.083
1747252850807923880,-0.081
1747252850815611837,-0.081
1747252850823299866,-0.078
1747252850830987823,-0.08600000000000001
1747252850838675780,-0.105
1747252850846363737,-0.169
1747252850854051694,-0.246
1747252850861739651,-0.073
1747252850869427608,0.585
1747252850877115565,1.489
1747252850884803522,1.939
1747252850892491479,1.208
1747252850900179436,-0.189
1747252850907867393,-0.6
1747252850915555350,-0.162
1747252850923243307,-0.128
1747252850930931264,-0.278
1747252850938619221,-0.189
1747252850946307178,-0.14200000000000002
1747252850953995135,-0.179
1747252850961683092,-0.147
1747252850969371049,-0.11
1747252850977059006,-0.108
1747252850984746963,-0.093
1747252850992434920,-0.066
1747252851000122877,-0.046
1747252851007810834,-0.024
1747252851015498791,-0.002
1747252851023186748,0.014
1747252851030874705,0.034
1747252851038562662,0.064
1747252851046250619,0.093
1747252851053938576,0.125
1747252851061626533,0.155
1747252851069314490,0.182
1747252851077002447,0.211
1747252851084690404,0.233
1747252851092378361,0.23600000000000002
1747252851100066318,0.228
1747252851107754275,0.20600000000000002
1747252851115442232,0.187
1747252851123130189,0.16
1747252851130818146,0.1
1747252851138506103,0.014
1747252851146194060,-0.07100000000000001
1747252851153882017,-0.137
1747252851161569974,-0.189
1747252851169257931,-0.226
1747252851176945888,-0.246
1747252851184633845,-0.253
1747252851192321802,-0.251
1747252851200009759,-0.241
1747252851207697716,-0.226
1747252851215385673,-0.221
1747252851223073630,-0.214
1747252851230761587,-0.199
1747252851238449544,-0.189
1747252851246137501,-0.184
1747252851253825458,-0.177
1747252851261513415,-0.164
1747252851269201372,-0.157
1747252851276889329,-0.15
1747252851284577286,-0.145
1747252851292265243,-0.145
1747252851299953200,-0.14
1747252851307641157,-0.135
1747252851315329114,-0.135
1747252851323017071,-0.13
1747252851330705028,-0.13
1747252851338392985,-0.137
1747252851346080942,-0.135
1747252851353768899,-0.13
1747252851361456856,-0.13
1747252851369144813,-0.123
1747252851376832770,-0.12
1747252851384520799,-0.123,85,741
1747252851392209175,-0.125
1747252851399897551,-0.12
1747252851407585927,-0.11800000000000001
1747252851415274303,-0.11800000000000001
1747252851422962679,-0.115
1747252851430651055,-0.11
1747252851438339431,-0.11800000000000001
1747252851446027807,-0.13
1747252851453716183,-0.128
1747252851461404559,-0.115
1747252851469092935,-0.10300000000000001
1747252851476781311,-0.1
1747252851484469687,-0.096
1747252851492158063,-0.081
1747252851499846439,-0.068
1747252851507534815,-0.081
1747252851515223191,-0.10300000000000001
1747252851522911567,-0.113
1747252851530599943,-0.105
1747252851538288319,-0.096
1747252851545976695,-0.096
1747252851553665071,-0.096
1747252851561353447,-0.091
1747252851569041823,-0.098
1747252851576730199,-0.14200000000000002
1747252851584418575,-0.233
1747252851592106951,-0.253
1747252851599795327,0.098
1747252851607483703,0.901
1747252851615172079,1.733
1747252851622860455,1.843
1747252851630548831,0.74
1747252851638237207,-0.497
1747252851645925583,-0.499
1747252851653613959,-0.098
1747252851661302335,-0.216
1747252851668990711,-0.302
1747252851676679087,-0.177
1747252851684367463,-0.17400000000000002
1747252851692055839,-0.20600000000000002
1747252851699744215,-0.152
1747252851707432591,-0.125
1747252851715120967,-0.128
1747252851722809343,-0.105
1747252851730497719,-0.081
1747252851738186095,-0.07100000000000001
1747252851745874471,-0.051000000000000004
1747252851753562847,-0.024
1747252851761251223,-0.004
1747252851768939599,0.017
1747252851776627975,0.044
1747252851784316351,0.07100000000000001
1747252851792004727,0.098
1747252851799693103,0.13
1747252851807381479,0.164
1747252851815069855,0.189
1747252851822758231,0.194
1747252851830446607,0.194
1747252851838134983,0.194
1747252851845823359,0.182
1747252851853511735,0.157
1747252851861200111,0.11800000000000001
1747252851868888487,0.056
1747252851876576863,-0.022
1747252851884265239,-0.098
1747252851891953615,-0.162
1747252851899641991,-0.211
1747252851907330367,-0.241
1747252851915018743,-0.253
1747252851922707119,-0.256
1747252851930395495,-0.251
1747252851938083871,-0.243
1747252851945772254,-0.233,85,759
1747252851953460211,-0.219
1747252851961148168,-0.20600000000000002
1747252851968836125,-0.199
1747252851976524082,-0.187
1747252851984212039,-0.179
1747252851991899996,-0.17400000000000002
1747252851999587953,-0.164
1747252852007275910,-0.16
1747252852014963867,-0.157
1747252852022651824,-0.152
1747252852030339781,-0.147
1747252852038027738,-0.147
1747252852045715695,-0.147
1747252852053403652,-0.147
1747252852061091609,-0.145
1747252852068779566,-0.14
1747252852076467523,-0.137
1747252852084155480,-0.137
1747252852091843437,-0.137
1747252852099531394,-0.132
1747252852107219351,-0.13
1747252852114907308,-0.13
1747252852122595265,-0.13
1747252852130283222,-0.123
1747252852137971179,-0.12
1747252852145659136,-0.11800000000000001
1747252852153347093,-0.11800000000000001
1747252852161035050,-0.11800000000000001
1747252852168723007,-0.113
1747252852176410964,-0.105
1747252852184098921,-0.108
1747252852191786878,-0.11800000000000001
1747252852199474835,-0.128
1747252852207162792,-0.128
1747252852214850749,-0.11800000000000001
1747252852222538706,-0.105
1747252852230226663,-0.096
1747252852237914620,-0.091
1747252852245602577,-0.081
1747252852253290534,-0.066
1747252852260978491,-0.07100000000000001
1747252852268666448,-0.098
1747252852276354405,-0.113
1747252852284042362,-0.108
1747252852291730319,-0.1
1747252852299418276,-0.096
1747252852307106233,-0.093
1747252852314794190,-0.088
1747252852322482147,-0.088
1747252852330170104,-0.12
1747252852337858061,-0.199
1747252852345546018,-0.256
1747252852353233975,-0.032
1747252852360921932,0.662
1747252852368609889,1.538
1747252852376297846,1.9020000000000001
1747252852383985803,1.085
1747252852391673760,-0.27
1747252852399361717,-0.58
1747252852407049674,-0.152
1747252852414737631,-0.157
1747252852422425588,-0.3
1747252852430113545,-0.20400000000000001
1747252852437801502,-0.162
1747252852445489459,-0.20400000000000001
1747252852453177416,-0.167
1747252852460865373,-0.125
1747252852468553330,-0.128
1747252852476241287,-0.11
1747252852483929244,-0.078
1747252852491617201,-0.068
1747252852499305158,-0.054
1747252852506993187,-0.027
1747252852514681144,-0.007
1747252852522369101,0.007
1747252852530057058,0.034
1747252852537745015,0.064
1747252852545432972,0.096
1747252852553120929,0.128
1747252852560808886,0.157
1747252852568496843,0.184
1747252852576184800,0.201
1747252852583872757,0.20600000000000002
1747252852591560714,0.201
1747252852599248671,0.189
1747252852606936628,0.169
1747252852614624585,0.14
1747252852622312542,0.088
1747252852630000499,0.009000000000000001
1747252852637688456,-0.07100000000000001
1747252852645376413,-0.14
1747252852653064370,-0.194
1747252852660752327,-0.228
1747252852668440284,-0.246
1747252852676128241,-0.253
1747252852683816198,-0.253
1747252852691504155,-0.246
1747252852699192112,-0.23600000000000002
1747252852706880069,-0.224
1747252852714568026,-0.209
1747252852722255983,-0.199
1747252852729943940,-0.192
1747252852737631897,-0.182
1747252852745319854,-0.167
1747252852753007811,-0.164
1747252852760695768,-0.164
1747252852768383725,-0.157
1747252852776071682,-0.15
1747252852783759639,-0.147
1747252852791447596,-0.15
1747252852799135553,-0.147
1747252852806823510,-0.14200000000000002
1747252852814511467,-0.14
1747252852822199424,-0.14
1747252852829887381,-0.14
1747252852837575338,-0.137
1747252852845263295,-0.135
1747252852852951252,-0.13
1747252852860639209,-0.128
1747252852868327166,-0.128
1747252852876015123,-0.125
1747252852883703080,-0.123
1747252852891391037,-0.125
1747252852899078994,-0.123
1747252852906766951,-0.113
1747252852914454908,-0.11
1747252852922142865,-0.113
1747252852929830822,-0.108
1747252852937518779,-0.105
1747252852945206736,-0.11
1747252852952894693,-0.115
1747252852960582650,-0.12
1747252852968270607,-0.123
1747252852975958564,-0.108
1747252852983646521,-0.093
1747252852991334478,-0.08600000000000001
1747252852999022435,-0.078
1747252853006710392,-0.064
1747252853014398349,-0.061
1747252853022086306,-0.088
1747252853029774263,-0.11
1747252853037462220,-0.105
1747252853045150177,-0.093
1747252853052838134,-0.091
1747252853060526091,-0.088
1747252853068214120,-0.083,84,743
1747252853075902077,-0.088,,735
1747252853083590034,-0.11
1747252853091277991,-0.169
1747252853098965948,-0.251
1747252853106653905,-0.145
1747252853114341862,0.41600000000000004
1747252853122029819,1.282
1747252853129717776,1.8780000000000001
1747252853137405733,1.422
1747252853145093690,0.066
1747252853152781647,-0.615
1747252853160469604,-0.253
1747252853168157561,-0.1
1747252853175845518,-0.275
1747252853183533475,-0.23600000000000002
1747252853191221432,-0.152
1747252853198909389,-0.182
1747252853206597346,-0.169
1747252853214285303,-0.128
1747252853221973260,-0.12
1747252853229661217,-0.10300000000000001
1747252853237349174,-0.073
1747252853245037131,-0.064
1747252853252725088,-0.051000000000000004
1747252853260413045,-0.024
1747252853268101002,0.0
1747252853275788959,0.019
1747252853283476916,0.039
1747252853291164873,0.068
1747252853298852830,0.10300000000000001
1747252853306540787,0.132
1747252853314228744,0.16
1747252853321916701,0.189
1747252853329604658,0.211
1747252853337292615,0.219
1747252853344980572,0.219
1747252853352668529,0.211
1747252853360356486,0.196
1747252853368044443,0.167
1747252853375732400,0.11800000000000001
1747252853383420357,0.046
1747252853391108314,-0.034
1747252853398796271,-0.113
1747252853406484228,-0.17200000000000001
1747252853414172185,-0.20600000000000002
1747252853421860142,-0.226
1747252853429548099,-0.23600000000000002
1747252853437236056,-0.23600000000000002
1747252853444924013,-0.231
1747252853452611970,-0.224
1747252853460299927,-0.214
1747252853467987884,-0.20400000000000001
1747252853475675841,-0.189
1747252853483363798,-0.177
1747252853491051755,-0.169
1747252853498739712,-0.167
1747252853506427669,-0.157
1747252853514115626,-0.14
1747252853521803583,-0.128
1747252853529491540,-0.13
1747252853537179497,-0.14
1747252853544867454,-0.14
1747252853552555411,-0.135
1747252853560243368,-0.125
1747252853567931325,-0.12
1747252853575619282,-0.128
1747252853583307239,-0.128
1747252853590995196,-0.11800000000000001
1747252853598683153,-0.113
1747252853606371110,-0.108
1747252853614059067,-0.115
1747252853621747024,-0.12
1747252853629435053,-0.11
1747252853637123289,-0.105
1747252853644811525,-0.105
1747252853652499761,-0.1
1747252853660187997,-0.096
1747252853667876233,-0.098
1747252853675564469,-0.096
1747252853683252705,-0.08600000000000001
1747252853690940941,-0.083
1747252853698629177,-0.08600000000000001
1747252853706317413,-0.088
1747252853714005649,-0.098
1747252853721693885,-0.108
1747252853729382121,-0.1
1747252853737070357,-0.088
1747252853744758593,-0.076
1747252853752446829,-0.066
1747252853760135065,-0.061
1747252853767823301,-0.049
1747252853775511537,-0.046
1747252853783199773,-0.07100000000000001
1747252853790888009,-0.093
1747252853798576245,-0.083
1747252853806264481,-0.068
1747252853813952717,-0.07100000000000001
1747252853821640953,-0.076
1747252853829329189,-0.07100000000000001
1747252853837017425,-0.064
1747252853844705661,-0.076
1747252853852393897,-0.132
1747252853860082133,-0.231
1747252853867770369,-0.169
1747252853875458605,0.359
1747252853883146841,1.245
1747252853890835077,1.907
1747252853898523313,1.568
1747252853906211549,0.224
1747252853913899785,-0.605
1747252853921588021,-0.29
1747252853929276257,-0.064
1747252853936964493,-0.241
1747252853944652729,-0.221
1747252853952340965,-0.125
1747252853960029201,-0.157
1747252853967717437,-0.155
1747252853975405673,-0.1
1747252853983093909,-0.08600000000000001
1747252853990782145,-0.081
1747252853998470381,-0.061
1747252854006158617,-0.046
1747252854013846853,-0.027
1747252854021535089,0.007
1747252854029223325,0.027
1747252854036911561,0.036000000000000004
1747252854044599797,0.061
1747252854052288033,0.093
1747252854059976269,0.123
1747252854067664505,0.15
1747252854075352741,0.182
1747252854083040977,0.219
1747252854090729213,0.241
1747252854098417449,0.241
1747252854106105685,0.23600000000000002
1747252854113793921,0.23800000000000002
1747252854121482157,0.226
1747252854129170393,0.194
1747252854136858629,0.145
1747252854144546865,0.068
1747252854152235101,-0.009000000000000001
1747252854159923337,-0.083
1747252854167611573,-0.15
1747252854175299809,-0.192
1747252854182988045,-0.214
1747252854190676334,-0.231,83,755
1747252854198364361,-0.23600000000000002
1747252854206052388,-0.224
1747252854213740415,-0.211
1747252854221428442,-0.20400000000000001
1747252854229116469,-0.199
1747252854236804496,-0.189
1747252854244492523,-0.17400000000000002
1747252854252180550,-0.162
1747252854259868577,-0.155
1747252854267556604,-0.15
1747252854275244631,-0.14200000000000002
1747252854282932658,-0.137
1747252854290620685,-0.128
1747252854298308712,-0.125
1747252854305996739,-0.125
1747252854313684766,-0.12
1747252854321372793,-0.11
1747252854329060820,-0.11
1747252854336748847,-0.115
1747252854344436874,-0.115
1747252854352124901,-0.113
1747252854359812928,-0.10300000000000001
1747252854367500955,-0.108
1747252854375188982,-0.11800000000000001
1747252854382877009,-0.105
1747252854390565036,-0.098
1747252854398253063,-0.11
1747252854405941090,-0.108
1747252854413629117,-0.096
1747252854421317144,-0.093
1747252854429005171,-0.093
1747252854436693198,-0.088
1747252854444381225,-0.093
1747252854452069252,-0.1
1747252854459757279,-0.1
1747252854467445306,-0.096
1747252854475133333,-0.088
1747252854482821360,-0.076
1747252854490509387,-0.068
1747252854498197414,-0.066
1747252854505885441,-0.059000000000000004
1747252854513573468,-0.054
1747252854521261495,-0.068
1747252854528949522,-0.08600000000000001
1747252854536637549,-0.088
1747252854544325576,-0.081
1747252854552013603,-0.07100000000000001
1747252854559701630,-0.07100000000000001
1747252854567389657,-0.076
1747252854575077684,-0.073
1747252854582765711,-0.091
1747252854590453738,-0.155
1747252854598141765,-0.23600000000000002
1747252854605829792,-0.157
1747252854613517819,0.366
1747252854621205846,1.24
1747252854628893873,1.905
1747252854636581900,1.568
1747252854644269927,0.20600000000000002
1747252854651957954,-0.617
1747252854659645981,-0.292
1747252854667334008,-0.083
1747252854675022035,-0.26
1747252854682710062,-0.228
1747252854690398089,-0.135
1747252854698086116,-0.167
1747252854705774143,-0.16
1747252854713462170,-0.113
1747252854721150197,-0.11
1747252854728838224,-0.1
1747252854736526251,-0.068
1747252854744214278,-0.049
1747252854751902354,-0.036000000000000004
1747252854759590381,-0.014
1747252854767278408,0.002
1747252854774966435,0.024
1747252854782654462,0.054
1747252854790342489,0.081
1747252854798030516,0.108
1747252854805718543,0.137
1747252854813406570,0.17200000000000001
1747252854821094597,0.20400000000000001
1747252854828782624,0.216
1747252854836470651,0.221
1747252854844158678,0.221
1747252854851846705,0.214
1747252854859534732,0.194
1747252854867222759,0.162
1747252854874910786,0.115
1747252854882598813,0.049
1747252854890286840,-0.029
1747252854897974867,-0.105
1747252854905662894,-0.169
1747252854913350921,-0.211
1747252854921038948,-0.233
1747252854928726975,-0.241
1747252854936415002,-0.241
1747252854944103029,-0.241
1747252854951791056,-0.228
1747252854959479083,-0.214
1747252854967167110,-0.211
1747252854974855137,-0.199
1747252854982543164,-0.177
1747252854990231191,-0.167
1747252854997919218,-0.164
1747252855005607245,-0.157
1747252855013295272,-0.147
1747252855020983299,-0.147
1747252855028671326,-0.145
1747252855036359353,-0.132
1747252855044047380,-0.123
1747252855051735407,-0.125
1747252855059423434,-0.125
1747252855067111461,-0.123
1747252855074799488,-0.128
1747252855082487515,-0.13
1747252855090175542,-0.123
1747252855097863569,-0.11800000000000001
1747252855105551596,-0.12
1747252855113239623,-0.12
1747252855120927650,-0.115
1747252855128615677,-0.11
1747252855136303704,-0.115
1747252855143991731,-0.113
1747252855151679758,-0.105
1747252855159367785,-0.108
1747252855167055812,-0.105
1747252855174743839,-0.098
1747252855182431866,-0.093
1747252855190119893,-0.093
1747252855197807920,-0.1
1747252855205495947,-0.11
1747252855213183974,-0.11800000000000001
1747252855220872001,-0.11
1747252855228560028,-0.091
1747252855236248055,-0.081
1747252855243936082,-0.078
1747252855251624109,-0.068
1747252855259312136,-0.051000000000000004
1747252855267000163,-0.056
1747252855274688190,-0.083
1747252855282376217,-0.096
1747252855290064244,-0.091
1747252855297752271,-0.088
1747252855305440298,-0.083
1747252855313128374,-0.073,83,756
1747252855320816331,-0.073
1747252855328504288,-0.083
1747252855336192245,-0.1
1747252855343880202,-0.152
1747252855351568159,-0.241
1747252855359256116,-0.17400000000000002
1747252855366944073,0.34400000000000003
1747252855374632030,1.221
1747252855382319987,1.905
1747252855390007944,1.595
1747252855397695901,0.23600000000000002
1747252855405383858,-0.62
1747252855413071815,-0.307
1747252855420759772,-0.081
1747252855428447729,-0.265
1747252855436135686,-0.246
1747252855443823643,-0.147
1747252855451511600,-0.182
1747252855459199557,-0.177
1747252855466887514,-0.123
1747252855474575471,-0.11800000000000001
1747252855482263428,-0.113
1747252855489951385,-0.081
1747252855497639342,-0.061
1747252855505327299,-0.049
1747252855513015256,-0.029
1747252855520703213,-0.004
1747252855528391170,0.009000000000000001
1747252855536079127,0.029
1747252855543767084,0.061
1747252855551455041,0.093
1747252855559142998,0.12
1747252855566830955,0.147
1747252855574518912,0.179
1747252855582206869,0.201
1747252855589894826,0.209
1747252855597582783,0.20600000000000002
1747252855605270740,0.20400000000000001
1747252855612958697,0.189
1747252855620646654,0.157
1747252855628334611,0.115
1747252855636022568,0.059000000000000004
1747252855643710525,-0.019
1747252855651398482,-0.10300000000000001
1747252855659086439,-0.167
1747252855666774396,-0.20600000000000002
1747252855674462353,-0.231
1747252855682150310,-0.243
1747252855689838267,-0.243
1747252855697526224,-0.23800000000000002
1747252855705214181,-0.233
1747252855712902138,-0.221
1747252855720590095,-0.20600000000000002
1747252855728278052,-0.192
1747252855735966009,-0.179
1747252855743653966,-0.17200000000000001
1747252855751341923,-0.167
1747252855759029880,-0.16
1747252855766717837,-0.155
1747252855774405794,-0.152
1747252855782093751,-0.145
1747252855789781708,-0.14
1747252855797469665,-0.137
1747252855805157622,-0.135
1747252855812845579,-0.132
1747252855820533536,-0.135
1747252855828221493,-0.135
1747252855835909450,-0.128
1747252855843597407,-0.123
1747252855851285364,-0.125
1747252855858973321,-0.125
1747252855866661278,-0.123
1747252855874349307,-0.12
1747252855882037404,-0.11800000000000001
1747252855889725501,-0.115
1747252855897413598,-0.11
1747252855905101695,-0.108
1747252855912789792,-0.105
1747252855920477889,-0.105
1747252855928165986,-0.108
1747252855935854083,-0.105
1747252855943542180,-0.10300000000000001
1747252855951230277,-0.105
1747252855958918374,-0.11800000000000001
1747252855966606471,-0.12
1747252855974294568,-0.108
1747252855981982665,-0.098
1747252855989670762,-0.091
1747252855997358859,-0.08600000000000001
1747252856005046956,-0.07100000000000001
1747252856012735053,-0.061
1747252856020423150,-0.076
1747252856028111247,-0.098
1747252856035799344,-0.1
1747252856043487441,-0.091
1747252856051175538,-0.088
1747252856058863635,-0.08600000000000001
1747252856066551732,-0.078
1747252856074239829,-0.078
1747252856081927926,-0.098
1747252856089616023,-0.137
1747252856097304120,-0.214
1747252856104992217,-0.226
1747252856112680314,0.12
1747252856120368411,0.905
1747252856128056508,1.723
1747252856135744605,1.799
1747252856143432702,0.672
1747252856151120799,-0.504
1747252856158808896,-0.457
1747252856166496993,-0.081
1747252856174185090,-0.209
1747252856181873187,-0.278
1747252856189561284,-0.16
1747252856197249381,-0.164
1747252856204937478,-0.192
1747252856212625575,-0.14
1747252856220313672,-0.115
1747252856228001769,-0.11800000000000001
1747252856235689866,-0.093
1747252856243377963,-0.068
1747252856251066060,-0.059000000000000004
1747252856258754157,-0.039
1747252856266442254,-0.012
1747252856274130351,0.009000000000000001
1747252856281818448,0.029
1747252856289506545,0.051000000000000004
1747252856297194642,0.078
1747252856304882739,0.113
1747252856312570836,0.147
1747252856320258933,0.179
1747252856327947030,0.201
1747252856335635127,0.219
1747252856343323224,0.221
1747252856351011321,0.214
1747252856358699418,0.196
1747252856366387515,0.179
1747252856374075612,0.14200000000000002
1747252856381763709,0.078
1747252856389451806,-0.002
1747252856397139903,-0.083
1747252856404828000,-0.15
1747252856412516097,-0.196
1747252856420204194,-0.231
1747252856427892291,-0.253
1747252856435580414,-0.256,82,762
1747252856443268441,-0.246,,738
1747252856450956468,-0.23600000000000002
1747252856458644495,-0.228
1747252856466332522,-0.219
1747252856474020549,-0.201
1747252856481708576,-0.192
1747252856489396603,-0.187
1747252856497084630,-0.179
1747252856504772657,-0.169
1747252856512460684,-0.162
1747252856520148711,-0.16
1747252856527836738,-0.155
1747252856535524765,-0.152
1747252856543212792,-0.15
1747252856550900819,-0.147
1747252856558588846,-0.14200000000000002
1747252856566276873,-0.145
1747252856573964900,-0.145
1747252856581652927,-0.14
1747252856589340954,-0.14
1747252856597028981,-0.14
1747252856604717008,-0.135
1747252856612405035,-0.13
1747252856620093062,-0.13
1747252856627781089,-0.128
1747252856635469116,-0.125
1747252856643157143,-0.123
1747252856650845170,-0.12
1747252856658533197,-0.115
1747252856666221224,-0.113
1747252856673909251,-0.113
1747252856681597278,-0.11
1747252856689285305,-0.105
1747252856696973332,-0.11
1747252856704661359,-0.123
1747252856712349386,-0.125
1747252856720037413,-0.113
1747252856727725440,-0.098
1747252856735413467,-0.091
1747252856743101494,-0.088
1747252856750789521,-0.073
1747252856758477548,-0.059000000000000004
1747252856766165575,-0.07100000000000001
1747252856773853602,-0.098
1747252856781541629,-0.108
1747252856789229656,-0.10300000000000001
1747252856796917683,-0.096
1747252856804605710,-0.093
1747252856812293737,-0.088
1747252856819981764,-0.081
1747252856827669791,-0.091
1747252856835357818,-0.125
1747252856843045845,-0.201
1747252856850733872,-0.251
1747252856858421899,0.012
1747252856866109926,0.745
1747252856873797953,1.595
1747252856881485980,1.851
1747252856889174007,0.923
1747252856896862034,-0.361
1747252856904550061,-0.529
1747252856912238088,-0.11800000000000001
1747252856919926115,-0.17400000000000002
1747252856927614142,-0.29
1747252856935302169,-0.182
1747252856942990196,-0.162
1747252856950678223,-0.194
1747252856958366250,-0.145
1747252856966054277,-0.115
1747252856973742304,-0.11800000000000001
1747252856981430331,-0.093
1747252856989118358,-0.068
1747252856996806434,-0.061,82,754
1747252857004494600,-0.044
1747252857012182766,-0.019
1747252857019870932,0.002
1747252857027559098,0.019
1747252857035247264,0.044
1747252857042935430,0.073
1747252857050623596,0.105
1747252857058311762,0.14
1747252857065999928,0.169
1747252857073688094,0.196
1747252857081376260,0.214
1747252857089064426,0.219
1747252857096752592,0.214
1747252857104440758,0.201
1747252857112128924,0.179
1747252857119817090,0.147
1747252857127505256,0.096
1747252857135193422,0.019
1747252857142881588,-0.066
1747252857150569754,-0.137
1747252857158257920,-0.192
1747252857165946086,-0.231
1747252857173634252,-0.251
1747252857181322418,-0.253
1747252857189010584,-0.248
1747252857196698750,-0.243
1747252857204386916,-0.231
1747252857212075082,-0.216
1747252857219763248,-0.20600000000000002
1747252857227451414,-0.196
1747252857235139580,-0.187
1747252857242827746,-0.17400000000000002
1747252857250515912,-0.167
1747252857258204078,-0.16
1747252857265892244,-0.157
1747252857273580410,-0.152
1747252857281268576,-0.147
1747252857288956742,-0.145
1747252857296644908,-0.145
1747252857304333074,-0.14200000000000002
1747252857312021240,-0.137
1747252857319709406,-0.135
1747252857327397572,-0.137
1747252857335085738,-0.137
1747252857342773904,-0.135
1747252857350462070,-0.13
1747252857358150236,-0.125
1747252857365838402,-0.128
1747252857373526568,-0.13
1747252857381214734,-0.128
1747252857388902900,-0.123
1747252857396591066,-0.12
1747252857404279232,-0.115
1747252857411967398,-0.113
1747252857419655564,-0.113
1747252857427343730,-0.108
1747252857435031896,-0.108
1747252857442720062,-0.11
1747252857450408228,-0.10300000000000001
1747252857458096394,-0.1
1747252857465784560,-0.105
1747252857473472726,-0.105
1747252857481160892,-0.105
1747252857488849058,-0.113
1747252857496537224,-0.113
1747252857504225390,-0.098
1747252857511913556,-0.083
1747252857519601722,-0.081
1747252857527289888,-0.076
1747252857534978054,-0.061
1747252857542666220,-0.059000000000000004
1747252857550354386,-0.088
1747252857558042624,-0.108
1747252857565730581,-0.096
1747252857573418538,-0.088
1747252857581106495,-0.093
1747252857588794452,-0.093
1747252857596482409,-0.08600000000000001
1747252857604170366,-0.083
1747252857611858323,-0.10300000000000001
1747252857619546280,-0.16
1747252857627234237,-0.231
1747252857634922194,-0.164
1747252857642610151,0.315
1747252857650298108,1.147
1747252857657986065,1.814
1747252857665674022,1.538
1747252857673361979,0.246
1747252857681049936,-0.59
1747252857688737893,-0.312
1747252857696425850,-0.091
1747252857704113807,-0.263
1747252857711801764,-0.248
1747252857719489721,-0.15
1747252857727177678,-0.179
1747252857734865635,-0.182
1747252857742553592,-0.13
1747252857750241549,-0.11800000000000001
1747252857757929506,-0.113
1747252857765617463,-0.08600000000000001
1747252857773305420,-0.066
1747252857780993377,-0.054
1747252857788681334,-0.032
1747252857796369291,-0.012
1747252857804057248,0.007
1747252857811745205,0.032
1747252857819433162,0.059000000000000004
1747252857827121119,0.088
1747252857834809076,0.115
1747252857842497033,0.147
1747252857850184990,0.177
1747252857857872947,0.199
1747252857865560904,0.214
1747252857873248861,0.214
1747252857880936818,0.20600000000000002
1747252857888624775,0.194
1747252857896312732,0.169
1747252857904000689,0.128
1747252857911688646,0.066
1747252857919376603,-0.009000000000000001
1747252857927064560,-0.088
1747252857934752517,-0.152
1747252857942440474,-0.201
1747252857950128431,-0.233
1747252857957816388,-0.248
1747252857965504345,-0.248
1747252857973192302,-0.241
1747252857980880259,-0.233
1747252857988568216,-0.226
1747252857996256173,-0.211
1747252858003944130,-0.192
1747252858011632087,-0.184
1747252858019320044,-0.179
1747252858027008001,-0.167
1747252858034695958,-0.162
1747252858042383915,-0.157
1747252858050071872,-0.15
1747252858057759829,-0.14200000000000002
1747252858065447786,-0.14200000000000002
1747252858073135743,-0.14200000000000002
1747252858080823700,-0.135
1747252858088511657,-0.13
1747252858096199614,-0.132
1747252858103887571,-0.132
1747252858111575528,-0.13
1747252858119263557,-0.135,82,748
1747252858126951514,-0.135
1747252858134639471,-0.125
1747252858142327428,-0.115
1747252858150015385,-0.113
1747252858157703342,-0.11800000000000001
1747252858165391299,-0.11800000000000001
1747252858173079256,-0.11
1747252858180767213,-0.113
1747252858188455170,-0.113
1747252858196143127,-0.105
1747252858203831084,-0.10300000000000001
1747252858211519041,-0.105
1747252858219206998,-0.10300000000000001
1747252858226894955,-0.091
1747252858234582912,-0.096
1747252858242270869,-0.105
1747252858249958826,-0.1
1747252858257646783,-0.093
1747252858265334740,-0.1
1747252858273022697,-0.108
1747252858280710654,-0.1
1747252858288398611,-0.088
1747252858296086568,-0.081
1747252858303774525,-0.076
1747252858311462482,-0.068
1747252858319150439,-0.049
1747252858326838396,-0.046
1747252858334526353,-0.076
1747252858342214310,-0.093
1747252858349902267,-0.088
1747252858357590224,-0.081
1747252858365278181,-0.076
1747252858372966138,-0.07100000000000001
1747252858380654095,-0.078
1747252858388342052,-0.078
1747252858396030009,-0.081
1747252858403717966,-0.123
1747252858411405923,-0.209
1747252858419093880,-0.209
1747252858426781837,0.162
1747252858434469794,0.967
1747252858442157751,1.7770000000000001
1747252858449845708,1.797
1747252858457533665,0.622
1747252858465221622,-0.519
1747252858472909579,-0.43
1747252858480597536,-0.076
1747252858488285493,-0.211
1747252858495973450,-0.263
1747252858503661407,-0.145
1747252858511349364,-0.145
1747252858519037321,-0.167
1747252858526725278,-0.128
1747252858534413235,-0.115
1747252858542101192,-0.10300000000000001
1747252858549789149,-0.068
1747252858557477106,-0.059000000000000004
1747252858565165063,-0.049
1747252858572853020,-0.012
1747252858580540977,0.012
1747252858588228934,0.024
1747252858595916891,0.046
1747252858603604848,0.073
1747252858611292805,0.1
1747252858618980762,0.137
1747252858626668719,0.169
1747252858634356676,0.189
1747252858642044633,0.224
1747252858649732590,0.251
1747252858657420547,0.246
1747252858665108504,0.233
1747252858672796461,0.228
1747252858680484490,0.209
1747252858688172517,0.167
1747252858695860544,0.108
1747252858703548571,0.034
1747252858711236598,-0.051000000000000004
1747252858718924625,-0.128
1747252858726612652,-0.179
1747252858734300679,-0.219
1747252858741988706,-0.23600000000000002
1747252858749676733,-0.23600000000000002
1747252858757364760,-0.233
1747252858765052787,-0.226
1747252858772740814,-0.216
1747252858780428841,-0.216
1747252858788116868,-0.211
1747252858795804895,-0.194
1747252858803492922,-0.17200000000000001
1747252858811180949,-0.162
1747252858818868976,-0.16
1747252858826557003,-0.145
1747252858834245030,-0.135
1747252858841933057,-0.14
1747252858849621084,-0.14
1747252858857309111,-0.137
1747252858864997138,-0.13
1747252858872685165,-0.11800000000000001
1747252858880373192,-0.12
1747252858888061219,-0.123
1747252858895749246,-0.115
1747252858903437273,-0.115
1747252858911125300,-0.11800000000000001
1747252858918813327,-0.12
1747252858926501354,-0.123
1747252858934189381,-0.113
1747252858941877408,-0.098
1747252858949565435,-0.108
1747252858957253462,-0.11800000000000001
1747252858964941489,-0.11
1747252858972629516,-0.105
1747252858980317543,-0.105
1747252858988005570,-0.1
1747252858995693597,-0.098
1747252859003381624,-0.098
1747252859011069651,-0.10300000000000001
1747252859018757678,-0.12
1747252859026445705,-0.11
1747252859034133732,-0.076
1747252859041821759,-0.068
1747252859049509786,-0.076
1747252859057197813,-0.066
1747252859064885840,-0.056
1747252859072573867,-0.068
1747252859080261894,-0.096
1747252859087949921,-0.1
1747252859095637948,-0.088
1747252859103325975,-0.081
1747252859111014002,-0.076
1747252859118702029,-0.078
1747252859126390056,-0.078
1747252859134078083,-0.088
1747252859141766110,-0.13
1747252859149454137,-0.214
1747252859157142164,-0.219
1747252859164830191,0.155
1747252859172518218,0.979
1747252859180206245,1.799
1747252859187894272,1.811
1747252859195582299,0.625
1747252859203270326,-0.539
1747252859210958353,-0.448
1747252859218646380,-0.076
1747252859226334407,-0.209
1747252859234022434,-0.256
1747252859241710514,-0.145,81,747
1747252859249398541,-0.169,,780
1747252859257086568,-0.187
1747252859264774595,-0.123
1747252859272462622,-0.1
1747252859280150649,-0.108
1747252859287838676,-0.083
1747252859295526703,-0.056
1747252859303214730,-0.044
1747252859310902757,-0.022
1747252859318590784,0.004
1747252859326278811,0.024
1747252859333966838,0.046
1747252859341654865,0.07100000000000001
1747252859349342892,0.096
1747252859357030919,0.132
1747252859364718946,0.167
1747252859372406973,0.194
1747252859380095000,0.216
1747252859387783027,0.228
1747252859395471054,0.224
1747252859403159081,0.214
1747252859410847108,0.20400000000000001
1747252859418535135,0.187
1747252859426223162,0.147
1747252859433911189,0.076
1747252859441599216,-0.014
1747252859449287243,-0.093
1747252859456975270,-0.155
1747252859464663297,-0.20400000000000001
1747252859472351324,-0.23800000000000002
1747252859480039351,-0.248
1747252859487727378,-0.251
1747252859495415405,-0.256
1747252859503103432,-0.248
1747252859510791459,-0.226
1747252859518479486,-0.214
1747252859526167513,-0.209
1747252859533855540,-0.196
1747252859541543567,-0.182
1747252859549231594,-0.17400000000000002
1747252859556919621,-0.17400000000000002
1747252859564607648,-0.162
1747252859572295675,-0.15
1747252859579983702,-0.147
1747252859587671729,-0.145
1747252859595359756,-0.137
1747252859603047783,-0.13
1747252859610735810,-0.13
1747252859618423837,-0.128
1747252859626111864,-0.123
1747252859633799891,-0.12
1747252859641487918,-0.12
1747252859649175945,-0.11800000000000001
1747252859656863972,-0.123
1747252859664551999,-0.128
1747252859672240026,-0.12
1747252859679928053,-0.115
1747252859687616080,-0.113
1747252859695304107,-0.115
1747252859702992134,-0.113
1747252859710680161,-0.108
1747252859718368188,-0.105
1747252859726056215,-0.108
1747252859733744242,-0.115
1747252859741432269,-0.123
1747252859749120296,-0.11800000000000001
1747252859756808323,-0.105
1747252859764496350,-0.098
1747252859772184377,-0.091
1747252859779872404,-0.078
1747252859787560431,-0.066
1747252859795248458,-0.07100000000000001
1747252859802936534,-0.093
1747252859810624561,-0.105
1747252859818312588,-0.098
1747252859826000615,-0.093
1747252859833688642,-0.091
1747252859841376669,-0.08600000000000001
1747252859849064696,-0.083
1747252859856752723,-0.088
1747252859864440750,-0.105
1747252859872128777,-0.169
1747252859879816804,-0.258
1747252859887504831,-0.14
1747252859895192858,0.462
1747252859902880885,1.356
1747252859910568912,1.937
1747252859918256939,1.449
1747252859925944966,0.051000000000000004
1747252859933632993,-0.64
1747252859941321020,-0.26
1747252859949009047,-0.10300000000000001
1747252859956697074,-0.29
1747252859964385101,-0.246
1747252859972073128,-0.157
1747252859979761155,-0.189
1747252859987449182,-0.184
1747252859995137209,-0.137
1747252860002825236,-0.128
1747252860010513263,-0.11800000000000001
1747252860018201290,-0.091
1747252860025889317,-0.068
1747252860033577344,-0.054
1747252860041265371,-0.034
1747252860048953398,-0.014
1747252860056641425,0.004
1747252860064329452,0.027
1747252860072017479,0.051000000000000004
1747252860079705506,0.08600000000000001
1747252860087393533,0.12
1747252860095081560,0.15
1747252860102769587,0.177
1747252860110457614,0.201
1747252860118145641,0.211
1747252860125833668,0.20600000000000002
1747252860133521695,0.199
1747252860141209722,0.184
1747252860148897749,0.155
1747252860156585776,0.105
1747252860164273803,0.029
1747252860171961830,-0.054
1747252860179649857,-0.125
1747252860187337884,-0.182
1747252860195025911,-0.226
1747252860202713938,-0.246
1747252860210401965,-0.251
1747252860218089992,-0.253
1747252860225778019,-0.248
1747252860233466046,-0.233
1747252860241154073,-0.226
1747252860248842100,-0.221
1747252860256530127,-0.211
1747252860264218154,-0.196
1747252860271906181,-0.179
1747252860279594208,-0.169
1747252860287282235,-0.169
1747252860294970262,-0.164
1747252860302658289,-0.16
1747252860310346316,-0.155
1747252860318034343,-0.15
1747252860325722370,-0.147
1747252860333410397,-0.14200000000000002
1747252860341098424,-0.14
1747252860348786451,-0.14
1747252860356474478,-0.137
1747252860364162554,-0.137,81,786
1747252860371850581,-0.14
1747252860379538608,-0.135
1747252860387226635,-0.13
1747252860394914662,-0.125
1747252860402602689,-0.128
1747252860410290716,-0.13
1747252860417978743,-0.125
1747252860425666770,-0.123
1747252860433354797,-0.125
1747252860441042824,-0.115
1747252860448730851,-0.113
1747252860456418878,-0.128
1747252860464106905,-0.137
1747252860471794932,-0.132
1747252860479482959,-0.12
1747252860487170986,-0.108
1747252860494859013,-0.1
1747252860502547040,-0.091
1747252860510235067,-0.076
1747252860517923094,-0.076
1747252860525611121,-0.096
1747252860533299148,-0.113
1747252860540987175,-0.11
1747252860548675202,-0.10300000000000001
1747252860556363229,-0.1
1747252860564051256,-0.098
1747252860571739283,-0.096
1747252860579427310,-0.093
1747252860587115337,-0.1
1747252860594803364,-0.14200000000000002
1747252860602491391,-0.233
1747252860610179418,-0.243
1747252860617867445,0.13
1747252860625555472,0.9450000000000001
1747252860633243499,1.7570000000000001
1747252860640931526,1.804
1747252860648619553,0.662
1747252860656307580,-0.512
1747252860663995607,-0.465
1747252860671683634,-0.091
1747252860679371661,-0.221
1747252860687059688,-0.292
1747252860694747715,-0.17200000000000001
1747252860702435742,-0.17200000000000001
1747252860710123769,-0.196
1747252860717811796,-0.147
1747252860725499823,-0.123
1747252860733187850,-0.125
1747252860740875877,-0.1
1747252860748563904,-0.076
1747252860756251931,-0.066
1747252860763939958,-0.046
1747252860771627985,-0.024
1747252860779316012,-0.002
1747252860787004039,0.024
1747252860794692066,0.051000000000000004
1747252860802380093,0.076
1747252860810068120,0.108
1747252860817756147,0.14200000000000002
1747252860825444174,0.17200000000000001
1747252860833132201,0.199
1747252860840820228,0.211
1747252860848508255,0.214
1747252860856196282,0.211
1747252860863884309,0.201
1747252860871572336,0.17400000000000002
1747252860879260363,0.128
1747252860886948390,0.068
1747252860894636417,-0.002
1747252860902324444,-0.081
1747252860910012471,-0.147
1747252860917700498,-0.196
1747252860925388574,-0.233
1747252860933076601,-0.246
1747252860940764628,-0.246
1747252860948452655,-0.243
1747252860956140682,-0.233
1747252860963828709,-0.226
1747252860971516736,-0.219
1747252860979204763,-0.199
1747252860986892790,-0.184
1747252860994580817,-0.182
1747252861002268844,-0.17400000000000002
1747252861009956871,-0.162
1747252861017644898,-0.152
1747252861025332925,-0.15
1747252861033020952,-0.15
1747252861040708979,-0.145
1747252861048397006,-0.137
1747252861056085033,-0.14200000000000002
1747252861063773060,-0.14200000000000002
1747252861071461087,-0.132
1747252861079149114,-0.128
1747252861086837141,-0.132
1747252861094525168,-0.128
1747252861102213195,-0.125
1747252861109901222,-0.13
1747252861117589249,-0.123
1747252861125277276,-0.11800000000000001
1747252861132965303,-0.125
1747252861140653330,-0.125
1747252861148341357,-0.11
1747252861156029384,-0.1
1747252861163717411,-0.11
1747252861171405438,-0.11
1747252861179093465,-0.10300000000000001
1747252861186781492,-0.105
1747252861194469519,-0.105
1747252861202157546,-0.108
1747252861209845573,-0.115
1747252861217533600,-0.11
1747252861225221627,-0.091
1747252861232909654,-0.078
1747252861240597681,-0.08600000000000001
1747252861248285708,-0.078
1747252861255973735,-0.051000000000000004
1747252861263661762,-0.054
1747252861271349789,-0.088
1747252861279037816,-0.098
1747252861286725843,-0.088
1747252861294413870,-0.08600000000000001
1747252861302101897,-0.081
1747252861309789924,-0.073
1747252861317477951,-0.076
1747252861325165978,-0.088
1747252861332854005,-0.10300000000000001
1747252861340542032,-0.152
1747252861348230059,-0.241
1747252861355918086,-0.155
1747252861363606113,0.401
1747252861371294140,1.294
1747252861378982167,1.925
1747252861386670194,1.516
1747252861394358221,0.15
1747252861402046248,-0.61
1747252861409734275,-0.273
1747252861417422302,-0.091
1747252861425110329,-0.265
1747252861432798356,-0.221
1747252861440486383,-0.14
1747252861448174410,-0.187
1747252861455862437,-0.17200000000000001
1747252861463550464,-0.113
1747252861471238491,-0.108
1747252861478926518,-0.10300000000000001
1747252861486614594,-0.073,81,738
1747252861494302621,-0.056
1747252861501990648,-0.034
1747252861509678675,-0.014
1747252861517366702,-0.007
1747252861525054729,0.012
1747252861532742756,0.054
1747252861540430783,0.088
1747252861548118810,0.10300000000000001
1747252861555806837,0.13
1747252861563494864,0.17200000000000001
1747252861571182891,0.199
1747252861578870918,0.214
1747252861586558945,0.231
1747252861594246972,0.226
1747252861601934999,0.216
1747252861609623026,0.209
1747252861617311053,0.182
1747252861624999080,0.128
1747252861632687107,0.059000000000000004
1747252861640375134,-0.017
1747252861648063161,-0.096
1747252861655751188,-0.164
1747252861663439215,-0.20600000000000002
1747252861671127242,-0.228
1747252861678815269,-0.246
1747252861686503296,-0.251
1747252861694191323,-0.241
1747252861701879350,-0.228
1747252861709567377,-0.216
1747252861717255404,-0.209
1747252861724943431,-0.201
1747252861732631458,-0.187
1747252861740319485,-0.17200000000000001
1747252861748007512,-0.164
1747252861755695539,-0.16
1747252861763383566,-0.152
1747252861771071593,-0.145
1747252861778759620,-0.14200000000000002
1747252861786447647,-0.14
1747252861794135674,-0.135
1747252861801823701,-0.132
1747252861809511728,-0.132
1747252861817199755,-0.128
1747252861824887782,-0.12
1747252861832575809,-0.12
1747252861840263836,-0.123
1747252861847951863,-0.125
1747252861855639890,-0.13
1747252861863327917,-0.128
1747252861871015944,-0.12
1747252861878703971,-0.115
1747252861886391998,-0.115
1747252861894080025,-0.113
1747252861901768052,-0.11
1747252861909456079,-0.11
1747252861917144106,-0.11
1747252861924832133,-0.115
1747252861932520160,-0.12
1747252861940208187,-0.12
1747252861947896214,-0.113
1747252861955584241,-0.093
1747252861963272268,-0.08600000000000001
1747252861970960295,-0.093
1747252861978648322,-0.081
1747252861986336349,-0.059000000000000004
1747252861994024376,-0.078
1747252862001712403,-0.113
1747252862009400430,-0.115
1747252862017088457,-0.1
1747252862024776484,-0.1
1747252862032464511,-0.1
1747252862040152538,-0.096
1747252862047840614,-0.088,81,728
1747252862055528571,-0.096,,727
1747252862063216528,-0.11800000000000001
1747252862070904485,-0.184
1747252862078592442,-0.265
1747252862086280399,-0.125
1747252862093968356,0.492
1747252862101656313,1.381
1747252862109344270,1.917
1747252862117032227,1.358
1747252862124720184,-0.044
1747252862132408141,-0.64
1747252862140096098,-0.233
1747252862147784055,-0.125
1747252862155472012,-0.3
1747252862163159969,-0.224
1747252862170847926,-0.15
1747252862178535883,-0.196
1747252862186223840,-0.182
1747252862193911797,-0.13
1747252862201599754,-0.123
1747252862209287711,-0.115
1747252862216975668,-0.088
1747252862224663625,-0.07100000000000001
1747252862232351582,-0.059000000000000004
1747252862240039539,-0.036000000000000004
1747252862247727496,-0.017
1747252862255415453,0.007
1747252862263103410,0.034
1747252862270791367,0.061
1747252862278479324,0.08600000000000001
1747252862286167281,0.11800000000000001
1747252862293855238,0.15
1747252862301543195,0.177
1747252862309231152,0.196
1747252862316919109,0.201
1747252862324607066,0.194
1747252862332295023,0.189
1747252862339982980,0.17200000000000001
1747252862347670937,0.14
1747252862355358894,0.096
1747252862363046851,0.029
1747252862370734808,-0.056
1747252862378422765,-0.132
1747252862386110722,-0.187
1747252862393798679,-0.226
1747252862401486636,-0.248
1747252862409174593,-0.256
1747252862416862550,-0.251
1747252862424550507,-0.243
1747252862432238464,-0.233
1747252862439926421,-0.224
1747252862447614378,-0.214
1747252862455302335,-0.20600000000000002
1747252862462990292,-0.194
1747252862470678249,-0.179
1747252862478366206,-0.169
1747252862486054163,-0.164
1747252862493742120,-0.157
1747252862501430077,-0.155
1747252862509118034,-0.155
1747252862516805991,-0.145
1747252862524493948,-0.135
1747252862532181905,-0.137
1747252862539869862,-0.14
1747252862547557819,-0.14
1747252862555245776,-0.137
1747252862562933733,-0.132
1747252862570621690,-0.128
1747252862578309647,-0.13
1747252862585997604,-0.132
1747252862593685561,-0.128
1747252862601373518,-0.12
1747252862609061547,-0.123
1747252862616749504,-0.123
1747252862624437461,-0.11800000000000001
1747252862632125418,-0.12
1747252862639813375,-0.12
1747252862647501332,-0.115
1747252862655189289,-0.11
1747252862662877246,-0.105
1747252862670565203,-0.113
1747252862678253160,-0.123
1747252862685941117,-0.128
1747252862693629074,-0.12
1747252862701317031,-0.10300000000000001
1747252862709004988,-0.091
1747252862716692945,-0.096
1747252862724380902,-0.091
1747252862732068859,-0.07100000000000001
1747252862739756816,-0.068
1747252862747444773,-0.096
1747252862755132730,-0.113
1747252862762820687,-0.108
1747252862770508644,-0.1
1747252862778196601,-0.1
1747252862785884558,-0.096
1747252862793572515,-0.091
1747252862801260472,-0.093
1747252862808948429,-0.113
1747252862816636386,-0.167
1747252862824324343,-0.251
1747252862832012300,-0.20400000000000001
1747252862839700257,0.278
1747252862847388214,1.147
1747252862855076171,1.868
1747252862862764128,1.6460000000000001
1747252862870452085,0.327
1747252862878140042,-0.612
1747252862885827999,-0.359
1747252862893515956,-0.091
1747252862901203913,-0.26
1747252862908891870,-0.265
1747252862916579827,-0.167
1747252862924267784,-0.192
1747252862931955741,-0.196
1747252862939643698,-0.147
1747252862947331655,-0.137
1747252862955019612,-0.128
1747252862962707569,-0.096
1747252862970395526,-0.078
1747252862978083483,-0.061
1747252862985771440,-0.039
1747252862993459397,-0.027
1747252863001147354,-0.009000000000000001
1747252863008835311,0.017
1747252863016523268,0.049
1747252863024211225,0.078
1747252863031899182,0.108
1747252863039587139,0.14
1747252863047275096,0.169
1747252863054963053,0.189
1747252863062651010,0.20400000000000001
1747252863070338967,0.20600000000000002
1747252863078026924,0.196
1747252863085714881,0.187
1747252863093402838,0.164
1747252863101090795,0.11800000000000001
1747252863108778752,0.054
1747252863116466709,-0.022
1747252863124154666,-0.10300000000000001
1747252863131842623,-0.17200000000000001
1747252863139530580,-0.216
1747252863147218537,-0.243
1747252863154906494,-0.256
1747252863162594451,-0.26
1747252863170282480,-0.256,81,743
1747252863177970437,-0.241
1747252863185658394,-0.228
1747252863193346351,-0.224
1747252863201034308,-0.216
1747252863208722265,-0.20400000000000001
1747252863216410222,-0.189
1747252863224098179,-0.17400000000000002
1747252863231786136,-0.164
1747252863239474093,-0.164
1747252863247162050,-0.17200000000000001
1747252863254850007,-0.167
1747252863262537964,-0.155
1747252863270225921,-0.15
1747252863277913878,-0.152
1747252863285601835,-0.155
1747252863293289792,-0.152
1747252863300977749,-0.145
1747252863308665706,-0.145
1747252863316353663,-0.145
1747252863324041620,-0.137
1747252863331729577,-0.135
1747252863339417534,-0.14200000000000002
1747252863347105491,-0.145
1747252863354793448,-0.135
1747252863362481405,-0.13
1747252863370169362,-0.14
1747252863377857319,-0.147
1747252863385545276,-0.13
1747252863393233233,-0.108
1747252863400921190,-0.11
1747252863408609147,-0.123
1747252863416297104,-0.13
1747252863423985061,-0.132
1747252863431673018,-0.132
1747252863439360975,-0.11800000000000001
1747252863447048932,-0.10300000000000001
1747252863454736889,-0.1
1747252863462424846,-0.088
1747252863470112803,-0.076
1747252863477800760,-0.08600000000000001
1747252863485488717,-0.108
1747252863493176674,-0.123
1747252863500864631,-0.123
1747252863508552588,-0.115
1747252863516240545,-0.10300000000000001
1747252863523928502,-0.096
1747252863531616459,-0.1
1747252863539304416,-0.108
1747252863546992373,-0.12
1747252863554680330,-0.17200000000000001
1747252863562368287,-0.258
1747252863570056244,-0.209
1747252863577744201,0.258
1747252863585432158,1.107
1747252863593120115,1.821
1747252863600808072,1.612
1747252863608496029,0.324
1747252863616183986,-0.6
1747252863623871943,-0.359
1747252863631559900,-0.105
1747252863639247857,-0.275
1747252863646935814,-0.268
1747252863654623771,-0.16
1747252863662311728,-0.189
1747252863669999685,-0.196
1747252863677687642,-0.145
1747252863685375599,-0.13
1747252863693063556,-0.128
1747252863700751513,-0.105
1747252863708439470,-0.081
1747252863716127427,-0.066
1747252863723815384,-0.044
1747252863731503413,-0.019
1747252863739191370,0.0
1747252863746879327,0.022
1747252863754567284,0.044
1747252863762255241,0.073
1747252863769943198,0.105
1747252863777631155,0.132
1747252863785319112,0.162
1747252863793007069,0.187
1747252863800695026,0.201
1747252863808382983,0.211
1747252863816070940,0.20600000000000002
1747252863823758897,0.182
1747252863831446854,0.157
1747252863839134811,0.11800000000000001
1747252863846822768,0.056
1747252863854510725,-0.022
1747252863862198682,-0.10300000000000001
1747252863869886639,-0.17200000000000001
1747252863877574596,-0.216
1747252863885262553,-0.246
1747252863892950510,-0.27
1747252863900638467,-0.265
1747252863908326424,-0.248
1747252863916014381,-0.243
1747252863923702338,-0.241
1747252863931390295,-0.228
1747252863939078252,-0.211
1747252863946766209,-0.20400000000000001
1747252863954454166,-0.199
1747252863962142123,-0.192
1747252863969830080,-0.179
1747252863977518037,-0.167
1747252863985205994,-0.169
1747252863992893951,-0.167
1747252864000581908,-0.157
1747252864008269865,-0.157
1747252864015957822,-0.16
1747252864023645779,-0.152
1747252864031333736,-0.15
1747252864039021693,-0.152
1747252864046709650,-0.147
1747252864054397607,-0.145
1747252864062085564,-0.152
1747252864069773521,-0.15
1747252864077461478,-0.14
1747252864085149435,-0.135
1747252864092837392,-0.135
1747252864100525349,-0.13
1747252864108213306,-0.128
1747252864115901263,-0.128
1747252864123589220,-0.128
1747252864131277177,-0.123
1747252864138965134,-0.12
1747252864146653091,-0.12
1747252864154341048,-0.123
1747252864162029005,-0.125
1747252864169716962,-0.128
1747252864177404919,-0.123
1747252864185092876,-0.108
1747252864192780833,-0.098
1747252864200468790,-0.093
1747252864208156747,-0.083
1747252864215844704,-0.07100000000000001
1747252864223532661,-0.081
1747252864231220618,-0.105
1747252864238908575,-0.12
1747252864246596532,-0.115
1747252864254284489,-0.11
1747252864261972446,-0.10300000000000001
1747252864269660403,-0.096
1747252864277348360,-0.093
1747252864285036317,-0.098
1747252864292724346,-0.123,81,729
1747252864300412303,-0.184
1747252864308100260,-0.251
1747252864315788217,-0.12
1747252864323476174,0.457
1747252864331164131,1.312
1747252864338852088,1.846
1747252864346540045,1.321
1747252864354228002,-0.007
1747252864361915959,-0.59
1747252864369603916,-0.23600000000000002
1747252864377291873,-0.132
1747252864384979830,-0.28500000000000003
1747252864392667787,-0.228
1747252864400355744,-0.16
1747252864408043701,-0.192
1747252864415731658,-0.177
1747252864423419615,-0.135
1747252864431107572,-0.128
1747252864438795529,-0.11800000000000001
1747252864446483486,-0.093
1747252864454171443,-0.073
1747252864461859400,-0.056
1747252864469547357,-0.036000000000000004
1747252864477235314,-0.019
1747252864484923271,0.004
1747252864492611228,0.029
1747252864500299185,0.051000000000000004
1747252864507987142,0.083
1747252864515675099,0.12
1747252864523363056,0.145
1747252864531051013,0.169
1747252864538738970,0.201
1747252864546426927,0.211
1747252864554114884,0.209
1747252864561802841,0.201
1747252864569490798,0.189
1747252864577178755,0.162
1747252864584866712,0.11800000000000001
1747252864592554669,0.051000000000000004
1747252864600242626,-0.034
1747252864607930583,-0.113
1747252864615618540,-0.17200000000000001
1747252864623306497,-0.214
1747252864630994454,-0.241
1747252864638682411,-0.251
1747252864646370368,-0.253
1747252864654058325,-0.253
1747252864661746282,-0.23800000000000002
1747252864669434239,-0.224
1747252864677122196,-0.214
1747252864684810153,-0.20400000000000001
1747252864692498110,-0.192
1747252864700186067,-0.179
1747252864707874024,-0.17400000000000002
1747252864715561981,-0.169
1747252864723249938,-0.162
1747252864730937895,-0.155
1747252864738625852,-0.157
1747252864746313809,-0.155
1747252864754001766,-0.15
1747252864761689723,-0.147
1747252864769377680,-0.14200000000000002
1747252864777065637,-0.14
1747252864784753594,-0.145
1747252864792441551,-0.147
1747252864800129508,-0.14200000000000002
1747252864807817465,-0.14200000000000002
1747252864815505422,-0.135
1747252864823193379,-0.13
1747252864830881336,-0.13
1747252864838569293,-0.128
1747252864846257250,-0.125
1747252864853945279,-0.123
1747252864861633236,-0.12
1747252864869321193,-0.11800000000000001
1747252864877009150,-0.115
1747252864884697107,-0.115
1747252864892385064,-0.11800000000000001
1747252864900073021,-0.123
1747252864907760978,-0.125
1747252864915448935,-0.115
1747252864923136892,-0.096
1747252864930824849,-0.088
1747252864938512806,-0.088
1747252864946200763,-0.073
1747252864953888720,-0.066
1747252864961576677,-0.093
1747252864969264634,-0.113
1747252864976952591,-0.108
1747252864984640548,-0.105
1747252864992328505,-0.10300000000000001
1747252865000016462,-0.096
1747252865007704419,-0.091
1747252865015392376,-0.091
1747252865023080333,-0.1
1747252865030768290,-0.137
1747252865038456247,-0.226
1747252865046144204,-0.243
1747252865053832161,0.096
1747252865061520118,0.844
1747252865069208075,1.617
1747252865076896032,1.72
1747252865084583989,0.6990000000000001
1747252865092271946,-0.428
1747252865099959903,-0.445
1747252865107647860,-0.115
1747252865115335817,-0.209
1747252865123023774,-0.263
1747252865130711731,-0.162
1747252865138399688,-0.162
1747252865146087645,-0.179
1747252865153775602,-0.137
1747252865161463559,-0.123
1747252865169151516,-0.11800000000000001
1747252865176839473,-0.083
1747252865184527430,-0.056
1747252865192215387,-0.049
1747252865199903344,-0.034
1747252865207591301,-0.012
1747252865215279258,0.012
1747252865222967215,0.044
1747252865230655172,0.073
1747252865238343129,0.091
1747252865246031086,0.115
1747252865253719043,0.157
1747252865261407000,0.196
1747252865269094957,0.219
1747252865276782914,0.23600000000000002
1747252865284470871,0.246
1747252865292158828,0.241
1747252865299846785,0.231
1747252865307534742,0.214
1747252865315222699,0.17200000000000001
1747252865322910656,0.11
1747252865330598613,0.039
1747252865338286570,-0.044
1747252865345974527,-0.128
1747252865353662484,-0.182
1747252865361350441,-0.211
1747252865369038398,-0.231
1747252865376726355,-0.23600000000000002
1747252865384414312,-0.226
1747252865392102269,-0.224
1747252865399790226,-0.219
1747252865407478183,-0.20400000000000001
1747252865415166212,-0.184,81,748
1747252865422854239,-0.17200000000000001,,738
1747252865430542266,-0.164
1747252865438230293,-0.16
1747252865445918320,-0.152
1747252865453606347,-0.14
1747252865461294374,-0.132
1747252865468982401,-0.13
1747252865476670428,-0.125
1747252865484358455,-0.123
1747252865492046482,-0.128
1747252865499734509,-0.128
1747252865507422536,-0.12
1747252865515110563,-0.11800000000000001
1747252865522798590,-0.125
1747252865530486617,-0.123
1747252865538174644,-0.10300000000000001
1747252865545862671,-0.1
1747252865553550698,-0.115
1747252865561238725,-0.115
1747252865568926752,-0.105
1747252865576614779,-0.11
1747252865584302806,-0.108
1747252865591990833,-0.098
1747252865599678860,-0.098
1747252865607366887,-0.096
1747252865615054914,-0.088
1747252865622742941,-0.1
1747252865630430968,-0.11
1747252865638118995,-0.098
1747252865645807022,-0.078
1747252865653495049,-0.07100000000000001
1747252865661183076,-0.07100000000000001
1747252865668871103,-0.054
1747252865676559130,-0.046
1747252865684247157,-0.066
1747252865691935184,-0.08600000000000001
1747252865699623211,-0.088
1747252865707311238,-0.088
1747252865714999265,-0.091
1747252865722687292,-0.078
1747252865730375319,-0.066
1747252865738063346,-0.07100000000000001
1747252865745751373,-0.081
1747252865753439400,-0.115
1747252865761127427,-0.20600000000000002
1747252865768815454,-0.248
1747252865776503481,0.07100000000000001
1747252865784191508,0.878
1747252865791879535,1.742
1747252865799567562,1.866
1747252865807255589,0.777
1747252865814943616,-0.44
1747252865822631643,-0.465
1747252865830319670,-0.088
1747252865838007697,-0.192
1747252865845695724,-0.268
1747252865853383751,-0.157
1747252865861071778,-0.147
1747252865868759805,-0.164
1747252865876447832,-0.12
1747252865884135859,-0.096
1747252865891823886,-0.096
1747252865899511913,-0.073
1747252865907199940,-0.049
1747252865914887967,-0.036000000000000004
1747252865922575994,-0.017
1747252865930264021,0.014
1747252865937952048,0.044
1747252865945640075,0.061
1747252865953328102,0.078
1747252865961016129,0.108
1747252865968704156,0.145
1747252865976392236,0.184,81,743
1747252865984080263,0.224
1747252865991768290,0.253
1747252865999456317,0.268
1747252866007144344,0.265
1747252866014832371,0.258
1747252866022520398,0.253
1747252866030208425,0.233
1747252866037896452,0.184
1747252866045584479,0.11800000000000001
1747252866053272506,0.041
1747252866060960533,-0.046
1747252866068648560,-0.135
1747252866076336587,-0.196
1747252866084024614,-0.228
1747252866091712641,-0.241
1747252866099400668,-0.253
1747252866107088695,-0.246
1747252866114776722,-0.228
1747252866122464749,-0.228
1747252866130152776,-0.224
1747252866137840803,-0.199
1747252866145528830,-0.184
1747252866153216857,-0.184
1747252866160904884,-0.17200000000000001
1747252866168592911,-0.16
1747252866176280938,-0.155
1747252866183968965,-0.147
1747252866191656992,-0.132
1747252866199345019,-0.132
1747252866207033046,-0.13
1747252866214721073,-0.115
1747252866222409100,-0.115
1747252866230097127,-0.13
1747252866237785154,-0.128
1747252866245473181,-0.123
1747252866253161208,-0.11800000000000001
1747252866260849235,-0.113
1747252866268537262,-0.113
1747252866276225289,-0.113
1747252866283913316,-0.115
1747252866291601343,-0.115
1747252866299289370,-0.11800000000000001
1747252866306977397,-0.128
1747252866314665424,-0.132
1747252866322353451,-0.11800000000000001
1747252866330041478,-0.098
1747252866337729505,-0.093
1747252866345417532,-0.096
1747252866353105559,-0.078
1747252866360793586,-0.059000000000000004
1747252866368481613,-0.078
1747252866376169640,-0.113
1747252866383857667,-0.11800000000000001
1747252866391545694,-0.105
1747252866399233721,-0.096
1747252866406921748,-0.093
1747252866414609775,-0.098
1747252866422297802,-0.093
1747252866429985829,-0.1
1747252866437673856,-0.14
1747252866445361883,-0.228
1747252866453049910,-0.27
1747252866460737937,0.041
1747252866468425964,0.8320000000000001
1747252866476113991,1.696
1747252866483802018,1.8880000000000001
1747252866491490045,0.844
1747252866499178072,-0.45
1747252866506866099,-0.531
1747252866514554126,-0.11800000000000001
1747252866522242153,-0.209
1747252866529930180,-0.297
1747252866537618256,-0.179
1747252866545306283,-0.169
1747252866552994310,-0.196
1747252866560682337,-0.147
1747252866568370364,-0.128
1747252866576058391,-0.128
1747252866583746418,-0.096
1747252866591434445,-0.07100000000000001
1747252866599122472,-0.064
1747252866606810499,-0.041
1747252866614498526,-0.014
1747252866622186553,-0.002
1747252866629874580,0.019
1747252866637562607,0.054
1747252866645250634,0.08600000000000001
1747252866652938661,0.113
1747252866660626688,0.15
1747252866668314715,0.182
1747252866676002742,0.211
1747252866683690769,0.233
1747252866691378796,0.23600000000000002
1747252866699066823,0.226
1747252866706754850,0.214
1747252866714442877,0.189
1747252866722130904,0.14
1747252866729818931,0.073
1747252866737506958,-0.004
1747252866745194985,-0.091
1747252866752883012,-0.167
1747252866760571039,-0.219
1747252866768259066,-0.248
1747252866775947093,-0.263
1747252866783635120,-0.26
1747252866791323147,-0.251
1747252866799011174,-0.243
1747252866806699201,-0.241
1747252866814387228,-0.228
1747252866822075255,-0.216
1747252866829763282,-0.209
1747252866837451309,-0.192
1747252866845139336,-0.177
1747252866852827363,-0.17200000000000001
1747252866860515390,-0.167
1747252866868203417,-0.157
1747252866875891444,-0.155
1747252866883579471,-0.152
1747252866891267498,-0.14200000000000002
1747252866898955525,-0.14
1747252866906643552,-0.145
1747252866914331579,-0.14200000000000002
1747252866922019606,-0.135
1747252866929707633,-0.137
1747252866937395660,-0.14
1747252866945083687,-0.137
1747252866952771714,-0.132
1747252866960459741,-0.13
1747252866968147768,-0.13
1747252866975835795,-0.128
1747252866983523822,-0.128
1747252866991211849,-0.14
1747252866998899876,-0.15
1747252867006587903,-0.14
1747252867014275930,-0.12
1747252867021963957,-0.108
1747252867029651984,-0.105
1747252867037340011,-0.096
1747252867045028038,-0.078
1747252867052716065,-0.08600000000000001
1747252867060404092,-0.115
1747252867068092119,-0.125
1747252867075780146,-0.113
1747252867083468173,-0.11
1747252867091156200,-0.11
1747252867098844276,-0.10300000000000001,81,734
1747252867106532303,-0.1,,723
1747252867114220330,-0.10300000000000001
1747252867121908357,-0.11800000000000001
1747252867129596384,-0.182
1747252867137284411,-0.28
1747252867144972438,-0.201
1747252867152660465,0.34900000000000003
1747252867160348492,1.2550000000000001
1747252867168036519,1.925
1747252867175724546,1.55
1747252867183412573,0.164
1747252867191100600,-0.642
1747252867198788627,-0.317
1747252867206476654,-0.113
1747252867214164681,-0.28500000000000003
1747252867221852708,-0.258
1747252867229540735,-0.167
1747252867237228762,-0.194
1747252867244916789,-0.187
1747252867252604816,-0.137
1747252867260292843,-0.13
1747252867267980870,-0.123
1747252867275668897,-0.091
1747252867283356924,-0.073
1747252867291044951,-0.061
1747252867298732978,-0.036000000000000004
1747252867306421005,-0.012
1747252867314109032,0.004
1747252867321797059,0.032
1747252867329485086,0.064
1747252867337173113,0.093
1747252867344861140,0.123
1747252867352549167,0.157
1747252867360237194,0.189
1747252867367925221,0.214
1747252867375613248,0.226
1747252867383301275,0.224
1747252867390989302,0.211
1747252867398677329,0.196
1747252867406365356,0.167
1747252867414053383,0.11800000000000001
1747252867421741410,0.049
1747252867429429437,-0.036000000000000004
1747252867437117464,-0.123
1747252867444805491,-0.187
1747252867452493518,-0.228
1747252867460181545,-0.253
1747252867467869572,-0.26
1747252867475557599,-0.256
1747252867483245626,-0.251
1747252867490933653,-0.246
1747252867498621680,-0.23600000000000002
1747252867506309707,-0.219
1747252867513997734,-0.20600000000000002
1747252867521685761,-0.199
1747252867529373788,-0.187
1747252867537061815,-0.177
1747252867544749842,-0.169
1747252867552437869,-0.16
1747252867560125896,-0.157
1747252867567813923,-0.16
1747252867575501950,-0.155
1747252867583189977,-0.147
1747252867590878004,-0.147
1747252867598566031,-0.147
1747252867606254058,-0.14200000000000002
1747252867613942085,-0.14
1747252867621630112,-0.14
1747252867629318139,-0.137
1747252867637006166,-0.137
1747252867644694193,-0.137
1747252867652382220,-0.132
1747252867660070296,-0.128
1747252867667758323,-0.128
1747252867675446350,-0.125
1747252867683134377,-0.123
1747252867690822404,-0.128
1747252867698510431,-0.14
1747252867706198458,-0.14
1747252867713886485,-0.125
1747252867721574512,-0.11
1747252867729262539,-0.10300000000000001
1747252867736950566,-0.1
1747252867744638593,-0.088
1747252867752326620,-0.076
1747252867760014647,-0.093
1747252867767702674,-0.11800000000000001
1747252867775390701,-0.11800000000000001
1747252867783078728,-0.113
1747252867790766755,-0.108
1747252867798454782,-0.1
1747252867806142809,-0.098
1747252867813830836,-0.096
1747252867821518863,-0.1
1747252867829206890,-0.128
1747252867836894917,-0.20400000000000001
1747252867844582944,-0.278
1747252867852270971,-0.093
1747252867859958998,0.578
1747252867867647025,1.477
1747252867875335052,1.937
1747252867883023079,1.243
1747252867890711106,-0.16
1747252867898399133,-0.627
1747252867906087160,-0.199
1747252867913775187,-0.14200000000000002
1747252867921463214,-0.31
1747252867929151241,-0.228
1747252867936839268,-0.167
1747252867944527295,-0.209
1747252867952215322,-0.177
1747252867959903349,-0.13
1747252867967591376,-0.13
1747252867975279403,-0.11800000000000001
1747252867982967430,-0.091
1747252867990655457,-0.073
1747252867998343484,-0.056
1747252868006031511,-0.036000000000000004
1747252868013719538,-0.014
1747252868021407565,0.007
1747252868029095592,0.034
1747252868036783619,0.064
1747252868044471646,0.093
1747252868052159673,0.128
1747252868059847700,0.164
1747252868067535727,0.194
1747252868075223754,0.214
1747252868082911781,0.224
1747252868090599808,0.221
1747252868098287835,0.209
1747252868105975862,0.192
1747252868113663889,0.162
1747252868121351916,0.108
1747252868129039943,0.027
1747252868136727970,-0.056
1747252868144415997,-0.132
1747252868152104024,-0.196
1747252868159792051,-0.233
1747252868167480078,-0.253
1747252868175168105,-0.265
1747252868182856132,-0.265
1747252868190544159,-0.253
1747252868198232186,-0.241
1747252868205920213,-0.228
1747252868213608240,-0.216
1747252868221296316,-0.20400000000000001,81,685
1747252868228984343,-0.189
1747252868236672370,-0.182
1747252868244360397,-0.177
1747252868252048424,-0.169
1747252868259736451,-0.162
1747252868267424478,-0.157
1747252868275112505,-0.16
1747252868282800532,-0.157
1747252868290488559,-0.15
1747252868298176586,-0.15
1747252868305864613,-0.152
1747252868313552640,-0.145
1747252868321240667,-0.14
1747252868328928694,-0.14
1747252868336616721,-0.137
1747252868344304748,-0.135
1747252868351992775,-0.132
1747252868359680802,-0.13
1747252868367368829,-0.128
1747252868375056856,-0.125
1747252868382744883,-0.123
1747252868390432910,-0.12
1747252868398120937,-0.12
1747252868405808964,-0.125
1747252868413496991,-0.132
1747252868421185018,-0.128
1747252868428873045,-0.11
1747252868436561072,-0.098
1747252868444249099,-0.093
1747252868451937126,-0.08600000000000001
1747252868459625153,-0.068
1747252868467313180,-0.07100000000000001
1747252868475001207,-0.096
1747252868482689234,-0.11
1747252868490377261,-0.10300000000000001
1747252868498065288,-0.1
1747252868505753315,-0.098
1747252868513441342,-0.093
1747252868521129369,-0.091
1747252868528817396,-0.093
1747252868536505423,-0.10300000000000001
1747252868544193450,-0.14200000000000002
1747252868551881477,-0.23600000000000002
1747252868559569504,-0.251
1747252868567257531,0.115
1747252868574945558,0.923
1747252868582633585,1.737
1747252868590321612,1.816
1747252868598009639,0.704
1747252868605697666,-0.487
1747252868613385693,-0.47700000000000004
1747252868621073720,-0.098
1747252868628761747,-0.209
1747252868636449774,-0.28300000000000003
1747252868644137801,-0.169
1747252868651825828,-0.167
1747252868659513855,-0.192
1747252868667201882,-0.14200000000000002
1747252868674889909,-0.115
1747252868682577936,-0.115
1747252868690265963,-0.088
1747252868697953990,-0.061
1747252868705642017,-0.056
1747252868713330044,-0.039
1747252868721018071,-0.009000000000000001
1747252868728706098,0.009000000000000001
1747252868736394125,0.032
1747252868744082152,0.061
1747252868751770179,0.088
1747252868759458206,0.12
1747252868767146233,0.162
1747252868774834260,0.199
1747252868782522336,0.224
1747252868790210293,0.23600000000000002
1747252868797898250,0.23800000000000002
1747252868805586207,0.23800000000000002
1747252868813274164,0.226
1747252868820962121,0.20400000000000001
1747252868828650078,0.164
1747252868836338035,0.1
1747252868844025992,0.022
1747252868851713949,-0.068
1747252868859401906,-0.145
1747252868867089863,-0.189
1747252868874777820,-0.221
1747252868882465777,-0.241
1747252868890153734,-0.23800000000000002
1747252868897841691,-0.231
1747252868905529648,-0.224
1747252868913217605,-0.214
1747252868920905562,-0.196
1747252868928593519,-0.187
1747252868936281476,-0.179
1747252868943969433,-0.167
1747252868951657390,-0.155
1747252868959345347,-0.147
1747252868967033304,-0.132
1747252868974721261,-0.13
1747252868982409218,-0.14
1747252868990097175,-0.135
1747252868997785132,-0.12
1747252869005473089,-0.12
1747252869013161046,-0.135
1747252869020849003,-0.135
1747252869028536960,-0.11800000000000001
1747252869036224917,-0.108
1747252869043912874,-0.115
1747252869051600831,-0.11800000000000001
1747252869059288788,-0.108
1747252869066976745,-0.108
1747252869074664702,-0.11
1747252869082352659,-0.10300000000000001
1747252869090040616,-0.108
1747252869097728573,-0.105
1747252869105416530,-0.08600000000000001
1747252869113104487,-0.091
1747252869120792444,-0.108
1747252869128480401,-0.1
1747252869136168358,-0.098
1747252869143856315,-0.105
1747252869151544272,-0.088
1747252869159232229,-0.066
1747252869166920186,-0.07100000000000001
1747252869174608143,-0.066
1747252869182296100,-0.044
1747252869189984057,-0.051000000000000004
1747252869197672014,-0.083
1747252869205359971,-0.088
1747252869213047928,-0.08600000000000001
1747252869220735885,-0.083
1747252869228423842,-0.078
1747252869236111799,-0.076
1747252869243799756,-0.076
1747252869251487713,-0.066
1747252869259175670,-0.081
1747252869266863627,-0.135
1747252869274551584,-0.226
1747252869282239541,-0.201
1747252869289927498,0.251
1747252869297615455,1.117
1747252869305303412,1.8800000000000001
1747252869312991369,1.72
1747252869320679326,0.41300000000000003
1747252869328367283,-0.59
1747252869336055240,-0.354
1747252869343743269,-0.064,82,688
1747252869351431226,-0.248
1747252869359119183,-0.253
1747252869366807140,-0.137
1747252869374495097,-0.167
1747252869382183054,-0.169
1747252869389871011,-0.11
1747252869397558968,-0.098
1747252869405246925,-0.096
1747252869412934882,-0.068
1747252869420622839,-0.054
1747252869428310796,-0.041
1747252869435998753,-0.014
1747252869443686710,0.009000000000000001
1747252869451374667,0.024
1747252869459062624,0.051000000000000004
1747252869466750581,0.091
1747252869474438538,0.12
1747252869482126495,0.147
1747252869489814452,0.182
1747252869497502409,0.214
1747252869505190366,0.23600000000000002
1747252869512878323,0.246
1747252869520566280,0.246
1747252869528254237,0.241
1747252869535942194,0.221
1747252869543630151,0.194
1747252869551318108,0.16
1747252869559006065,0.088
1747252869566694022,-0.007
1747252869574381979,-0.091
1747252869582069936,-0.157
1747252869589757893,-0.209
1747252869597445850,-0.233
1747252869605133807,-0.243
1747252869612821764,-0.256
1747252869620509721,-0.251
1747252869628197678,-0.231
1747252869635885635,-0.221
1747252869643573592,-0.219
1747252869651261549,-0.209
1747252869658949506,-0.187
1747252869666637463,-0.17400000000000002
1747252869674325420,-0.169
1747252869682013377,-0.164
1747252869689701334,-0.157
1747252869697389291,-0.15
1747252869705077248,-0.15
1747252869712765205,-0.145
1747252869720453162,-0.135
1747252869728141119,-0.13
1747252869735829076,-0.13
1747252869743517033,-0.135
1747252869751204990,-0.137
1747252869758892947,-0.13
1747252869766580904,-0.128
1747252869774268861,-0.128
1747252869781956818,-0.128
1747252869789644775,-0.123
1747252869797332732,-0.11800000000000001
1747252869805020689,-0.12
1747252869812708646,-0.12
1747252869820396603,-0.11
1747252869828084560,-0.113
1747252869835772517,-0.132
1747252869843460474,-0.14
1747252869851148431,-0.125
1747252869858836388,-0.10300000000000001
1747252869866524345,-0.098
1747252869874212302,-0.1
1747252869881900259,-0.083
1747252869889588216,-0.07100000000000001
1747252869897276173,-0.083
1747252869904964202,-0.1
1747252869912652159,-0.108
1747252869920340116,-0.108
1747252869928028073,-0.105
1747252869935716030,-0.1
1747252869943403987,-0.096
1747252869951091944,-0.091
1747252869958779901,-0.091
1747252869966467858,-0.108
1747252869974155815,-0.155
1747252869981843772,-0.243
1747252869989531729,-0.248
1747252869997219686,0.15
1747252870004907643,0.972
1747252870012595600,1.762
1747252870020283557,1.7770000000000001
1747252870027971514,0.595
1747252870035659471,-0.5630000000000001
1747252870043347428,-0.457
1747252870051035385,-0.088
1747252870058723342,-0.23800000000000002
1747252870066411299,-0.29
1747252870074099256,-0.162
1747252870081787213,-0.17200000000000001
1747252870089475170,-0.196
1747252870097163127,-0.145
1747252870104851084,-0.123
1747252870112539041,-0.125
1747252870120226998,-0.096
1747252870127914955,-0.068
1747252870135602912,-0.061
1747252870143290869,-0.041
1747252870150978826,-0.017
1747252870158666783,0.0
1747252870166354740,0.022
1747252870174042697,0.054
1747252870181730654,0.08600000000000001
1747252870189418611,0.113
1747252870197106568,0.145
1747252870204794525,0.17400000000000002
1747252870212482482,0.194
1747252870220170439,0.20600000000000002
1747252870227858396,0.209
1747252870235546353,0.201
1747252870243234310,0.189
1747252870250922267,0.164
1747252870258610224,0.125
1747252870266298181,0.056
1747252870273986138,-0.022
1747252870281674095,-0.1
1747252870289362052,-0.162
1747252870297050009,-0.211
1747252870304737966,-0.241
1747252870312425923,-0.253
1747252870320113880,-0.253
1747252870327801837,-0.248
1747252870335489794,-0.241
1747252870343177751,-0.231
1747252870350865708,-0.219
1747252870358553665,-0.201
1747252870366241622,-0.192
1747252870373929579,-0.189
1747252870381617536,-0.179
1747252870389305493,-0.167
1747252870396993450,-0.16
1747252870404681407,-0.155
1747252870412369364,-0.15
1747252870420057321,-0.147
1747252870427745278,-0.147
1747252870435433235,-0.147
1747252870443121192,-0.145
1747252870450809149,-0.14
1747252870458497106,-0.137
1747252870466185135,-0.135,83,705
1747252870473873092,-0.137,,712
1747252870481561049,-0.137
1747252870489249006,-0.13
1747252870496936963,-0.123
1747252870504624920,-0.125
1747252870512312877,-0.13
1747252870520000834,-0.125
1747252870527688791,-0.12
1747252870535376748,-0.12
1747252870543064705,-0.11800000000000001
1747252870550752662,-0.113
1747252870558440619,-0.113
1747252870566128576,-0.11800000000000001
1747252870573816533,-0.128
1747252870581504490,-0.132
1747252870589192447,-0.128
1747252870596880404,-0.113
1747252870604568361,-0.1
1747252870612256318,-0.098
1747252870619944275,-0.08600000000000001
1747252870627632232,-0.07100000000000001
1747252870635320189,-0.081
1747252870643008146,-0.105
1747252870650696103,-0.113
1747252870658384060,-0.108
1747252870666072017,-0.10300000000000001
1747252870673759974,-0.098
1747252870681447931,-0.093
1747252870689135888,-0.093
1747252870696823845,-0.093
1747252870704511802,-0.108
1747252870712199759,-0.157
1747252870719887716,-0.248
1747252870727575673,-0.219
1747252870735263630,0.23800000000000002
1747252870742951587,1.097
1747252870750639544,1.848
1747252870758327501,1.693
1747252870766015458,0.406
1747252870773703415,-0.603
1747252870781391372,-0.384
1747252870789079329,-0.081
1747252870796767286,-0.256
1747252870804455243,-0.275
1747252870812143200,-0.162
1747252870819831157,-0.182
1747252870827519114,-0.194
1747252870835207071,-0.14
1747252870842895028,-0.123
1747252870850582985,-0.123
1747252870858270942,-0.093
1747252870865958899,-0.07100000000000001
1747252870873646856,-0.059000000000000004
1747252870881334813,-0.039
1747252870889022770,-0.017
1747252870896710727,0.002
1747252870904398684,0.029
1747252870912086641,0.051000000000000004
1747252870919774598,0.078
1747252870927462555,0.108
1747252870935150512,0.14200000000000002
1747252870942838469,0.17200000000000001
1747252870950526426,0.192
1747252870958214383,0.20600000000000002
1747252870965902340,0.211
1747252870973590297,0.201
1747252870981278254,0.184
1747252870988966211,0.164
1747252870996654168,0.128
1747252871004342125,0.064
1747252871012030082,-0.014
1747252871019718039,-0.091
1747252871027406068,-0.157,83,721
1747252871035094025,-0.20600000000000002
1747252871042781982,-0.233
1747252871050469939,-0.248
1747252871058157896,-0.251
1747252871065845853,-0.246
1747252871073533810,-0.23600000000000002
1747252871081221767,-0.224
1747252871088909724,-0.214
1747252871096597681,-0.20600000000000002
1747252871104285638,-0.194
1747252871111973595,-0.184
1747252871119661552,-0.17200000000000001
1747252871127349509,-0.164
1747252871135037466,-0.16
1747252871142725423,-0.155
1747252871150413380,-0.155
1747252871158101337,-0.152
1747252871165789294,-0.15
1747252871173477251,-0.145
1747252871181165208,-0.14200000000000002
1747252871188853165,-0.14200000000000002
1747252871196541122,-0.14
1747252871204229079,-0.137
1747252871211917036,-0.135
1747252871219604993,-0.132
1747252871227292950,-0.13
1747252871234980907,-0.13
1747252871242668864,-0.13
1747252871250356821,-0.125
1747252871258044778,-0.12
1747252871265732735,-0.12
1747252871273420692,-0.115
1747252871281108649,-0.113
1747252871288796606,-0.113
1747252871296484563,-0.11
1747252871304172520,-0.105
1747252871311860477,-0.11
1747252871319548434,-0.11800000000000001
1747252871327236391,-0.123
1747252871334924348,-0.12
1747252871342612305,-0.108
1747252871350300262,-0.093
1747252871357988219,-0.088
1747252871365676176,-0.083
1747252871373364133,-0.068
1747252871381052090,-0.066
1747252871388740047,-0.091
1747252871396428004,-0.113
1747252871404115961,-0.108
1747252871411803918,-0.093
1747252871419491875,-0.091
1747252871427179832,-0.093
1747252871434867789,-0.091
1747252871442555746,-0.083
1747252871450243703,-0.098
1747252871457931660,-0.145
1747252871465619617,-0.228
1747252871473307574,-0.228
1747252871480995531,0.147
1747252871488683488,0.9520000000000001
1747252871496371445,1.752
1747252871504059402,1.782
1747252871511747359,0.63
1747252871519435316,-0.521
1747252871527123273,-0.45
1747252871534811230,-0.088
1747252871542499187,-0.226
1747252871550187144,-0.28800000000000003
1747252871557875101,-0.167
1747252871565563058,-0.169
1747252871573251015,-0.194
1747252871580938972,-0.145
1747252871588627001,-0.123
1747252871596314958,-0.123
1747252871604002915,-0.096
1747252871611690872,-0.068
1747252871619378829,-0.059000000000000004
1747252871627066786,-0.044
1747252871634754743,-0.022
1747252871642442700,0.0
1747252871650130657,0.022
1747252871657818614,0.049
1747252871665506571,0.076
1747252871673194528,0.105
1747252871680882485,0.14200000000000002
1747252871688570442,0.17400000000000002
1747252871696258399,0.194
1747252871703946356,0.20600000000000002
1747252871711634313,0.211
1747252871719322270,0.20400000000000001
1747252871727010227,0.194
1747252871734698184,0.17400000000000002
1747252871742386141,0.14
1747252871750074098,0.083
1747252871757762055,0.002
1747252871765450012,-0.081
1747252871773137969,-0.145
1747252871780825926,-0.196
1747252871788513883,-0.228
1747252871796201840,-0.248
1747252871803889797,-0.251
1747252871811577754,-0.241
1747252871819265711,-0.23600000000000002
1747252871826953668,-0.231
1747252871834641625,-0.216
1747252871842329582,-0.201
1747252871850017539,-0.192
1747252871857705496,-0.182
1747252871865393453,-0.17200000000000001
1747252871873081410,-0.167
1747252871880769367,-0.16
1747252871888457324,-0.152
1747252871896145281,-0.15
1747252871903833238,-0.15
1747252871911521195,-0.145
1747252871919209152,-0.145
1747252871926897109,-0.145
1747252871934585066,-0.14200000000000002
1747252871942273023,-0.137
1747252871949960980,-0.135
1747252871957648937,-0.135
1747252871965336894,-0.13
1747252871973024851,-0.13
1747252871980712808,-0.13
1747252871988400765,-0.125
1747252871996088722,-0.12
1747252872003776679,-0.12
1747252872011464636,-0.12
1747252872019152593,-0.115
1747252872026840550,-0.11
1747252872034528507,-0.11
1747252872042216464,-0.11
1747252872049904421,-0.108
1747252872057592378,-0.105
1747252872065280335,-0.108
1747252872072968292,-0.115
1747252872080656249,-0.12
1747252872088344206,-0.11
1747252872096032163,-0.098
1747252872103720120,-0.083
1747252872111408077,-0.078
1747252872119096034,-0.07100000000000001
1747252872126783991,-0.059000000000000004
1747252872134471948,-0.064
1747252872142159905,-0.091
1747252872149847934,-0.10300000000000001,83,708
1747252872157535961,-0.096
1747252872165223988,-0.093
1747252872172912015,-0.091
1747252872180600042,-0.088
1747252872188288069,-0.08600000000000001
1747252872195976096,-0.083
1747252872203664123,-0.1
1747252872211352150,-0.155
1747252872219040177,-0.23800000000000002
1747252872226728204,-0.179
1747252872234416231,0.307
1747252872242104258,1.147
1747252872249792285,1.824
1747252872257480312,1.568
1747252872265168339,0.28300000000000003
1747252872272856366,-0.588
1747252872280544393,-0.322
1747252872288232420,-0.081
1747252872295920447,-0.256
1747252872303608474,-0.253
1747252872311296501,-0.15
1747252872318984528,-0.17400000000000002
1747252872326672555,-0.179
1747252872334360582,-0.125
1747252872342048609,-0.11
1747252872349736636,-0.105
1747252872357424663,-0.081
1747252872365112690,-0.064
1747252872372800717,-0.049
1747252872380488744,-0.027
1747252872388176771,-0.004
1747252872395864798,0.017
1747252872403552825,0.041
1747252872411240852,0.066
1747252872418928879,0.096
1747252872426616906,0.13
1747252872434304933,0.16
1747252872441992960,0.184
1747252872449680987,0.20600000000000002
1747252872457369014,0.221
1747252872465057041,0.221
1747252872472745068,0.214
1747252872480433095,0.201
1747252872488121122,0.17400000000000002
1747252872495809149,0.135
1747252872503497176,0.076
1747252872511185203,0.0
1747252872518873230,-0.076
1747252872526561257,-0.137
1747252872534249284,-0.189
1747252872541937311,-0.224
1747252872549625338,-0.23600000000000002
1747252872557313365,-0.23600000000000002
1747252872565001392,-0.231
1747252872572689419,-0.224
1747252872580377446,-0.216
1747252872588065473,-0.201
1747252872595753500,-0.184
1747252872603441527,-0.17200000000000001
1747252872611129554,-0.162
1747252872618817581,-0.152
1747252872626505608,-0.147
1747252872634193635,-0.145
1747252872641881662,-0.14200000000000002
1747252872649569689,-0.14
1747252872657257716,-0.137
1747252872664945743,-0.135
1747252872672633770,-0.128
1747252872680321797,-0.123
1747252872688009824,-0.125
1747252872695697851,-0.123
1747252872703385878,-0.115
1747252872711073958,-0.12
1747252872718761985,-0.125
1747252872726450012,-0.12
1747252872734138039,-0.11800000000000001
1747252872741826066,-0.11
1747252872749514093,-0.10300000000000001
1747252872757202120,-0.108
1747252872764890147,-0.108
1747252872772578174,-0.105
1747252872780266201,-0.098
1747252872787954228,-0.08600000000000001
1747252872795642255,-0.091
1747252872803330282,-0.098
1747252872811018309,-0.098
1747252872818706336,-0.105
1747252872826394363,-0.115
1747252872834082390,-0.1
1747252872841770417,-0.076
1747252872849458444,-0.068
1747252872857146471,-0.07100000000000001
1747252872864834498,-0.056
1747252872872522525,-0.046
1747252872880210552,-0.064
1747252872887898579,-0.088
1747252872895586606,-0.093
1747252872903274633,-0.083
1747252872910962660,-0.083
1747252872918650687,-0.083
1747252872926338714,-0.073
1747252872934026741,-0.07100000000000001
1747252872941714768,-0.078
1747252872949402795,-0.10300000000000001
1747252872957090822,-0.169
1747252872964778849,-0.248
1747252872972466876,-0.1
1747252872980154903,0.519
1747252872987842930,1.403
1747252872995530957,1.92
1747252873003218984,1.312
1747252873010907011,-0.081
1747252873018595038,-0.603
1747252873026283065,-0.184
1747252873033971092,-0.105
1747252873041659119,-0.27
1747252873049347146,-0.189
1747252873057035173,-0.13
1747252873064723200,-0.179
1747252873072411227,-0.15
1747252873080099254,-0.093
1747252873087787281,-0.098
1747252873095475308,-0.093
1747252873103163335,-0.054
1747252873110851362,-0.034
1747252873118539389,-0.032
1747252873126227416,-0.009000000000000001
1747252873133915443,0.019
1747252873141603470,0.041
1747252873149291497,0.066
1747252873156979524,0.088
1747252873164667551,0.11800000000000001
1747252873172355578,0.152
1747252873180043605,0.17400000000000002
1747252873187731632,0.20400000000000001
1747252873195419659,0.228
1747252873203107686,0.23600000000000002
1747252873210795713,0.23600000000000002
1747252873218483740,0.224
1747252873226171767,0.199
1747252873233859794,0.179
1747252873241547821,0.137
1747252873249235848,0.054
1747252873256923875,-0.034
1747252873264611902,-0.105
1747252873272299978,-0.16,83,737
1747252873279988005,-0.20600000000000002,,747
1747252873287676032,-0.23600000000000002
1747252873295364059,-0.246
1747252873303052086,-0.246
1747252873310740113,-0.241
1747252873318428140,-0.228
1747252873326116167,-0.219
1747252873333804194,-0.20400000000000001
1747252873341492221,-0.192
1747252873349180248,-0.187
1747252873356868275,-0.182
1747252873364556302,-0.167
1747252873372244329,-0.162
1747252873379932356,-0.16
1747252873387620383,-0.152
1747252873395308410,-0.14
1747252873402996437,-0.135
1747252873410684464,-0.135
1747252873418372491,-0.14
1747252873426060518,-0.137
1747252873433748545,-0.135
1747252873441436572,-0.128
1747252873449124599,-0.123
1747252873456812626,-0.13
1747252873464500653,-0.137
1747252873472188680,-0.132
1747252873479876707,-0.125
1747252873487564734,-0.12
1747252873495252761,-0.115
1747252873502940788,-0.115
1747252873510628815,-0.12
1747252873518316842,-0.113
1747252873526004869,-0.11
1747252873533692896,-0.11800000000000001
1747252873541380923,-0.12
1747252873549068950,-0.12
1747252873556756977,-0.12
1747252873564445004,-0.108
1747252873572133031,-0.091
1747252873579821058,-0.088
1747252873587509085,-0.083
1747252873595197112,-0.066
1747252873602885139,-0.07100000000000001
1747252873610573166,-0.098
1747252873618261193,-0.11
1747252873625949220,-0.108
1747252873633637247,-0.1
1747252873641325274,-0.098
1747252873649013301,-0.096
1747252873656701328,-0.088
1747252873664389355,-0.081
1747252873672077382,-0.098
1747252873679765409,-0.167
1747252873687453436,-0.26
1747252873695141463,-0.189
1747252873702829490,0.324
1747252873710517517,1.189
1747252873718205544,1.853
1747252873725893571,1.553
1747252873733581598,0.228
1747252873741269625,-0.622
1747252873748957652,-0.322
1747252873756645679,-0.091
1747252873764333706,-0.265
1747252873772021733,-0.241
1747252873779709760,-0.145
1747252873787397787,-0.179
1747252873795085814,-0.177
1747252873802773841,-0.123
1747252873810461868,-0.11
1747252873818149895,-0.108
1747252873825837922,-0.08600000000000001
1747252873833525998,-0.064
1747252873841214025,-0.044
1747252873848902052,-0.027
1747252873856590079,-0.007
1747252873864278106,0.017
1747252873871966133,0.044
1747252873879654160,0.066
1747252873887342187,0.088
1747252873895030214,0.11800000000000001
1747252873902718241,0.15
1747252873910406268,0.17400000000000002
1747252873918094295,0.196
1747252873925782322,0.20600000000000002
1747252873933470349,0.201
1747252873941158376,0.192
1747252873948846403,0.182
1747252873956534430,0.155
1747252873964222457,0.108
1747252873971910484,0.049
1747252873979598511,-0.024
1747252873987286538,-0.10300000000000001
1747252873994974565,-0.167
1747252874002662592,-0.209
1747252874010350619,-0.23600000000000002
1747252874018038646,-0.246
1747252874025726673,-0.243
1747252874033414700,-0.23600000000000002
1747252874041102727,-0.231
1747252874048790754,-0.221
1747252874056478781,-0.20600000000000002
1747252874064166808,-0.199
1747252874071854835,-0.189
1747252874079542862,-0.177
1747252874087230889,-0.167
1747252874094918916,-0.16
1747252874102606943,-0.155
1747252874110294970,-0.15
1747252874117982997,-0.14200000000000002
1747252874125671024,-0.14200000000000002
1747252874133359051,-0.14200000000000002
1747252874141047078,-0.135
1747252874148735105,-0.13
