time,ecg,hr,rr,marker
1747684989611648767,4.2,83,814
1747684990149524439,4.168,,866
1747684990687400111,4.126
1747684991225275783,4.086
1747684991763151455,4.032
1747684992301027127,3.98
1747684992838902799,3.9450000000000003
1747684993376778471,3.869
1747684993914654143,3.77
1747684994452529815,3.713
1747684994990405487,3.658
1747684995528281159,3.572
1747684996066156831,3.5
1747684996604032503,3.468
1747684997141908175,3.436
1747684997679783847,3.384
1747684998217659519,3.337
1747684998755535191,3.315
1747684999293410863,3.282
1747684999831286535,3.24
1747685000369162207,3.206
1747685000907037879,3.1790000000000003
1747685001444913551,3.149
1747685001982789223,3.114
1747685002520664895,3.077
1747685003058540567,3.0420000000000003
1747685003596416239,3.0180000000000002
1747685004134291911,2.988
1747685004672167583,2.9410000000000003
1747685005210043255,2.894
1747685005747918927,2.867
1747685006285794599,2.842
1747685006823670271,2.805
1747685007361545943,2.758
1747685007899421615,2.718
1747685008437297287,2.699
1747685008975172959,2.669
1747685009513048631,2.624
1747685010050924303,2.58
1747685010588799975,2.5500000000000003
1747685011126675647,2.528
1747685011664551319,2.498
1747685012202426991,2.459
1747685012740302663,2.4290000000000003
1747685013278178335,2.412
1747685013816054007,2.392
1747685014353929679,2.352
1747685014891805351,2.318
1747685015429681023,2.298
1747685015967556695,2.2680000000000002
1747685016505432367,2.231
1747685017043308039,2.201
1747685017581183711,2.177
1747685018119059383,2.154
1747685018656935055,2.125
1747685019194810727,2.1
1747685019732686399,2.08
1747685020270562071,2.05
1747685020808437743,2.013
1747685021346313415,1.994
1747685021884189087,1.974
1747685022422064759,1.939
1747685022959940431,1.9040000000000001
1747685023497816103,1.8800000000000001
1747685024035691775,1.86
1747685024573567447,1.848
1747685025111443119,1.843
1747685025649318791,1.825
1747685026187194463,1.796
1747685026725070135,1.778
1747685027262945807,1.749
1747685027800821479,1.709
1747685028338697151,1.684
1747685028876572846,1.6600000000000001,82,915
1747685028884260803,1.6400000000000001
1747685028891948760,1.627
1747685028899636717,1.608
1747685028907324674,1.58
1747685028915012631,1.546
1747685028922700588,1.516
1747685028930388545,1.578
1747685028938076502,1.872
1747685028945764459,2.231
1747685028953452416,2.1390000000000002
1747685028961140373,1.538
1747685028968828330,1.083
1747685028976516287,1.115
1747685028984204244,1.239
1747685028991892201,1.239
1747685028999580158,1.291
1747685029007268115,1.348
1747685029014956072,1.318
1747685029022644029,1.293
1747685029030331986,1.306
1747685029038019943,1.298
1747685029045707900,1.2690000000000001
1747685029053395857,1.2510000000000001
1747685029061083814,1.256
1747685029068771771,1.2510000000000001
1747685029076459728,1.232
1747685029084147685,1.214
1747685029091835642,1.207
1747685029099523599,1.189
1747685029107211556,1.182
1747685029114899513,1.185
1747685029122587470,1.172
1747685029130275427,1.1520000000000001
1747685029137963384,1.1520000000000001
1747685029145651341,1.1520000000000001
1747685029153339298,1.147
1747685029161027255,1.1520000000000001
1747685029168715212,1.157
1747685029176403169,1.145
1747685029184091126,1.1280000000000001
1747685029191779083,1.1280000000000001
1747685029199467040,1.1280000000000001
1747685029207154997,1.103
1747685029214842954,1.078
1747685029222530911,1.061
1747685029230218868,1.041
1747685029237906825,1.0010000000000001
1747685029245594782,0.9500000000000001
1747685029253282739,0.905
1747685029260970696,0.855
1747685029268658653,0.799
1747685029276346610,0.764
1747685029284034567,0.742
1747685029291722524,0.717
1747685029299410481,0.7020000000000001
1747685029307098438,0.6970000000000001
1747685029314786395,0.6920000000000001
1747685029322474352,0.685
1747685029330162309,0.675
1747685029337850266,0.667
1747685029345538223,0.665
1747685029353226180,0.658
1747685029360914137,0.653
1747685029368602094,0.653
1747685029376290051,0.648
1747685029383978008,0.63
1747685029391665965,0.618
1747685029399353922,0.613
1747685029407041879,0.613
1747685029414729836,0.603
1747685029422417793,0.588
1747685029430105750,0.581
1747685029437793779,0.5760000000000001
1747685029445481597,0.551
1747685029453169415,0.539
1747685029460857233,0.544
1747685029468545051,0.531
1747685029476232869,0.517
1747685029483920687,0.517
1747685029491608505,0.507
1747685029499296323,0.497
1747685029506984141,0.499
1747685029514671959,0.489
1747685029522359777,0.465
1747685029530047595,0.462
1747685029537735413,0.482
1747685029545423231,0.47700000000000004
1747685029553111049,0.447
1747685029560798867,0.437
1747685029568486685,0.445
1747685029576174503,0.437
1747685029583862321,0.42
1747685029591550139,0.41300000000000003
1747685029599237957,0.432
1747685029606925775,0.45
1747685029614613593,0.437
1747685029622301411,0.425
1747685029629989229,0.442
1747685029637677047,0.435
1747685029645364865,0.385
1747685029653052683,0.363
1747685029660740501,0.383
1747685029668428319,0.385
1747685029676116137,0.371
1747685029683803955,0.371
1747685029691491773,0.376
1747685029699179591,0.371
1747685029706867409,0.343
1747685029714555227,0.38
1747685029722243045,0.653
1747685029729930863,1.034
1747685029737618681,1.0010000000000001
1747685029745306499,0.43
1747685029752994317,-0.029
1747685029760682135,0.014
1747685029768369953,0.155
1747685029776057771,0.163
1747685029783745589,0.23700000000000002
1747685029791433407,0.324
1747685029799121225,0.309
1747685029806809043,0.301
1747685029814496861,0.331
1747685029822184679,0.331
1747685029829872497,0.324
1747685029837560315,0.326
1747685029845248133,0.326
1747685029852935951,0.326
1747685029860623769,0.326
1747685029868311587,0.331
1747685029875999405,0.343
1747685029883687223,0.336
1747685029891375041,0.321
1747685029899062859,0.336
1747685029906750677,0.353
1747685029914438495,0.338
1747685029922126313,0.341
1747685029929814131,0.368
1747685029937501949,0.373
1747685029945189767,0.363
1747685029952877585,0.388
1747685029960565403,0.418
1747685029968253221,0.405
1747685029975941039,0.395
1747685029983628857,0.40800000000000003
1747685029991316675,0.40800000000000003
1747685029999004542,0.393,79,831
1747685030006692221,0.378,,847
1747685030014379900,0.358
1747685030022067579,0.331
1747685030029755258,0.28600000000000003
1747685030037442937,0.23
1747685030045130616,0.188
1747685030052818295,0.155
1747685030060505974,0.131
1747685030068193653,0.123
1747685030075881332,0.11800000000000001
1747685030083569011,0.10300000000000001
1747685030091256690,0.096
1747685030098944369,0.096
1747685030106632048,0.101
1747685030114319727,0.111
1747685030122007406,0.11800000000000001
1747685030129695085,0.116
1747685030137382764,0.121
1747685030145070443,0.133
1747685030152758122,0.136
1747685030160445801,0.123
1747685030168133480,0.111
1747685030175821159,0.101
1747685030183508838,0.108
1747685030191196517,0.116
1747685030198884196,0.113
1747685030206571875,0.108
1747685030214259554,0.106
1747685030221947233,0.10300000000000001
1747685030229634912,0.098
1747685030237322591,0.094
1747685030245010270,0.094
1747685030252697949,0.098
1747685030260385628,0.08600000000000001
1747685030268073307,0.076
1747685030275760986,0.091
1747685030283448665,0.098
1747685030291136344,0.08600000000000001
1747685030298824023,0.079
1747685030306511702,0.084
1747685030314199381,0.089
1747685030321887060,0.094
1747685030329574739,0.08600000000000001
1747685030337262418,0.076
1747685030344950097,0.091
1747685030352637776,0.10300000000000001
1747685030360325455,0.091
1747685030368013134,0.081
1747685030375700813,0.076
1747685030383388492,0.064
1747685030391076171,0.064
1747685030398763850,0.081
1747685030406451529,0.091
1747685030414139208,0.098
1747685030421826887,0.108
1747685030429514566,0.111
1747685030437202245,0.111
1747685030444889924,0.091
1747685030452577603,0.069
1747685030460265282,0.07100000000000001
1747685030467952961,0.079
1747685030475640640,0.081
1747685030483328319,0.081
1747685030491015998,0.066
1747685030498703677,0.059000000000000004
1747685030506391356,0.061
1747685030514079035,0.061
1747685030521766714,0.14300000000000002
1747685030529454393,0.442
1747685030537142072,0.791
1747685030544829751,0.687
1747685030552517430,0.11800000000000001
1747685030560205127,-0.267
1747685030567893085,-0.2
1747685030575581043,-0.074
1747685030583269001,-0.056
1747685030590956959,0.002
1747685030598644917,0.056
1747685030606332875,0.044
1747685030614020833,0.054
1747685030621708791,0.081
1747685030629396749,0.081
1747685030637084707,0.081
1747685030644772665,0.091
1747685030652460623,0.096
1747685030660148581,0.098
1747685030667836539,0.101
1747685030675524497,0.108
1747685030683212455,0.108
1747685030690900413,0.10300000000000001
1747685030698588371,0.108
1747685030706276329,0.121
1747685030713964287,0.131
1747685030721652245,0.133
1747685030729340203,0.138
1747685030737028161,0.153
1747685030744716119,0.168
1747685030752404077,0.18
1747685030760092035,0.19
1747685030767779993,0.19
1747685030775467951,0.2
1747685030783155909,0.212
1747685030790843867,0.20700000000000002
1747685030798531825,0.2
1747685030806219783,0.20500000000000002
1747685030813907741,0.2
1747685030821595699,0.165
1747685030829283657,0.138
1747685030836971615,0.116
1747685030844659573,0.07100000000000001
1747685030852347531,0.024
1747685030860035489,-0.002
1747685030867723447,-0.022
1747685030875411405,-0.039
1747685030883099363,-0.039
1747685030890787321,-0.047
1747685030898475279,-0.042
1747685030906163237,-0.027
1747685030913851195,-0.034
1747685030921539153,-0.039
1747685030929227111,-0.027
1747685030936915069,-0.029
1747685030944603027,-0.027
1747685030952290985,-0.009000000000000001
1747685030959978943,-0.012
1747685030967666901,-0.019
1747685030975354859,-0.004
1747685030983042817,0.004
1747685030990730775,-0.004
1747685030998418733,-0.014
1747685031006106691,-0.017
1747685031013794649,-0.009000000000000001
1747685031021482607,-0.014
1747685031029170565,-0.017
1747685031036858523,-0.009000000000000001
1747685031044546481,-0.014
1747685031052234439,-0.019
1747685031059922397,-0.017
1747685031067610355,-0.017
1747685031075298313,-0.012
1747685031082986271,-0.009000000000000001
1747685031090674229,-0.012
1747685031098362187,-0.009000000000000001
1747685031106050145,-0.014
1747685031113738103,-0.017
1747685031121426064,-0.007,78,871
1747685031129113673,-0.002
1747685031136801282,-0.012
1747685031144488891,-0.019
1747685031152176500,-0.012
1747685031159864109,-0.012
1747685031167551718,-0.017
1747685031175239327,-0.014
1747685031182926936,-0.019
1747685031190614545,-0.022
1747685031198302154,0.002
1747685031205989763,0.027
1747685031213677372,0.019
1747685031221364981,0.009000000000000001
1747685031229052590,0.022
1747685031236740199,0.009000000000000001
1747685031244427808,-0.017
1747685031252115417,-0.022
1747685031259803026,-0.014
1747685031267490635,-0.009000000000000001
1747685031275178244,-0.002
1747685031282865853,0.0
1747685031290553462,-0.004
1747685031298241071,-0.012
1747685031305928680,-0.004
1747685031313616289,0.11800000000000001
1747685031321303898,0.467
1747685031328991507,0.727
1747685031336679116,0.442
1747685031344366725,-0.136
1747685031352054334,-0.373
1747685031359741943,-0.252
1747685031367429552,-0.153
1747685031375117161,-0.111
1747685031382804770,-0.032
1747685031390492379,-0.009000000000000001
1747685031398179988,-0.022
1747685031405867597,0.0
1747685031413555206,0.022
1747685031421242815,0.014
1747685031428930424,0.017
1747685031436618033,0.029
1747685031444305642,0.037
1747685031451993251,0.039
1747685031459680860,0.042
1747685031467368469,0.042
1747685031475056078,0.044
1747685031482743687,0.056
1747685031490431296,0.059000000000000004
1747685031498118905,0.059000000000000004
1747685031505806514,0.074
1747685031513494123,0.091
1747685031521181732,0.089
1747685031528869341,0.098
1747685031536556950,0.128
1747685031544244559,0.14300000000000002
1747685031551932168,0.145
1747685031559619777,0.153
1747685031567307386,0.155
1747685031574994995,0.16
1747685031582682604,0.163
1747685031590370213,0.163
1747685031598057822,0.153
1747685031605745431,0.133
1747685031613433040,0.111
1747685031621120649,0.079
1747685031628808258,0.039
1747685031636495867,0.002
1747685031644183476,-0.027
1747685031651871085,-0.056
1747685031659558694,-0.081
1747685031667246303,-0.08600000000000001
1747685031674933912,-0.091
1747685031682621566,-0.094,77,784
1747685031690309593,-0.084
1747685031697997620,-0.076
1747685031705685647,-0.079
1747685031713373674,-0.076
1747685031721061701,-0.074
1747685031728749728,-0.074
1747685031736437755,-0.064
1747685031744125782,-0.051000000000000004
1747685031751813809,-0.049
1747685031759501836,-0.049
1747685031767189863,-0.047
1747685031774877890,-0.042
1747685031782565917,-0.042
1747685031790253944,-0.056
1747685031797941971,-0.064
1747685031805629998,-0.054
1747685031813318025,-0.051000000000000004
1747685031821006052,-0.054
1747685031828694079,-0.051000000000000004
1747685031836382106,-0.051000000000000004
1747685031844070133,-0.054
1747685031851758160,-0.054
1747685031859446187,-0.051000000000000004
1747685031867134214,-0.042
1747685031874822241,-0.037
1747685031882510268,-0.049
1747685031890198295,-0.056
1747685031897886322,-0.042
1747685031905574349,-0.034
1747685031913262376,-0.047
1747685031920950403,-0.056
1747685031928638430,-0.049
1747685031936326457,-0.044
1747685031944014484,-0.047
1747685031951702511,-0.032
1747685031959390538,-0.012
1747685031967078565,-0.014
1747685031974766592,-0.017
1747685031982454619,-0.012
1747685031990142646,-0.019
1747685031997830673,-0.027
1747685032005518700,-0.029
1747685032013206727,-0.037
1747685032020894754,-0.039
1747685032028582781,-0.034
1747685032036270808,-0.027
1747685032043958835,-0.024
1747685032051646862,-0.042
1747685032059334889,-0.059000000000000004
1747685032067022916,0.042
1747685032074710943,0.378
1747685032082398970,0.6920000000000001
1747685032090086997,0.497
1747685032097775024,-0.081
1747685032105463051,-0.388
1747685032113151078,-0.291
1747685032120839105,-0.183
1747685032128527132,-0.16
1747685032136215159,-0.076
1747685032143903186,-0.012
1747685032151591213,-0.024
1747685032159279240,-0.022
1747685032166967267,0.007
1747685032174655294,0.012
1747685032182343321,0.007
1747685032190031348,0.012
1747685032197719375,0.024
1747685032205407402,0.019
1747685032213095429,0.012
1747685032220783456,0.027
1747685032228471483,0.044
1747685032236159510,0.042
1747685032243847586,0.039
1747685032251535404,0.047
1747685032259223222,0.066
1747685032266911040,0.079
1747685032274598858,0.079
1747685032282286676,0.084
1747685032289974494,0.101
1747685032297662312,0.111
1747685032305350130,0.126
1747685032313037948,0.148
1747685032320725766,0.148
1747685032328413584,0.14100000000000001
1747685032336101402,0.153
1747685032343789220,0.153
1747685032351477038,0.128
1747685032359164856,0.11800000000000001
1747685032366852674,0.101
1747685032374540492,0.064
1747685032382228310,0.029
1747685032389916128,0.002
1747685032397603946,-0.029
1747685032405291764,-0.061
1747685032412979582,-0.08600000000000001
1747685032420667400,-0.10300000000000001
1747685032428355218,-0.106
1747685032436043036,-0.096
1747685032443730854,-0.091
1747685032451418672,-0.098
1747685032459106490,-0.096
1747685032466794308,-0.076
1747685032474482126,-0.074
1747685032482169944,-0.089
1747685032489857762,-0.084
1747685032497545580,-0.066
1747685032505233398,-0.061
1747685032512921216,-0.069
1747685032520609034,-0.074
1747685032528296852,-0.064
1747685032535984670,-0.051000000000000004
1747685032543672488,-0.059000000000000004
1747685032551360306,-0.07100000000000001
1747685032559048124,-0.07100000000000001
1747685032566735942,-0.07100000000000001
1747685032574423760,-0.066
1747685032582111578,-0.059000000000000004
1747685032589799396,-0.064
1747685032597487214,-0.07100000000000001
1747685032605175032,-0.066
1747685032612862850,-0.064
1747685032620550668,-0.066
1747685032628238486,-0.056
1747685032635926304,-0.051000000000000004
1747685032643614122,-0.066
1747685032651301940,-0.076
1747685032658989758,-0.066
1747685032666677576,-0.064
1747685032674365394,-0.061
1747685032682053212,-0.037
1747685032689741030,-0.019
1747685032697428848,-0.022
1747685032705116666,-0.024
1747685032712804484,-0.034
1747685032720492302,-0.049
1747685032728180120,-0.051000000000000004
1747685032735867938,-0.049
1747685032743555756,-0.049
1747685032751243574,-0.051000000000000004
1747685032758931392,-0.049
1747685032766619210,-0.049
1747685032774307028,-0.051000000000000004
1747685032781994846,-0.051000000000000004
1747685032789682664,-0.034
1747685032797370482,0.136
1747685032805058345,0.507,77,806
1747685032812746163,0.655,,790
1747685032820433981,0.247
1747685032828121799,-0.28400000000000003
1747685032835809617,-0.393
1747685032843497435,-0.242
1747685032851185253,-0.183
1747685032858873071,-0.14100000000000001
1747685032866560889,-0.047
1747685032874248707,-0.027
1747685032881936525,-0.049
1747685032889624343,-0.034
1747685032897312161,-0.007
1747685032904999979,-0.007
1747685032912687797,-0.007
1747685032920375615,0.004
1747685032928063433,0.012
1747685032935751251,0.017
1747685032943439069,0.024
1747685032951126887,0.029
1747685032958814705,0.024
1747685032966502523,0.022
1747685032974190341,0.037
1747685032981878159,0.051000000000000004
1747685032989565977,0.056
1747685032997253795,0.064
1747685033004941613,0.076
1747685033012629431,0.089
1747685033020317249,0.096
1747685033028005067,0.111
1747685033035692885,0.126
1747685033043380703,0.128
1747685033051068521,0.126
1747685033058756339,0.138
1747685033066444157,0.14300000000000002
1747685033074131975,0.128
1747685033081819793,0.111
1747685033089507611,0.10300000000000001
1747685033097195429,0.081
1747685033104883247,0.037
1747685033112571065,-0.009000000000000001
1747685033120258883,-0.042
1747685033127946701,-0.066
1747685033135634519,-0.084
1747685033143322337,-0.094
1747685033151010155,-0.106
1747685033158697973,-0.108
1747685033166385791,-0.10300000000000001
1747685033174073609,-0.101
1747685033181761427,-0.098
1747685033189449245,-0.096
1747685033197137063,-0.089
1747685033204824881,-0.076
1747685033212512699,-0.07100000000000001
1747685033220200517,-0.079
1747685033227888335,-0.074
1747685033235576153,-0.07100000000000001
1747685033243263971,-0.079
1747685033250951789,-0.074
1747685033258639607,-0.066
1747685033266327425,-0.069
1747685033274015243,-0.064
1747685033281703061,-0.064
1747685033289390879,-0.081
1747685033297078697,-0.081
1747685033304766515,-0.061
1747685033312454333,-0.07100000000000001
1747685033320142151,-0.084
1747685033327829969,-0.069
1747685033335517787,-0.069
1747685033343205605,-0.076
1747685033350893423,-0.074
1747685033358581241,-0.076
1747685033366269108,-0.084
1747685033373956787,-0.074
1747685033381644466,-0.044
1747685033389332145,-0.037
1747685033397019824,-0.037
1747685033404707503,-0.017
1747685033412395182,-0.024
1747685033420082861,-0.056
1747685033427770540,-0.061
1747685033435458219,-0.054
1747685033443145898,-0.061
1747685033450833577,-0.059000000000000004
1747685033458521256,-0.051000000000000004
1747685033466208935,-0.054
1747685033473896614,-0.049
1747685033481584293,-0.047
1747685033489271972,-0.044
1747685033496959651,0.08600000000000001
1747685033504647330,0.445
1747685033512335009,0.66
1747685033520022688,0.316
1747685033527710367,-0.23900000000000002
1747685033535398046,-0.40800000000000003
1747685033543085725,-0.272
1747685033550773404,-0.202
1747685033558461083,-0.163
1747685033566148762,-0.061
1747685033573836441,-0.029
1747685033581524120,-0.049
1747685033589211799,-0.024
1747685033596899478,0.0
1747685033604587157,-0.007
1747685033612274836,-0.014
1747685033619962515,-0.009000000000000001
1747685033627650194,-0.002
1747685033635337873,0.007
1747685033643025552,0.014
1747685033650713231,0.019
1747685033658400910,0.032
1747685033666088589,0.034
1747685033673776268,0.024
1747685033681463947,0.029
1747685033689151626,0.051000000000000004
1747685033696839305,0.059000000000000004
1747685033704526984,0.074
1747685033712214663,0.121
1747685033719902342,0.14300000000000002
1747685033727590021,0.098
1747685033735277700,0.066
1747685033742965379,0.101
1747685033750653058,0.123
1747685033758340737,0.111
1747685033766028416,0.111
1747685033773716095,0.11800000000000001
1747685033781403774,0.113
1747685033789091453,0.098
1747685033796779132,0.069
1747685033804466811,0.032
1747685033812154490,0.004
1747685033819842169,-0.034
1747685033827529848,-0.081
1747685033835217527,-0.098
1747685033842905206,-0.101
1747685033850592885,-0.111
1747685033858280564,-0.11800000000000001
1747685033865968243,-0.111
1747685033873655922,-0.096
1747685033881343601,-0.094
1747685033889031280,-0.101
1747685033896718959,-0.101
1747685033904406638,-0.08600000000000001
1747685033912094317,-0.079
1747685033919781996,-0.079
1747685033927469693,-0.074,77,755
1747685033935157650,-0.064
1747685033942845607,-0.064
1747685033950533564,-0.076
1747685033958221521,-0.076
1747685033965909478,-0.066
1747685033973597435,-0.069
1747685033981285392,-0.081
1747685033988973349,-0.074
1747685033996661306,-0.061
1747685034004349263,-0.061
1747685034012037220,-0.074
1747685034019725177,-0.079
1747685034027413134,-0.07100000000000001
1747685034035101091,-0.074
1747685034042789048,-0.081
1747685034050477005,-0.081
1747685034058164962,-0.074
1747685034065852919,-0.051000000000000004
1747685034073540876,-0.039
1747685034081228833,-0.042
1747685034088916790,-0.039
1747685034096604747,-0.032
1747685034104292704,-0.042
1747685034111980661,-0.056
1747685034119668618,-0.056
1747685034127356575,-0.051000000000000004
1747685034135044532,-0.054
1747685034142732489,-0.061
1747685034150420446,-0.061
1747685034158108403,-0.054
1747685034165796360,-0.051000000000000004
1747685034173484317,-0.054
1747685034181172274,0.022
1747685034188860231,0.311
1747685034196548188,0.623
1747685034204236145,0.47000000000000003
1747685034211924102,-0.079
1747685034219612059,-0.395
1747685034227300016,-0.314
1747685034234987973,-0.215
1747685034242675930,-0.18
1747685034250363887,-0.08600000000000001
1747685034258051844,-0.029
1747685034265739801,-0.051000000000000004
1747685034273427758,-0.042
1747685034281115715,-0.014
1747685034288803672,-0.019
1747685034296491629,-0.014
1747685034304179586,-0.002
1747685034311867543,-0.002
1747685034319555500,-0.002
1747685034327243457,0.004
1747685034334931414,0.012
1747685034342619371,0.017
1747685034350307328,0.017
1747685034357995285,0.019
1747685034365683242,0.034
1747685034373371199,0.049
1747685034381059156,0.051000000000000004
1747685034388747113,0.059000000000000004
1747685034396435070,0.07100000000000001
1747685034404123027,0.08600000000000001
1747685034411810984,0.094
1747685034419498941,0.098
1747685034427186898,0.106
1747685034434874855,0.108
1747685034442562812,0.11800000000000001
1747685034450250769,0.11800000000000001
1747685034457938726,0.108
1747685034465626683,0.101
1747685034473314640,0.096
1747685034481002597,0.07100000000000001
1747685034488690626,0.034
1747685034496378584,-0.009000000000000001
1747685034504066542,-0.044
1747685034511754500,-0.064
1747685034519442458,-0.089
1747685034527130416,-0.106
1747685034534818374,-0.106
1747685034542506332,-0.10300000000000001
1747685034550194290,-0.108
1747685034557882248,-0.11800000000000001
1747685034565570206,-0.113
1747685034573258164,-0.094
1747685034580946122,-0.08600000000000001
1747685034588634080,-0.089
1747685034596322038,-0.089
1747685034604009996,-0.081
1747685034611697954,-0.074
1747685034619385912,-0.076
1747685034627073870,-0.084
1747685034634761828,-0.081
1747685034642449786,-0.074
1747685034650137744,-0.069
1747685034657825702,-0.07100000000000001
1747685034665513660,-0.074
1747685034673201618,-0.069
1747685034680889576,-0.069
1747685034688577534,-0.076
1747685034696265492,-0.074
1747685034703953450,-0.069
1747685034711641408,-0.074
1747685034719329366,-0.079
1747685034727017324,-0.079
1747685034734705282,-0.084
1747685034742393240,-0.08600000000000001
1747685034750081198,-0.061
1747685034757769156,-0.044
1747685034765457114,-0.047
1747685034773145072,-0.047
1747685034780833030,-0.034
1747685034788520988,-0.039
1747685034796208946,-0.059000000000000004
1747685034803896904,-0.066
1747685034811584862,-0.066
1747685034819272820,-0.069
1747685034826960778,-0.061
1747685034834648736,-0.056
1747685034842336694,-0.059000000000000004
1747685034850024652,-0.059000000000000004
1747685034857712610,-0.059000000000000004
1747685034865400568,-0.034
1747685034873088526,0.128
1747685034880776484,0.47700000000000004
1747685034888464442,0.63
1747685034896152400,0.232
1747685034903840358,-0.301
1747685034911528316,-0.423
1747685034919216274,-0.274
1747685034926904232,-0.21
1747685034934592190,-0.163
1747685034942280148,-0.064
1747685034949968106,-0.032
1747685034957656064,-0.051000000000000004
1747685034965344022,-0.034
1747685034973031980,-0.012
1747685034980719938,-0.019
1747685034988407896,-0.022
1747685034996095854,0.0
1747685035003783812,0.017
1747685035011471770,0.007
1747685035019159728,0.0
1747685035026847686,0.017
1747685035034535644,0.029
1747685035042223602,0.024
1747685035049911563,0.027,77,728
1747685035057599102,0.047,,700
1747685035065286641,0.056
1747685035072974180,0.051000000000000004
1747685035080661719,0.066
1747685035088349258,0.091
1747685035096036797,0.098
1747685035103724336,0.098
1747685035111411875,0.108
1747685035119099414,0.121
1747685035126786953,0.123
1747685035134474492,0.126
1747685035142162031,0.126
1747685035149849570,0.11800000000000001
1747685035157537109,0.111
1747685035165224648,0.091
1747685035172912187,0.056
1747685035180599726,0.014
1747685035188287265,-0.017
1747685035195974804,-0.047
1747685035203662343,-0.084
1747685035211349882,-0.121
1747685035219037421,-0.133
1747685035226724960,-0.131
1747685035234412499,-0.126
1747685035242100038,-0.116
1747685035249787577,-0.106
1747685035257475116,-0.108
1747685035265162655,-0.116
1747685035272850194,-0.101
1747685035280537733,-0.089
1747685035288225272,-0.098
1747685035295912811,-0.098
1747685035303600350,-0.081
1747685035311287889,-0.07100000000000001
1747685035318975428,-0.076
1747685035326662967,-0.081
1747685035334350506,-0.089
1747685035342038045,-0.081
1747685035349725584,-0.076
1747685035357413123,-0.08600000000000001
1747685035365100662,-0.089
1747685035372788201,-0.079
1747685035380475740,-0.079
1747685035388163279,-0.091
1747685035395850818,-0.098
1747685035403538357,-0.096
1747685035411225896,-0.094
1747685035418913435,-0.081
1747685035426600974,-0.064
1747685035434288513,-0.064
1747685035441976052,-0.059000000000000004
1747685035449663591,-0.039
1747685035457351130,-0.049
1747685035465038669,-0.07100000000000001
1747685035472726208,-0.07100000000000001
1747685035480413747,-0.076
1747685035488101286,-0.08600000000000001
1747685035495788825,-0.07100000000000001
1747685035503476364,-0.061
1747685035511163903,-0.07100000000000001
1747685035518851442,-0.069
1747685035526538981,-0.066
1747685035534226520,-0.044
1747685035541914059,0.14300000000000002
1747685035549601598,0.524
1747685035557289137,0.658
1747685035564976676,0.19
1747685035572664215,-0.366
1747685035580351754,-0.435
1747685035588039293,-0.267
1747685035595726832,-0.227
1747685035603414371,-0.19
1747685035611101978,-0.07100000000000001,78,688
1747685035618789726,-0.027
1747685035626477474,-0.042
1747685035634165222,-0.024
1747685035641852970,-0.012
1747685035649540718,-0.014
1747685035657228466,-0.002
1747685035664916214,0.002
1747685035672603962,0.0
1747685035680291710,0.007
1747685035687979458,0.014
1747685035695667206,0.022
1747685035703354954,0.032
1747685035711042702,0.037
1747685035718730450,0.042
1747685035726418198,0.049
1747685035734105946,0.059000000000000004
1747685035741793694,0.07100000000000001
1747685035749481442,0.076
1747685035757169190,0.089
1747685035764856938,0.111
1747685035772544686,0.133
1747685035780232434,0.138
1747685035787920182,0.14100000000000001
1747685035795607930,0.14300000000000002
1747685035803295678,0.138
1747685035810983426,0.138
1747685035818671174,0.14100000000000001
1747685035826358922,0.128
1747685035834046670,0.098
1747685035841734418,0.056
1747685035849422166,0.009000000000000001
1747685035857109914,-0.022
1747685035864797662,-0.049
1747685035872485410,-0.079
1747685035880173158,-0.098
1747685035887860906,-0.116
1747685035895548654,-0.126
1747685035903236402,-0.11800000000000001
1747685035910924150,-0.106
1747685035918611898,-0.10300000000000001
1747685035926299646,-0.10300000000000001
1747685035933987394,-0.098
1747685035941675142,-0.089
1747685035949362890,-0.081
1747685035957050638,-0.076
1747685035964738386,-0.07100000000000001
1747685035972426134,-0.066
1747685035980113882,-0.059000000000000004
1747685035987801630,-0.059000000000000004
1747685035995489378,-0.064
1747685036003177126,-0.061
1747685036010864874,-0.059000000000000004
1747685036018552622,-0.066
1747685036026240370,-0.074
1747685036033928118,-0.064
1747685036041615866,-0.056
1747685036049303614,-0.069
1747685036056991362,-0.079
1747685036064679110,-0.066
1747685036072366858,-0.056
1747685036080054606,-0.064
1747685036087742354,-0.061
1747685036095430102,-0.059000000000000004
1747685036103117850,-0.066
1747685036110805598,-0.07100000000000001
1747685036118493346,-0.079
1747685036126181094,-0.079
1747685036133868842,-0.051000000000000004
1747685036141556590,-0.032
1747685036149244338,-0.042
1747685036156932086,-0.037
1747685036164619834,-0.019
1747685036172307654,-0.032
1747685036179995681,-0.059000000000000004
1747685036187683708,-0.056
1747685036195371735,-0.049
1747685036203059762,-0.054
1747685036210747789,-0.051000000000000004
1747685036218435816,-0.044
1747685036226123843,-0.049
1747685036233811870,-0.059000000000000004
1747685036241499897,-0.059000000000000004
1747685036249187924,-0.012
1747685036256875951,0.217
1747685036264563978,0.598
1747685036272252005,0.667
1747685036279940032,0.188
1747685036287628059,-0.319
1747685036295316086,-0.378
1747685036303004113,-0.222
1747685036310692140,-0.17
1747685036318380167,-0.126
1747685036326068194,-0.047
1747685036333756221,-0.039
1747685036341444248,-0.051000000000000004
1747685036349132275,-0.034
1747685036356820302,-0.022
1747685036364508329,-0.022
1747685036372196356,-0.019
1747685036379884383,-0.012
1747685036387572410,-0.004
1747685036395260437,0.007
1747685036402948464,0.012
1747685036410636491,0.014
1747685036418324518,0.012
1747685036426012545,0.009000000000000001
1747685036433700572,0.024
1747685036441388599,0.039
1747685036449076626,0.042
1747685036456764653,0.049
1747685036464452680,0.061
1747685036472140707,0.069
1747685036479828734,0.084
1747685036487516761,0.106
1747685036495204788,0.113
1747685036502892815,0.113
1747685036510580842,0.126
1747685036518268869,0.128
1747685036525956896,0.121
1747685036533644923,0.126
1747685036541332950,0.111
1747685036549020977,0.079
1747685036556709004,0.054
1747685036564397031,0.019
1747685036572085058,-0.022
1747685036579773085,-0.056
1747685036587461112,-0.081
1747685036595149139,-0.094
1747685036602837166,-0.101
1747685036610525193,-0.106
1747685036618213220,-0.10300000000000001
1747685036625901247,-0.108
1747685036633589274,-0.113
1747685036641277301,-0.10300000000000001
1747685036648965328,-0.084
1747685036656653355,-0.081
1747685036664341382,-0.091
1747685036672029409,-0.089
1747685036679717436,-0.076
1747685036687405463,-0.084
1747685036695093490,-0.084
1747685036702781517,-0.064
1747685036710469544,-0.061
1747685036718157571,-0.07100000000000001
1747685036725845598,-0.069
1747685036733533674,-0.074,79,688
1747685036741221353,-0.079
1747685036748909032,-0.069
1747685036756596711,-0.069
1747685036764284390,-0.076
1747685036771972069,-0.07100000000000001
1747685036779659748,-0.064
1747685036787347427,-0.069
1747685036795035106,-0.074
1747685036802722785,-0.066
1747685036810410464,-0.059000000000000004
1747685036818098143,-0.059000000000000004
1747685036825785822,-0.066
1747685036833473501,-0.066
1747685036841161180,-0.059000000000000004
1747685036848848859,-0.054
1747685036856536538,-0.056
1747685036864224217,-0.059000000000000004
1747685036871911896,-0.066
1747685036879599575,-0.074
1747685036887287254,-0.064
1747685036894974933,-0.049
1747685036902662612,-0.037
1747685036910350291,-0.027
1747685036918037970,-0.027
1747685036925725649,-0.029
1747685036933413328,-0.022
1747685036941101007,-0.029
1747685036948788686,-0.047
1747685036956476365,-0.049
1747685036964164044,-0.047
1747685036971851723,-0.049
1747685036979539402,-0.047
1747685036987227081,-0.039
1747685036994914760,-0.039
1747685037002602439,-0.044
1747685037010290118,-0.051000000000000004
1747685037017977797,-0.004
1747685037025665476,0.252
1747685037033353155,0.635
1747685037041040834,0.643
1747685037048728513,0.131
1747685037056416192,-0.324
1747685037064103871,-0.34600000000000003
1747685037071791550,-0.212
1747685037079479229,-0.165
1747685037087166908,-0.108
1747685037094854587,-0.044
1747685037102542266,-0.047
1747685037110229945,-0.051000000000000004
1747685037117917624,-0.032
1747685037125605303,-0.014
1747685037133292982,-0.012
1747685037140980661,-0.017
1747685037148668340,-0.009000000000000001
1747685037156356019,0.0
1747685037164043698,0.002
1747685037171731377,0.007
1747685037179419056,0.017
1747685037187106735,0.014
1747685037194794414,0.014
1747685037202482093,0.032
1747685037210169772,0.042
1747685037217857451,0.034
1747685037225545130,0.044
1747685037233232809,0.064
1747685037240920488,0.076
1747685037248608167,0.084
1747685037256295846,0.089
1747685037263983525,0.098
1747685037271671204,0.111
1747685037279358883,0.113
1747685037287046562,0.116
1747685037294734259,0.113
1747685037302422217,0.108
1747685037310110175,0.098
1747685037317798133,0.081
1747685037325486091,0.051000000000000004
1747685037333174049,0.017
1747685037340862007,-0.012
1747685037348549965,-0.044
1747685037356237923,-0.076
1747685037363925881,-0.098
1747685037371613839,-0.108
1747685037379301797,-0.116
1747685037386989755,-0.113
1747685037394677713,-0.106
1747685037402365671,-0.111
1747685037410053629,-0.108
1747685037417741587,-0.091
1747685037425429545,-0.08600000000000001
1747685037433117503,-0.089
1747685037440805461,-0.091
1747685037448493419,-0.091
1747685037456181377,-0.089
1747685037463869335,-0.08600000000000001
1747685037471557293,-0.08600000000000001
1747685037479245251,-0.081
1747685037486933209,-0.07100000000000001
1747685037494621167,-0.069
1747685037502309125,-0.076
1747685037509997083,-0.081
1747685037517685041,-0.079
1747685037525372999,-0.079
1747685037533060957,-0.08600000000000001
1747685037540748915,-0.084
1747685037548436873,-0.079
1747685037556124831,-0.081
1747685037563812789,-0.079
1747685037571500747,-0.074
1747685037579188705,-0.074
1747685037586876663,-0.074
1747685037594564621,-0.074
1747685037602252579,-0.07100000000000001
1747685037609940537,-0.066
1747685037617628495,-0.07100000000000001
1747685037625316453,-0.066
1747685037633004411,-0.056
1747685037640692369,-0.061
1747685037648380327,-0.069
1747685037656068285,-0.061
1747685037663756243,-0.059000000000000004
1747685037671444201,-0.064
1747685037679132159,-0.054
1747685037686820117,-0.054
1747685037694508075,-0.066
1747685037702196033,-0.056
1747685037709883991,-0.042
1747685037717571949,-0.049
1747685037725259907,-0.059000000000000004
1747685037732947865,-0.061
1747685037740635823,-0.059000000000000004
1747685037748323781,-0.056
1747685037756011739,-0.054
1747685037763699697,-0.039
1747685037771387655,-0.019
1747685037779075613,-0.014
1747685037786763571,-0.017
1747685037794451529,-0.029
1747685037802139487,-0.047
1747685037809827445,-0.049
1747685037817515403,-0.042
1747685037825203361,-0.037
1747685037832891319,-0.044
1747685037840579277,-0.054
1747685037848267235,-0.051000000000000004
1747685037855955196,-0.042,80,668
1747685037863642735,-0.051000000000000004
1747685037871330274,-0.049
1747685037879017813,0.091
1747685037886705352,0.45
1747685037894392891,0.705
1747685037902080430,0.418
1747685037909767969,-0.178
1747685037917455508,-0.427
1747685037925143047,-0.289
1747685037932830586,-0.20700000000000002
1747685037940518125,-0.195
1747685037948205664,-0.08600000000000001
1747685037955893203,-0.017
1747685037963580742,-0.042
1747685037971268281,-0.042
1747685037978955820,-0.024
1747685037986643359,-0.017
1747685037994330898,-0.002
1747685038002018437,0.002
1747685038009705976,-0.012
1747685038017393515,-0.009000000000000001
1747685038025081054,0.007
1747685038032768593,0.014
1747685038040456132,0.014
1747685038048143671,0.017
1747685038055831210,0.022
1747685038063518749,0.032
1747685038071206288,0.042
1747685038078893827,0.056
1747685038086581366,0.066
1747685038094268905,0.064
1747685038101956444,0.074
1747685038109643983,0.096
1747685038117331522,0.101
1747685038125019061,0.101
1747685038132706600,0.116
1747685038140394139,0.126
1747685038148081678,0.121
1747685038155769217,0.113
1747685038163456756,0.108
1747685038171144295,0.098
1747685038178831834,0.081
1747685038186519373,0.054
1747685038194206912,0.012
1747685038201894451,-0.032
1747685038209581990,-0.066
1747685038217269529,-0.08600000000000001
1747685038224957068,-0.096
1747685038232644607,-0.106
1747685038240332146,-0.11800000000000001
1747685038248019685,-0.121
1747685038255707224,-0.113
1747685038263394763,-0.113
1747685038271082302,-0.111
1747685038278769841,-0.098
1747685038286457380,-0.094
1747685038294144919,-0.091
1747685038301832458,-0.076
1747685038309519997,-0.07100000000000001
1747685038317207536,-0.069
1747685038324895075,-0.066
1747685038332582614,-0.059000000000000004
1747685038340270153,-0.056
1747685038347957692,-0.059000000000000004
1747685038355645231,-0.064
1747685038363332770,-0.066
1747685038371020309,-0.066
1747685038378707848,-0.064
1747685038386395387,-0.061
1747685038394082926,-0.064
1747685038401770465,-0.064
1747685038409458004,-0.061
1747685038417145611,-0.061
1747685038424833290,-0.061
1747685038432520969,-0.059000000000000004
1747685038440208648,-0.061
1747685038447896327,-0.064
1747685038455584006,-0.056
1747685038463271685,-0.047
1747685038470959364,-0.051000000000000004
1747685038478647043,-0.056
1747685038486334722,-0.056
1747685038494022401,-0.049
1747685038501710080,-0.039
1747685038509397759,-0.047
1747685038517085438,-0.059000000000000004
1747685038524773117,-0.054
1747685038532460796,-0.044
1747685038540148475,-0.056
1747685038547836154,-0.064
1747685038555523833,-0.042
1747685038563211512,-0.014
1747685038570899191,-0.014
1747685038578586870,-0.022
1747685038586274549,-0.017
1747685038593962228,-0.012
1747685038601649907,-0.024
1747685038609337586,-0.039
1747685038617025265,-0.039
1747685038624712944,-0.037
1747685038632400623,-0.034
1747685038640088302,-0.034
1747685038647775981,-0.037
1747685038655463660,-0.037
1747685038663151339,-0.037
1747685038670839018,-0.022
1747685038678526697,0.133
1747685038686214376,0.514
1747685038693902055,0.732
1747685038701589734,0.368
1747685038709277413,-0.222
1747685038716965092,-0.403
1747685038724652771,-0.249
1747685038732340450,-0.18
1747685038740028129,-0.155
1747685038747715808,-0.061
1747685038755403487,-0.019
1747685038763091166,-0.034
1747685038770778845,-0.024
1747685038778466524,-0.004
1747685038786154203,0.0
1747685038793841882,0.004
1747685038801529561,0.009000000000000001
1747685038809217240,0.007
1747685038816904919,0.009000000000000001
1747685038824592598,0.019
1747685038832280277,0.029
1747685038839967956,0.032
1747685038847655635,0.034
1747685038855343314,0.039
1747685038863030993,0.044
1747685038870718672,0.054
1747685038878406351,0.061
1747685038886094030,0.069
1747685038893781709,0.076
1747685038901469388,0.089
1747685038909157067,0.106
1747685038916844746,0.121
1747685038924532425,0.131
1747685038932220104,0.133
1747685038939907783,0.136
1747685038947595462,0.14100000000000001
1747685038955283141,0.131
1747685038962970820,0.113
1747685038970658499,0.10300000000000001
1747685038978346200,0.084,81,714
1747685038986034018,0.039,,768
1747685038993721836,0.0
1747685039001409654,-0.029
1747685039009097472,-0.061
1747685039016785290,-0.08600000000000001
1747685039024473108,-0.106
1747685039032160926,-0.121
1747685039039848744,-0.113
1747685039047536562,-0.106
1747685039055224380,-0.116
1747685039062912198,-0.11800000000000001
1747685039070600016,-0.101
1747685039078287834,-0.081
1747685039085975652,-0.08600000000000001
1747685039093663470,-0.094
1747685039101351288,-0.08600000000000001
1747685039109039106,-0.081
1747685039116726924,-0.079
1747685039124414742,-0.07100000000000001
1747685039132102560,-0.07100000000000001
1747685039139790378,-0.074
1747685039147478196,-0.069
1747685039155166014,-0.059000000000000004
1747685039162853832,-0.061
1747685039170541650,-0.07100000000000001
1747685039178229468,-0.069
1747685039185917286,-0.066
1747685039193605104,-0.076
1747685039201292922,-0.076
1747685039208980740,-0.069
1747685039216668558,-0.064
1747685039224356376,-0.061
1747685039232044194,-0.056
1747685039239732012,-0.061
1747685039247419830,-0.064
1747685039255107648,-0.061
1747685039262795466,-0.064
1747685039270483284,-0.059000000000000004
1747685039278171102,-0.051000000000000004
1747685039285858920,-0.054
1747685039293546738,-0.056
1747685039301234556,-0.054
1747685039308922374,-0.051000000000000004
1747685039316610192,-0.047
1747685039324298010,-0.044
1747685039331985828,-0.051000000000000004
1747685039339673646,-0.051000000000000004
1747685039347361464,-0.044
1747685039355049282,-0.047
1747685039362737100,-0.049
1747685039370424918,-0.042
1747685039378112736,-0.042
1747685039385800554,-0.049
1747685039393488372,-0.042
1747685039401176190,-0.029
1747685039408864008,-0.034
1747685039416551826,-0.039
1747685039424239644,-0.039
1747685039431927462,-0.042
1747685039439615280,-0.039
1747685039447303098,-0.044
1747685039454990916,-0.051000000000000004
1747685039462678734,-0.042
1747685039470366552,-0.014
1747685039478054370,-0.002
1747685039485742188,-0.007
1747685039493430006,-0.004
1747685039501117824,-0.007
1747685039508805642,-0.024
1747685039516493460,-0.034
1747685039524181278,-0.027
1747685039531869096,-0.029
1747685039539556959,-0.032
1747685039547244777,-0.022
1747685039554932595,-0.022
1747685039562620413,-0.034
1747685039570308231,-0.044
1747685039577996049,-0.044
1747685039585683867,0.076
1747685039593371685,0.437
1747685039601059503,0.752
1747685039608747321,0.536
1747685039616435139,-0.059000000000000004
1747685039624122957,-0.376
1747685039631810775,-0.274
1747685039639498593,-0.18
1747685039647186411,-0.165
1747685039654874229,-0.079
1747685039662562047,-0.032
1747685039670249865,-0.059000000000000004
1747685039677937683,-0.042
1747685039685625501,-0.002
1747685039693313319,-0.014
1747685039701001137,-0.029
1747685039708688955,-0.009000000000000001
1747685039716376773,-0.002
1747685039724064591,-0.009000000000000001
1747685039731752409,-0.002
1747685039739440227,0.009000000000000001
1747685039747128045,0.007
1747685039754815863,0.004
1747685039762503681,0.014
1747685039770191499,0.029
1747685039777879317,0.037
1747685039785567135,0.034
1747685039793254953,0.039
1747685039800942771,0.054
1747685039808630589,0.069
1747685039816318407,0.081
1747685039824006225,0.08600000000000001
1747685039831694043,0.091
1747685039839381861,0.106
1747685039847069679,0.113
1747685039854757497,0.116
1747685039862445315,0.116
1747685039870133133,0.098
1747685039877820951,0.08600000000000001
1747685039885508769,0.08600000000000001
1747685039893196587,0.061
1747685039900884405,0.019
1747685039908572223,-0.014
1747685039916260041,-0.039
1747685039923947859,-0.064
1747685039931635677,-0.08600000000000001
1747685039939323495,-0.106
1747685039947011313,-0.121
1747685039954699131,-0.11800000000000001
1747685039962386949,-0.106
1747685039970074767,-0.10300000000000001
1747685039977762585,-0.108
1747685039985450403,-0.10300000000000001
1747685039993138221,-0.094
1747685040000826039,-0.094
1747685040008513857,-0.096
1747685040016201675,-0.089
1747685040023889493,-0.084
1747685040031577311,-0.08600000000000001
1747685040039265129,-0.081
1747685040046952947,-0.07100000000000001
1747685040054640765,-0.069
1747685040062328583,-0.07100000000000001
1747685040070016401,-0.079
1747685040077704219,-0.081
1747685040085392037,-0.069
1747685040093079855,-0.069
1747685040100767722,-0.084,81,857
1747685040108455401,-0.08600000000000001
1747685040116143080,-0.07100000000000001
1747685040123830759,-0.066
1747685040131518438,-0.076
1747685040139206117,-0.079
1747685040146893796,-0.07100000000000001
1747685040154581475,-0.064
1747685040162269154,-0.064
1747685040169956833,-0.069
1747685040177644512,-0.066
1747685040185332191,-0.061
1747685040193019870,-0.061
1747685040200707549,-0.066
1747685040208395228,-0.061
1747685040216082907,-0.054
1747685040223770586,-0.061
1747685040231458265,-0.066
1747685040239145944,-0.056
1747685040246833623,-0.049
1747685040254521302,-0.054
1747685040262208981,-0.054
1747685040269896660,-0.047
1747685040277584339,-0.049
1747685040285272018,-0.051000000000000004
1747685040292959697,-0.044
1747685040300647376,-0.042
1747685040308335055,-0.056
1747685040316022734,-0.059000000000000004
1747685040323710413,-0.049
1747685040331398092,-0.044
1747685040339085771,-0.044
1747685040346773450,-0.042
1747685040354461129,-0.039
1747685040362148808,-0.034
1747685040369836487,-0.044
1747685040377524166,-0.054
1747685040385211845,-0.051000000000000004
1747685040392899524,-0.044
1747685040400587203,-0.042
1747685040408274882,-0.034
1747685040415962561,-0.017
1747685040423650240,-0.014
1747685040431337919,-0.017
1747685040439025598,-0.012
1747685040446713277,-0.019
1747685040454400956,-0.034
1747685040462088635,-0.032
1747685040469776314,-0.034
1747685040477463993,-0.044
1747685040485151672,-0.039
1747685040492839351,-0.034
1747685040500527030,-0.037
1747685040508214709,-0.039
1747685040515902388,-0.049
1747685040523590067,0.004
1747685040531277746,0.28200000000000003
1747685040538965425,0.66
1747685040546653104,0.648
1747685040554340783,0.128
1747685040562028462,-0.324
1747685040569716141,-0.333
1747685040577403820,-0.2
1747685040585091499,-0.165
1747685040592779178,-0.113
1747685040600466857,-0.047
1747685040608154536,-0.047
1747685040615842215,-0.047
1747685040623529894,-0.032
1747685040631217573,-0.032
1747685040638905252,-0.027
1747685040646592931,-0.007
1747685040654280610,0.0
1747685040661968307,-0.007,80,799
1747685040669656265,-0.004
1747685040677344223,0.012
1747685040685032181,0.012
1747685040692720139,-0.002
1747685040700408097,0.004
1747685040708096055,0.029
1747685040715784013,0.032
1747685040723471971,0.032
1747685040731159929,0.047
1747685040738847887,0.056
1747685040746535845,0.064
1747685040754223803,0.074
1747685040761911761,0.08600000000000001
1747685040769599719,0.098
1747685040777287677,0.113
1747685040784975635,0.116
1747685040792663593,0.111
1747685040800351551,0.113
1747685040808039509,0.113
1747685040815727467,0.098
1747685040823415425,0.089
1747685040831103383,0.07100000000000001
1747685040838791341,0.029
1747685040846479299,0.0
1747685040854167257,-0.017
1747685040861855215,-0.054
1747685040869543173,-0.084
1747685040877231131,-0.091
1747685040884919089,-0.098
1747685040892607047,-0.106
1747685040900295005,-0.111
1747685040907982963,-0.113
1747685040915670921,-0.101
1747685040923358879,-0.096
1747685040931046837,-0.101
1747685040938734795,-0.091
1747685040946422753,-0.069
1747685040954110711,-0.08600000000000001
1747685040961798669,-0.10300000000000001
1747685040969486627,-0.081
1747685040977174585,-0.07100000000000001
1747685040984862543,-0.081
1747685040992550501,-0.076
1747685041000238459,-0.079
1747685041007926417,-0.08600000000000001
1747685041015614375,-0.074
1747685041023302333,-0.061
1747685041030990291,-0.069
1747685041038678249,-0.074
1747685041046366207,-0.074
1747685041054054165,-0.079
1747685041061742123,-0.084
1747685041069430081,-0.07100000000000001
1747685041077118039,-0.059000000000000004
1747685041084805997,-0.066
1747685041092493955,-0.07100000000000001
1747685041100181913,-0.066
1747685041107869871,-0.07100000000000001
1747685041115557829,-0.07100000000000001
1747685041123245787,-0.064
1747685041130933745,-0.061
1747685041138621703,-0.059000000000000004
1747685041146309661,-0.049
1747685041153997619,-0.049
1747685041161685577,-0.061
1747685041169373535,-0.059000000000000004
1747685041177061493,-0.047
1747685041184749451,-0.044
1747685041192437409,-0.047
1747685041200125367,-0.049
1747685041207813325,-0.047
1747685041215501283,-0.049
1747685041223189244,-0.056
1747685041230876853,-0.047
1747685041238564462,-0.037
1747685041246252071,-0.044
1747685041253939680,-0.044
1747685041261627289,-0.034
1747685041269314898,-0.039
1747685041277002507,-0.047
1747685041284690116,-0.051000000000000004
1747685041292377725,-0.054
1747685041300065334,-0.056
1747685041307752943,-0.047
1747685041315440552,-0.034
1747685041323128161,-0.014
1747685041330815770,-0.009000000000000001
1747685041338503379,-0.017
1747685041346190988,-0.012
1747685041353878597,-0.014
1747685041361566206,-0.034
1747685041369253815,-0.037
1747685041376941424,-0.037
1747685041384629033,-0.039
1747685041392316642,-0.032
1747685041400004251,-0.032
1747685041407691860,-0.039
1747685041415379469,-0.037
1747685041423067078,-0.042
1747685041430754687,-0.007
1747685041438442296,0.22
1747685041446129905,0.591
1747685041453817514,0.66
1747685041461505123,0.20700000000000002
1747685041469192732,-0.277
1747685041476880341,-0.341
1747685041484567950,-0.20700000000000002
1747685041492255559,-0.17
1747685041499943168,-0.123
1747685041507630777,-0.039
1747685041515318386,-0.034
1747685041523005995,-0.047
1747685041530693604,-0.022
1747685041538381213,-0.012
1747685041546068822,-0.017
1747685041553756431,-0.002
1747685041561444040,0.009000000000000001
1747685041569131649,0.002
1747685041576819258,0.002
1747685041584506867,0.012
1747685041592194476,0.014
1747685041599882085,0.019
1747685041607569694,0.029
1747685041615257303,0.032
1747685041622944912,0.029
1747685041630632521,0.042
1747685041638320130,0.059000000000000004
1747685041646007739,0.064
1747685041653695348,0.069
1747685041661382957,0.081
1747685041669070566,0.094
1747685041676758175,0.106
1747685041684445784,0.11800000000000001
1747685041692133393,0.123
1747685041699821002,0.128
1747685041707508611,0.123
1747685041715196220,0.111
1747685041722883829,0.10300000000000001
1747685041730571438,0.098
1747685041738259047,0.081
1747685041745946656,0.047
1747685041753634265,0.007
1747685041761321874,-0.019
1747685041769009483,-0.047
1747685041776697092,-0.081
1747685041784384746,-0.098,80,909
1747685041792072634,-0.101
1747685041799760522,-0.106
1747685041807448410,-0.108
1747685041815136298,-0.101
1747685041822824186,-0.096
1747685041830512074,-0.10300000000000001
1747685041838199962,-0.101
1747685041845887850,-0.084
1747685041853575738,-0.079
1747685041861263626,-0.08600000000000001
1747685041868951514,-0.076
1747685041876639402,-0.069
1747685041884327290,-0.084
1747685041892015178,-0.084
1747685041899703066,-0.066
1747685041907390954,-0.064
1747685041915078842,-0.061
1747685041922766730,-0.059000000000000004
1747685041930454618,-0.064
1747685041938142506,-0.07100000000000001
1747685041945830394,-0.066
1747685041953518282,-0.069
1747685041961206170,-0.084
1747685041968894058,-0.081
1747685041976581946,-0.069
1747685041984269834,-0.069
1747685041991957722,-0.069
1747685041999645610,-0.061
1747685042007333498,-0.059000000000000004
1747685042015021386,-0.069
1747685042022709274,-0.079
1747685042030397162,-0.074
1747685042038085050,-0.069
1747685042045772938,-0.064
1747685042053460826,-0.059000000000000004
1747685042061148714,-0.051000000000000004
1747685042068836602,-0.049
1747685042076524490,-0.064
1747685042084212378,-0.07100000000000001
1747685042091900266,-0.054
1747685042099588154,-0.051000000000000004
1747685042107276042,-0.064
1747685042114963930,-0.059000000000000004
1747685042122651818,-0.049
1747685042130339706,-0.049
1747685042138027594,-0.056
1747685042145715482,-0.061
1747685042153403370,-0.059000000000000004
1747685042161091258,-0.059000000000000004
1747685042168779146,-0.056
1747685042176467034,-0.042
1747685042184154922,-0.024
1747685042191842810,-0.017
1747685042199530698,-0.019
1747685042207218586,-0.027
1747685042214906474,-0.042
1747685042222594362,-0.056
1747685042230282250,-0.061
1747685042237970138,-0.059000000000000004
1747685042245658026,-0.051000000000000004
1747685042253345914,-0.037
1747685042261033802,-0.044
1747685042268721690,-0.059000000000000004
1747685042276409578,-0.059000000000000004
1747685042284097466,-0.037
1747685042291785354,0.08600000000000001
1747685042299473242,0.423
1747685042307161130,0.6900000000000001
1747685042314849018,0.41000000000000003
1747685042322536906,-0.197
1747685042330224794,-0.445
1747685042337912682,-0.304
1747685042345600592,-0.217
1747685042353288131,-0.20500000000000002
1747685042360975670,-0.108
1747685042368663209,-0.034
1747685042376350748,-0.042
1747685042384038287,-0.039
1747685042391725826,-0.017
1747685042399413365,-0.014
1747685042407100904,-0.017
1747685042414788443,-0.009000000000000001
1747685042422475982,-0.002
1747685042430163521,0.004
1747685042437851060,0.017
1747685042445538599,0.022
1747685042453226138,0.022
1747685042460913677,0.022
1747685042468601216,0.014
1747685042476288755,0.019
1747685042483976294,0.042
1747685042491663833,0.056
1747685042499351372,0.066
1747685042507038911,0.076
1747685042514726450,0.081
1747685042522413989,0.096
1747685042530101528,0.121
1747685042537789067,0.131
1747685042545476606,0.138
1747685042553164145,0.148
1747685042560851684,0.14300000000000002
1747685042568539223,0.131
1747685042576226762,0.126
1747685042583914301,0.116
1747685042591601840,0.096
1747685042599289379,0.061
1747685042606976918,0.012
1747685042614664457,-0.034
1747685042622351996,-0.061
1747685042630039535,-0.084
1747685042637727074,-0.111
1747685042645414613,-0.128
1747685042653102152,-0.126
1747685042660789691,-0.126
1747685042668477230,-0.14100000000000001
1747685042676164769,-0.14100000000000001
1747685042683852308,-0.121
1747685042691539847,-0.111
1747685042699227386,-0.111
1747685042706914925,-0.10300000000000001
1747685042714602464,-0.091
1747685042722290003,-0.081
1747685042729977542,-0.076
1747685042737665081,-0.074
1747685042745352620,-0.07100000000000001
1747685042753040159,-0.07100000000000001
1747685042760727698,-0.07100000000000001
1747685042768415237,-0.07100000000000001
1747685042776102776,-0.07100000000000001
1747685042783790315,-0.069
1747685042791477854,-0.076
1747685042799165393,-0.081
1747685042806852932,-0.074
1747685042814540471,-0.069
1747685042822228010,-0.079
1747685042829915549,-0.079
1747685042837603088,-0.07100000000000001
1747685042845290627,-0.064
1747685042852978166,-0.07100000000000001
1747685042860665705,-0.074
1747685042868353244,-0.066
1747685042876040783,-0.066
1747685042883728322,-0.061
1747685042891415861,-0.049
1747685042899103400,-0.054
1747685042906791007,-0.066,79,940
1747685042914478825,-0.061
1747685042922166643,-0.056
1747685042929854461,-0.064
1747685042937542279,-0.059000000000000004
1747685042945230097,-0.039
1747685042952917915,-0.022
1747685042960605733,-0.019
1747685042968293551,-0.022
1747685042975981369,-0.014
1747685042983669187,-0.014
1747685042991357005,-0.034
1747685042999044823,-0.051000000000000004
1747685043006732641,-0.051000000000000004
1747685043014420459,-0.042
1747685043022108277,-0.042
1747685043029796095,-0.044
1747685043037483913,-0.034
1747685043045171731,-0.032
1747685043052859549,-0.032
1747685043060547367,0.081
1747685043068235185,0.432
1747685043075923003,0.742
1747685043083610821,0.467
1747685043091298639,-0.183
1747685043098986457,-0.445
1747685043106674275,-0.28600000000000003
1747685043114362093,-0.20700000000000002
1747685043122049911,-0.197
1747685043129737729,-0.07100000000000001
1747685043137425547,0.009000000000000001
1747685043145113365,-0.019
1747685043152801183,-0.017
1747685043160489001,0.007
1747685043168176819,-0.002
1747685043175864637,0.004
1747685043183552455,0.027
1747685043191240273,0.029
1747685043198928091,0.032
1747685043206615909,0.049
1747685043214303727,0.049
1747685043221991545,0.039
1747685043229679363,0.054
1747685043237367181,0.076
1747685043245054999,0.07100000000000001
1747685043252742817,0.066
1747685043260430635,0.091
1747685043268118453,0.108
1747685043275806271,0.108
1747685043283494089,0.123
1747685043291181907,0.15
1747685043298869725,0.165
1747685043306557543,0.17
1747685043314245361,0.17500000000000002
1747685043321933179,0.18
1747685043329620997,0.183
1747685043337308815,0.17300000000000001
1747685043344996633,0.163
1747685043352684451,0.15
1747685043360372269,0.123
1747685043368060087,0.084
1747685043375747905,0.047
1747685043383435723,-0.007
1747685043391123541,-0.054
1747685043398811359,-0.066
1747685043406499177,-0.081
1747685043414186995,-0.106
1747685043421874813,-0.113
1747685043429562631,-0.108
1747685043437250449,-0.108
1747685043444938267,-0.106
1747685043452626085,-0.098
1747685043460313903,-0.089
1747685043468001770,-0.084
1747685043475689449,-0.091
1747685043483377128,-0.089
1747685043491064807,-0.07100000000000001
1747685043498752486,-0.056
1747685043506440165,-0.064
1747685043514127844,-0.064
1747685043521815523,-0.051000000000000004
1747685043529503202,-0.049
1747685043537190881,-0.059000000000000004
1747685043544878560,-0.064
1747685043552566239,-0.061
1747685043560253918,-0.061
1747685043567941597,-0.064
1747685043575629276,-0.064
1747685043583316955,-0.061
1747685043591004634,-0.056
1747685043598692313,-0.056
1747685043606379992,-0.066
1747685043614067671,-0.07100000000000001
1747685043621755350,-0.066
1747685043629443029,-0.061
1747685043637130708,-0.061
1747685043644818387,-0.059000000000000004
1747685043652506066,-0.051000000000000004
1747685043660193745,-0.047
1747685043667881424,-0.056
1747685043675569103,-0.061
1747685043683256782,-0.051000000000000004
1747685043690944461,-0.054
1747685043698632140,-0.064
1747685043706319819,-0.056
1747685043714007498,-0.042
1747685043721695177,-0.039
1747685043729382856,-0.032
1747685043737070535,-0.022
1747685043744758214,-0.019
1747685043752445893,-0.014
1747685043760133572,-0.024
1747685043767821251,-0.042
1747685043775508930,-0.039
1747685043783196609,-0.032
1747685043790884288,-0.039
1747685043798571967,-0.049
1747685043806259646,-0.049
1747685043813947325,-0.042
1747685043821635004,-0.042
1747685043829322683,-0.047
1747685043837010362,0.032
1747685043844698041,0.336
1747685043852385720,0.7000000000000001
1747685043860073399,0.62
1747685043867761078,0.054
1747685043875448757,-0.368
1747685043883136436,-0.338
1747685043890824115,-0.202
1747685043898511794,-0.168
1747685043906199473,-0.098
1747685043913887152,-0.027
1747685043921574831,-0.039
1747685043929262510,-0.054
1747685043936950189,-0.029
1747685043944637868,-0.014
1747685043952325547,-0.012
1747685043960013226,0.0
1747685043967700905,0.009000000000000001
1747685043975388584,0.002
1747685043983076263,0.002
1747685043990763942,0.012
1747685043998451621,0.017
1747685044006139300,0.014
1747685044013826979,0.017
1747685044021514658,0.027
1747685044029202355,0.037,76,908
1747685044036890312,0.047,,856
1747685044044578269,0.059000000000000004
1747685044052266226,0.07100000000000001
1747685044059954183,0.074
1747685044067642140,0.081
1747685044075330097,0.10300000000000001
1747685044083018054,0.121
1747685044090706011,0.121
1747685044098393968,0.11800000000000001
1747685044106081925,0.128
1747685044113769882,0.136
1747685044121457839,0.133
1747685044129145796,0.121
1747685044136833753,0.094
1747685044144521710,0.059000000000000004
1747685044152209667,0.027
1747685044159897624,-0.009000000000000001
1747685044167585581,-0.047
1747685044175273538,-0.074
1747685044182961495,-0.08600000000000001
1747685044190649452,-0.094
1747685044198337409,-0.108
1747685044206025366,-0.11800000000000001
1747685044213713323,-0.108
1747685044221401280,-0.096
1747685044229089237,-0.101
1747685044236777194,-0.10300000000000001
1747685044244465151,-0.094
1747685044252153108,-0.084
1747685044259841065,-0.079
1747685044267529022,-0.076
1747685044275216979,-0.074
1747685044282904936,-0.07100000000000001
1747685044290592893,-0.07100000000000001
1747685044298280850,-0.069
1747685044305968807,-0.064
1747685044313656764,-0.066
1747685044321344721,-0.074
1747685044329032678,-0.074
1747685044336720635,-0.066
1747685044344408592,-0.066
1747685044352096549,-0.079
1747685044359784506,-0.084
1747685044367472463,-0.07100000000000001
1747685044375160420,-0.066
1747685044382848377,-0.07100000000000001
1747685044390536334,-0.079
1747685044398224291,-0.076
1747685044405912248,-0.066
1747685044413600205,-0.069
1747685044421288162,-0.07100000000000001
1747685044428976119,-0.07100000000000001
1747685044436664076,-0.066
1747685044444352033,-0.066
1747685044452039990,-0.074
1747685044459727947,-0.076
1747685044467415904,-0.076
1747685044475103861,-0.076
1747685044482791818,-0.069
1747685044490479775,-0.051000000000000004
1747685044498167732,-0.032
1747685044505855689,-0.029
1747685044513543646,-0.042
1747685044521231603,-0.037
1747685044528919560,-0.034
1747685044536607517,-0.056
1747685044544295474,-0.066
1747685044551983431,-0.054
1747685044559671388,-0.056
1747685044567359345,-0.059000000000000004
1747685044575047302,-0.051000000000000004
1747685044582735259,-0.047
1747685044590423288,-0.059000000000000004,75,769
1747685044598110897,-0.07100000000000001
1747685044605798506,-0.024
1747685044613486115,0.20700000000000002
1747685044621173724,0.593
1747685044628861333,0.672
1747685044636548942,0.195
1747685044644236551,-0.311
1747685044651924160,-0.38
1747685044659611769,-0.242
1747685044667299378,-0.192
1747685044674986987,-0.133
1747685044682674596,-0.047
1747685044690362205,-0.044
1747685044698049814,-0.056
1747685044705737423,-0.032
1747685044713425032,-0.024
1747685044721112641,-0.029
1747685044728800250,-0.017
1747685044736487859,-0.002
1747685044744175468,-0.004
1747685044751863077,-0.004
1747685044759550686,0.004
1747685044767238295,0.009000000000000001
1747685044774925904,0.014
1747685044782613513,0.024
1747685044790301122,0.029
1747685044797988731,0.032
1747685044805676340,0.034
1747685044813363949,0.042
1747685044821051558,0.054
1747685044828739167,0.07100000000000001
1747685044836426776,0.08600000000000001
1747685044844114385,0.098
1747685044851801994,0.113
1747685044859489603,0.121
1747685044867177212,0.123
1747685044874864821,0.128
1747685044882552430,0.128
1747685044890240039,0.123
1747685044897927648,0.113
1747685044905615257,0.101
1747685044913302866,0.07100000000000001
1747685044920990475,0.027
1747685044928678084,-0.009000000000000001
1747685044936365693,-0.047
1747685044944053302,-0.079
1747685044951740911,-0.098
1747685044959428520,-0.108
1747685044967116129,-0.113
1747685044974803738,-0.113
1747685044982491347,-0.111
1747685044990178956,-0.113
1747685044997866565,-0.111
1747685045005554174,-0.108
1747685045013241783,-0.106
1747685045020929392,-0.10300000000000001
1747685045028617001,-0.098
1747685045036304610,-0.094
1747685045043992219,-0.08600000000000001
1747685045051679828,-0.076
1747685045059367437,-0.076
1747685045067055046,-0.076
1747685045074742655,-0.074
1747685045082430264,-0.079
1747685045090117873,-0.084
1747685045097805482,-0.076
1747685045105493091,-0.074
1747685045113180700,-0.081
1747685045120868309,-0.079
1747685045128555918,-0.07100000000000001
1747685045136243527,-0.074
1747685045143931136,-0.084
1747685045151618794,-0.081
1747685045159306682,-0.07100000000000001
1747685045166994570,-0.076
1747685045174682458,-0.081
1747685045182370346,-0.074
1747685045190058234,-0.064
1747685045197746122,-0.064
1747685045205434010,-0.069
1747685045213121898,-0.07100000000000001
1747685045220809786,-0.074
1747685045228497674,-0.076
1747685045236185562,-0.074
1747685045243873450,-0.07100000000000001
1747685045251561338,-0.076
1747685045259249226,-0.074
1747685045266937114,-0.066
1747685045274625002,-0.044
1747685045282312890,-0.032
1747685045290000778,-0.037
1747685045297688666,-0.034
1747685045305376554,-0.037
1747685045313064442,-0.047
1747685045320752330,-0.056
1747685045328440218,-0.069
1747685045336128106,-0.07100000000000001
1747685045343815994,-0.061
1747685045351503882,-0.056
1747685045359191770,-0.061
1747685045366879658,-0.056
1747685045374567546,-0.056
1747685045382255434,-0.039
1747685045389943322,0.128
1747685045397631210,0.512
1747685045405319098,0.7000000000000001
1747685045413006986,0.279
1747685045420694874,-0.304
1747685045428382762,-0.435
1747685045436070650,-0.277
1747685045443758538,-0.225
1747685045451446426,-0.197
1747685045459134314,-0.08600000000000001
1747685045466822202,-0.037
1747685045474510090,-0.061
1747685045482197978,-0.054
1747685045489885866,-0.027
1747685045497573754,-0.022
1747685045505261642,-0.022
1747685045512949530,-0.017
1747685045520637418,-0.014
1747685045528325306,-0.007
1747685045536013194,-0.002
1747685045543701082,0.0
1747685045551388970,0.009000000000000001
1747685045559076858,0.014
1747685045566764746,0.017
1747685045574452634,0.024
1747685045582140522,0.039
1747685045589828410,0.054
1747685045597516298,0.064
1747685045605204186,0.07100000000000001
1747685045612892074,0.081
1747685045620579962,0.096
1747685045628267850,0.113
1747685045635955738,0.126
1747685045643643626,0.136
1747685045651331514,0.14100000000000001
1747685045659019402,0.136
1747685045666707290,0.133
1747685045674395178,0.131
1747685045682083066,0.108
1747685045689770954,0.069
1747685045697458842,0.032
1747685045705146730,0.002
1747685045712834640,-0.039,75,778
1747685045720522179,-0.08600000000000001
1747685045728209718,-0.108
1747685045735897257,-0.126
1747685045743584796,-0.136
1747685045751272335,-0.131
1747685045758959874,-0.133
1747685045766647413,-0.14100000000000001
1747685045774334952,-0.126
1747685045782022491,-0.111
1747685045789710030,-0.111
1747685045797397569,-0.113
1747685045805085108,-0.098
1747685045812772647,-0.091
1747685045820460186,-0.089
1747685045828147725,-0.081
1747685045835835264,-0.07100000000000001
1747685045843522803,-0.069
1747685045851210342,-0.074
1747685045858897881,-0.079
1747685045866585420,-0.074
1747685045874272959,-0.066
1747685045881960498,-0.066
1747685045889648037,-0.066
1747685045897335576,-0.069
1747685045905023115,-0.079
1747685045912710654,-0.081
1747685045920398193,-0.074
1747685045928085732,-0.076
1747685045935773271,-0.074
1747685045943460810,-0.07100000000000001
1747685045951148349,-0.074
1747685045958835888,-0.066
1747685045966523427,-0.064
1747685045974210966,-0.07100000000000001
1747685045981898505,-0.074
1747685045989586044,-0.07100000000000001
1747685045997273583,-0.07100000000000001
1747685046004961122,-0.051000000000000004
1747685046012648661,-0.034
1747685046020336200,-0.044
1747685046028023739,-0.042
1747685046035711278,-0.027
1747685046043398817,-0.039
1747685046051086356,-0.056
1747685046058773895,-0.054
1747685046066461434,-0.056
1747685046074148973,-0.064
1747685046081836512,-0.054
1747685046089524051,-0.044
1747685046097211590,-0.054
1747685046104899129,-0.066
1747685046112586668,-0.074
1747685046120274207,-0.022
1747685046127961746,0.23900000000000002
1747685046135649285,0.64
1747685046143336824,0.638
1747685046151024363,0.061
1747685046158711902,-0.418
1747685046166399441,-0.378
1747685046174086980,-0.227
1747685046181774519,-0.22
1747685046189462058,-0.155
1747685046197149597,-0.049
1747685046204837136,-0.044
1747685046212524675,-0.054
1747685046220212214,-0.024
1747685046227899753,-0.012
1747685046235587292,-0.017
1747685046243274831,-0.014
1747685046250962370,-0.007
1747685046258649909,-0.002
1747685046266337448,0.004
1747685046274025055,0.004
1747685046281712873,0.007
1747685046289400691,0.014
1747685046297088509,0.027
1747685046304776327,0.034
1747685046312464145,0.037
1747685046320151963,0.042
1747685046327839781,0.049
1747685046335527599,0.061
1747685046343215417,0.074
1747685046350903235,0.089
1747685046358591053,0.10300000000000001
1747685046366278871,0.11800000000000001
1747685046373966689,0.131
1747685046381654507,0.138
1747685046389342325,0.14300000000000002
1747685046397030143,0.14100000000000001
1747685046404717961,0.131
1747685046412405779,0.11800000000000001
1747685046420093597,0.10300000000000001
1747685046427781415,0.066
1747685046435469233,0.012
1747685046443157051,-0.029
1747685046450844869,-0.054
1747685046458532687,-0.074
1747685046466220505,-0.094
1747685046473908323,-0.108
1747685046481596141,-0.11800000000000001
1747685046489283959,-0.126
1747685046496971777,-0.121
1747685046504659595,-0.111
1747685046512347413,-0.113
1747685046520035231,-0.11800000000000001
1747685046527723049,-0.10300000000000001
1747685046535410867,-0.08600000000000001
1747685046543098685,-0.08600000000000001
1747685046550786503,-0.089
1747685046558474321,-0.076
1747685046566162139,-0.066
1747685046573849957,-0.066
1747685046581537775,-0.07100000000000001
1747685046589225593,-0.076
1747685046596913411,-0.076
1747685046604601229,-0.07100000000000001
1747685046612289047,-0.064
1747685046619976865,-0.066
1747685046627664683,-0.074
1747685046635352501,-0.074
1747685046643040319,-0.074
1747685046650728137,-0.074
1747685046658415955,-0.07100000000000001
1747685046666103773,-0.069
1747685046673791591,-0.066
1747685046681479409,-0.066
1747685046689167227,-0.069
1747685046696855045,-0.064
1747685046704542863,-0.059000000000000004
1747685046712230681,-0.069
1747685046719918499,-0.076
1747685046727606317,-0.069
1747685046735294135,-0.064
1747685046742981953,-0.069
1747685046750669771,-0.069
1747685046758357589,-0.064
1747685046766045407,-0.054
1747685046773733225,-0.032
1747685046781421043,-0.019
1747685046789108861,-0.019
1747685046796796679,-0.022
1747685046804484497,-0.029
1747685046812172315,-0.044
1747685046819860133,-0.049
1747685046827547951,-0.042
1747685046835235818,-0.037,75,771
1747685046842923497,-0.039
1747685046850611176,-0.039
1747685046858298855,-0.034
1747685046865986534,-0.039
1747685046873674213,-0.051000000000000004
1747685046881361892,-0.009000000000000001
1747685046889049571,0.23900000000000002
1747685046896737250,0.638
1747685046904424929,0.6900000000000001
1747685046912112608,0.18
1747685046919800287,-0.333
1747685046927487966,-0.38
1747685046935175645,-0.22
1747685046942863324,-0.17300000000000001
1747685046950551003,-0.126
1747685046958238682,-0.047
1747685046965926361,-0.042
1747685046973614040,-0.056
1747685046981301719,-0.032
1747685046988989398,-0.019
1747685046996677077,-0.019
1747685047004364756,-0.014
1747685047012052435,-0.012
1747685047019740114,-0.009000000000000001
1747685047027427793,0.004
1747685047035115472,0.009000000000000001
1747685047042803151,0.009000000000000001
1747685047050490830,0.019
1747685047058178509,0.027
1747685047065866188,0.027
1747685047073553867,0.034
1747685047081241546,0.039
1747685047088929225,0.049
1747685047096616904,0.07100000000000001
1747685047104304583,0.089
1747685047111992262,0.094
1747685047119679941,0.106
1747685047127367620,0.121
1747685047135055299,0.126
1747685047142742978,0.128
1747685047150430657,0.133
1747685047158118336,0.136
1747685047165806015,0.131
1747685047173493694,0.126
1747685047181181373,0.108
1747685047188869052,0.079
1747685047196556731,0.044
1747685047204244410,0.002
1747685047211932089,-0.039
1747685047219619768,-0.064
1747685047227307447,-0.076
1747685047234995126,-0.089
1747685047242682805,-0.10300000000000001
1747685047250370484,-0.106
1747685047258058163,-0.101
1747685047265745842,-0.098
1747685047273433521,-0.098
1747685047281121200,-0.096
1747685047288808879,-0.091
1747685047296496558,-0.081
1747685047304184237,-0.07100000000000001
1747685047311871916,-0.074
1747685047319559595,-0.074
1747685047327247274,-0.064
1747685047334934953,-0.066
1747685047342622632,-0.07100000000000001
1747685047350310311,-0.066
1747685047357997990,-0.064
1747685047365685669,-0.066
1747685047373373348,-0.061
1747685047381061027,-0.061
1747685047388748706,-0.066
1747685047396436403,-0.066
1747685047404124361,-0.064
1747685047411812319,-0.061
1747685047419500277,-0.064
1747685047427188235,-0.066
1747685047434876193,-0.064
1747685047442564151,-0.061
1747685047450252109,-0.054
1747685047457940067,-0.049
1747685047465628025,-0.056
1747685047473315983,-0.056
1747685047481003941,-0.047
1747685047488691899,-0.044
1747685047496379857,-0.054
1747685047504067815,-0.061
1747685047511755773,-0.061
1747685047519443731,-0.051000000000000004
1747685047527131689,-0.032
1747685047534819647,-0.027
1747685047542507605,-0.027
1747685047550195563,-0.012
1747685047557883521,-0.014
1747685047565571479,-0.037
1747685047573259437,-0.044
1747685047580947395,-0.042
1747685047588635353,-0.047
1747685047596323311,-0.049
1747685047604011269,-0.044
1747685047611699227,-0.037
1747685047619387185,-0.034
1747685047627075143,-0.047
1747685047634763101,-0.059000000000000004
1747685047642451059,0.002
1747685047650139017,0.28200000000000003
1747685047657826975,0.66
1747685047665514933,0.635
1747685047673202891,0.084
1747685047680890849,-0.373
1747685047688578807,-0.356
1747685047696266765,-0.21
1747685047703954723,-0.18
1747685047711642681,-0.113
1747685047719330639,-0.032
1747685047727018597,-0.039
1747685047734706555,-0.049
1747685047742394513,-0.019
1747685047750082471,-0.009000000000000001
1747685047757770429,-0.014
1747685047765458387,0.0
1747685047773146345,0.007
1747685047780834303,0.002
1747685047788522261,0.002
1747685047796210219,0.014
1747685047803898177,0.019
1747685047811586135,0.027
1747685047819274093,0.029
1747685047826962051,0.027
1747685047834650009,0.037
1747685047842337967,0.051000000000000004
1747685047850025925,0.056
1747685047857713883,0.069
1747685047865401841,0.08600000000000001
1747685047873089799,0.098
1747685047880777757,0.108
1747685047888465715,0.123
1747685047896153673,0.133
1747685047903841631,0.131
1747685047911529589,0.131
1747685047919217547,0.138
1747685047926905505,0.133
1747685047934593463,0.123
1747685047942281421,0.108
1747685047949969379,0.079
1747685047957657340,0.029,76,778
1747685047965344949,-0.012,,735
1747685047973032558,-0.039
1747685047980720167,-0.07100000000000001
1747685047988407776,-0.096
1747685047996095385,-0.108
1747685048003782994,-0.116
1747685048011470603,-0.116
1747685048019158212,-0.106
1747685048026845821,-0.098
1747685048034533430,-0.098
1747685048042221039,-0.101
1747685048049908648,-0.101
1747685048057596257,-0.094
1747685048065283866,-0.084
1747685048072971475,-0.081
1747685048080659084,-0.081
1747685048088346693,-0.076
1747685048096034302,-0.074
1747685048103721911,-0.084
1747685048111409520,-0.08600000000000001
1747685048119097129,-0.076
1747685048126784738,-0.07100000000000001
1747685048134472347,-0.079
1747685048142159956,-0.074
1747685048149847565,-0.069
1747685048157535174,-0.069
1747685048165222783,-0.064
1747685048172910392,-0.064
1747685048180598001,-0.076
1747685048188285610,-0.079
1747685048195973219,-0.076
1747685048203660828,-0.079
1747685048211348437,-0.079
1747685048219036046,-0.066
1747685048226723655,-0.061
1747685048234411264,-0.07100000000000001
1747685048242098873,-0.064
1747685048249786482,-0.054
1747685048257474091,-0.07100000000000001
1747685048265161700,-0.094
1747685048272849309,-0.084
1747685048280536918,-0.061
1747685048288224527,-0.042
1747685048295912136,-0.029
1747685048303599745,-0.037
1747685048311287354,-0.037
1747685048318974963,-0.032
1747685048326662572,-0.039
1747685048334350181,-0.054
1747685048342037790,-0.064
1747685048349725399,-0.066
1747685048357413008,-0.064
1747685048365100617,-0.054
1747685048372788226,-0.044
1747685048380475835,-0.056
1747685048388163444,-0.079
1747685048395851053,-0.059000000000000004
1747685048403538662,0.101
1747685048411226271,0.47500000000000003
1747685048418913880,0.707
1747685048426601489,0.376
1747685048434289098,-0.20700000000000002
1747685048441976707,-0.40800000000000003
1747685048449664316,-0.269
1747685048457351925,-0.19
1747685048465039534,-0.155
1747685048472727143,-0.064
1747685048480414752,-0.037
1747685048488102361,-0.059000000000000004
1747685048495789970,-0.044
1747685048503477579,-0.027
1747685048511165188,-0.029
1747685048518852842,-0.017
1747685048526540730,-0.007
1747685048534228618,-0.009000000000000001
1747685048541916506,-0.007
1747685048549604394,0.004
1747685048557292282,0.004
1747685048564980170,0.0
1747685048572668058,0.007
1747685048580355946,0.022
1747685048588043834,0.029
1747685048595731722,0.034
1747685048603419610,0.039
1747685048611107498,0.051000000000000004
1747685048618795386,0.061
1747685048626483274,0.069
1747685048634171162,0.08600000000000001
1747685048641859050,0.101
1747685048649546938,0.106
1747685048657234826,0.106
1747685048664922714,0.111
1747685048672610602,0.11800000000000001
1747685048680298490,0.11800000000000001
1747685048687986378,0.11800000000000001
1747685048695674266,0.10300000000000001
1747685048703362154,0.07100000000000001
1747685048711050042,0.044
1747685048718737930,0.009000000000000001
1747685048726425818,-0.044
1747685048734113706,-0.076
1747685048741801594,-0.08600000000000001
1747685048749489482,-0.108
1747685048757177370,-0.11800000000000001
1747685048764865258,-0.108
1747685048772553146,-0.111
1747685048780241034,-0.116
1747685048787928922,-0.106
1747685048795616810,-0.098
1747685048803304698,-0.096
1747685048810992586,-0.098
1747685048818680474,-0.098
1747685048826368362,-0.094
1747685048834056250,-0.081
1747685048841744138,-0.081
1747685048849432026,-0.094
1747685048857119914,-0.091
1747685048864807802,-0.079
1747685048872495690,-0.079
1747685048880183578,-0.084
1747685048887871466,-0.076
1747685048895559354,-0.076
1747685048903247242,-0.08600000000000001
1747685048910935130,-0.08600000000000001
1747685048918623018,-0.084
1747685048926310906,-0.091
1747685048933998794,-0.089
1747685048941686682,-0.081
1747685048949374570,-0.084
1747685048957062458,-0.08600000000000001
1747685048964750346,-0.081
1747685048972438234,-0.079
1747685048980126122,-0.074
1747685048987814010,-0.074
1747685048995501898,-0.081
1747685049003189786,-0.091
1747685049010877674,-0.08600000000000001
1747685049018565562,-0.079
1747685049026253450,-0.07100000000000001
1747685049033941338,-0.054
1747685049041629226,-0.034
1747685049049317114,-0.037
1747685049057005002,-0.042
1747685049064692890,-0.032
1747685049072380778,-0.039
1747685049080068688,-0.066,76,762
1747685049087756436,-0.076
1747685049095444184,-0.064
1747685049103131932,-0.059000000000000004
1747685049110819680,-0.059000000000000004
1747685049118507428,-0.056
1747685049126195176,-0.064
1747685049133882924,-0.07100000000000001
1747685049141570672,-0.07100000000000001
1747685049149258420,-0.002
1747685049156946168,0.28200000000000003
1747685049164633916,0.633
1747685049172321664,0.549
1747685049180009412,-0.002
1747685049187697160,-0.39
1747685049195384908,-0.338
1747685049203072656,-0.20700000000000002
1747685049210760404,-0.185
1747685049218448152,-0.126
1747685049226135900,-0.059000000000000004
1747685049233823648,-0.064
1747685049241511396,-0.064
1747685049249199144,-0.037
1747685049256886892,-0.034
1747685049264574640,-0.037
1747685049272262388,-0.019
1747685049279950136,-0.007
1747685049287637884,-0.007
1747685049295325632,-0.009000000000000001
1747685049303013380,-0.004
1747685049310701128,-0.004
1747685049318388876,-0.002
1747685049326076624,0.007
1747685049333764372,0.014
1747685049341452120,0.027
1747685049349139868,0.037
1747685049356827616,0.034
1747685049364515364,0.047
1747685049372203112,0.07100000000000001
1747685049379890860,0.08600000000000001
1747685049387578608,0.08600000000000001
1747685049395266356,0.094
1747685049402954104,0.106
1747685049410641852,0.113
1747685049418329600,0.11800000000000001
1747685049426017348,0.106
1747685049433705096,0.096
1747685049441392844,0.098
1747685049449080592,0.079
1747685049456768340,0.034
1747685049464456088,0.002
1747685049472143836,-0.019
1747685049479831584,-0.054
1747685049487519332,-0.094
1747685049495207080,-0.108
1747685049502894828,-0.113
1747685049510582576,-0.123
1747685049518270324,-0.121
1747685049525958072,-0.113
1747685049533645820,-0.116
1747685049541333568,-0.121
1747685049549021316,-0.111
1747685049556709064,-0.101
1747685049564396812,-0.098
1747685049572084560,-0.096
1747685049579772308,-0.094
1747685049587460056,-0.08600000000000001
1747685049595147804,-0.084
1747685049602835552,-0.08600000000000001
1747685049610523300,-0.089
1747685049618211048,-0.091
1747685049625898796,-0.096
1747685049633586544,-0.094
1747685049641274364,-0.084,77,760
1747685049648962112,-0.084
1747685049656649860,-0.094
1747685049664337608,-0.101
1747685049672025356,-0.094
1747685049679713104,-0.084
1747685049687400852,-0.08600000000000001
1747685049695088600,-0.096
1747685049702776348,-0.091
1747685049710464096,-0.076
1747685049718151844,-0.08600000000000001
1747685049725839592,-0.098
1747685049733527340,-0.094
1747685049741215088,-0.101
1747685049748902836,-0.094
1747685049756590584,-0.064
1747685049764278332,-0.054
1747685049771966080,-0.056
1747685049779653828,-0.044
1747685049787341576,-0.039
1747685049795029324,-0.059000000000000004
1747685049802717072,-0.07100000000000001
1747685049810404820,-0.07100000000000001
1747685049818092568,-0.064
1747685049825780316,-0.069
1747685049833468064,-0.079
1747685049841155812,-0.079
1747685049848843560,-0.064
1747685049856531308,-0.069
1747685049864219056,-0.081
1747685049871906804,-0.019
1747685049879594552,0.244
1747685049887282300,0.601
1747685049894970048,0.551
1747685049902657796,0.002
1747685049910345544,-0.41300000000000003
1747685049918033292,-0.366
1747685049925721040,-0.23
1747685049933408788,-0.212
1747685049941096536,-0.14100000000000001
1747685049948784284,-0.044
1747685049956472032,-0.051000000000000004
1747685049964159780,-0.079
1747685049971847528,-0.051000000000000004
1747685049979535276,-0.024
1747685049987223024,-0.027
1747685049994910772,-0.024
1747685050002598520,-0.017
1747685050010286268,-0.014
1747685050017974016,-0.017
1747685050025661764,-0.014
1747685050033349512,-0.007
1747685050041037260,0.009000000000000001
1747685050048725008,0.017
1747685050056412756,0.012
1747685050064100504,0.019
1747685050071788252,0.032
1747685050079476000,0.037
1747685050087163748,0.044
1747685050094851496,0.056
1747685050102539244,0.061
1747685050110226992,0.07100000000000001
1747685050117914740,0.091
1747685050125602488,0.10300000000000001
1747685050133290236,0.096
1747685050140977984,0.091
1747685050148665732,0.096
1747685050156353480,0.094
1747685050164041228,0.081
1747685050171728976,0.064
1747685050179416724,0.034
1747685050187104472,-0.002
1747685050194792220,-0.037
1747685050202480036,-0.07100000000000001
1747685050210167924,-0.101
1747685050217855812,-0.11800000000000001
1747685050225543700,-0.128
1747685050233231588,-0.133
1747685050240919476,-0.136
1747685050248607364,-0.128
1747685050256295252,-0.123
1747685050263983140,-0.123
1747685050271671028,-0.11800000000000001
1747685050279358916,-0.108
1747685050287046804,-0.106
1747685050294734692,-0.113
1747685050302422580,-0.111
1747685050310110468,-0.098
1747685050317798356,-0.094
1747685050325486244,-0.096
1747685050333174132,-0.096
1747685050340862020,-0.096
1747685050348549908,-0.091
1747685050356237796,-0.094
1747685050363925684,-0.10300000000000001
1747685050371613572,-0.108
1747685050379301460,-0.098
1747685050386989348,-0.094
1747685050394677236,-0.096
1747685050402365124,-0.096
1747685050410053012,-0.084
1747685050417740900,-0.084
1747685050425428788,-0.101
1747685050433116676,-0.116
1747685050440804564,-0.108
1747685050448492452,-0.096
1747685050456180340,-0.08600000000000001
1747685050463868228,-0.064
1747685050471556116,-0.049
1747685050479244004,-0.054
1747685050486931892,-0.056
1747685050494619780,-0.064
1747685050502307668,-0.081
1747685050509995556,-0.084
1747685050517683444,-0.081
1747685050525371332,-0.081
1747685050533059220,-0.076
1747685050540747108,-0.074
1747685050548434996,-0.081
1747685050556122884,-0.089
1747685050563810772,-0.081
1747685050571498660,-0.037
1747685050579186548,0.155
1747685050586874436,0.502
1747685050594562324,0.593
1747685050602250212,0.138
1747685050609938100,-0.368
1747685050617625988,-0.43
1747685050625313876,-0.277
1747685050633001764,-0.225
1747685050640689652,-0.163
1747685050648377540,-0.064
1747685050656065428,-0.054
1747685050663753316,-0.074
1747685050671441204,-0.051000000000000004
1747685050679129092,-0.032
1747685050686816980,-0.027
1747685050694504868,-0.017
1747685050702192756,-0.014
1747685050709880644,-0.024
1747685050717568532,-0.027
1747685050725256420,-0.012
1747685050732944308,-0.002
1747685050740632196,0.002
1747685050748320084,0.009000000000000001
1747685050756007972,0.014
1747685050763695886,0.029,77,757
1747685050771383495,0.049,,749
1747685050779071104,0.042
1747685050786758713,0.039
1747685050794446322,0.056
1747685050802133931,0.079
1747685050809821540,0.091
1747685050817509149,0.096
1747685050825196758,0.10300000000000001
1747685050832884367,0.11800000000000001
1747685050840571976,0.11800000000000001
1747685050848259585,0.101
1747685050855947194,0.096
1747685050863634803,0.094
1747685050871322412,0.069
1747685050879010021,0.034
1747685050886697630,0.0
1747685050894385239,-0.039
1747685050902072848,-0.079
1747685050909760457,-0.098
1747685050917448066,-0.116
1747685050925135675,-0.14300000000000002
1747685050932823284,-0.148
1747685050940510893,-0.14100000000000001
1747685050948198502,-0.14300000000000002
1747685050955886111,-0.145
1747685050963573720,-0.131
1747685050971261329,-0.121
1747685050978948938,-0.11800000000000001
1747685050986636547,-0.111
1747685050994324156,-0.106
1747685051002011765,-0.111
1747685051009699374,-0.116
1747685051017386983,-0.108
1747685051025074592,-0.106
1747685051032762201,-0.106
1747685051040449810,-0.101
1747685051048137419,-0.111
1747685051055825028,-0.121
1747685051063512637,-0.108
1747685051071200246,-0.098
1747685051078887855,-0.10300000000000001
1747685051086575464,-0.111
1747685051094263073,-0.111
1747685051101950682,-0.111
1747685051109638291,-0.111
1747685051117325900,-0.10300000000000001
1747685051125013509,-0.111
1747685051132701118,-0.116
1747685051140388727,-0.091
1747685051148076336,-0.064
1747685051155763945,-0.07100000000000001
1747685051163451554,-0.084
1747685051171139163,-0.079
1747685051178826772,-0.08600000000000001
1747685051186514381,-0.094
1747685051194201990,-0.089
1747685051201889599,-0.091
1747685051209577208,-0.098
1747685051217264817,-0.106
1747685051224952426,-0.106
1747685051232640035,-0.096
1747685051240327644,-0.08600000000000001
1747685051248015253,-0.064
1747685051255702862,0.101
1747685051263390471,0.487
1747685051271078080,0.667
1747685051278765689,0.20700000000000002
1747685051286453298,-0.403
1747685051294140907,-0.502
1747685051301828516,-0.319
1747685051309516125,-0.274
1747685051317203734,-0.23500000000000001
1747685051324891388,-0.098
1747685051332578997,-0.044
1747685051340266606,-0.079
1747685051347954215,-0.069
1747685051355641824,-0.037
1747685051363329433,-0.037
1747685051371017042,-0.042
1747685051378704651,-0.039
1747685051386392260,-0.034
1747685051394079869,-0.024
1747685051401767478,-0.009000000000000001
1747685051409455087,-0.002
1747685051417142696,-0.002
1747685051424830305,0.002
1747685051432517914,0.014
1747685051440205523,0.017
1747685051447893132,0.019
1747685051455580741,0.042
1747685051463268350,0.061
1747685051470955959,0.064
1747685051478643568,0.069
1747685051486331177,0.089
1747685051494018786,0.10300000000000001
1747685051501706395,0.113
1747685051509394004,0.116
1747685051517081613,0.11800000000000001
1747685051524769222,0.116
1747685051532456831,0.113
1747685051540144440,0.098
1747685051547832049,0.079
1747685051555519658,0.056
1747685051563207267,0.002
1747685051570894876,-0.056
1747685051578582485,-0.076
1747685051586270094,-0.098
1747685051593957703,-0.14300000000000002
1747685051601645312,-0.153
1747685051609332921,-0.145
1747685051617020530,-0.155
1747685051624708139,-0.15
1747685051632395748,-0.136
1747685051640083357,-0.14100000000000001
1747685051647770966,-0.14300000000000002
1747685051655458575,-0.128
1747685051663146184,-0.111
1747685051670833793,-0.10300000000000001
1747685051678521402,-0.111
1747685051686209011,-0.108
1747685051693896620,-0.101
1747685051701584229,-0.10300000000000001
1747685051709271838,-0.096
1747685051716959447,-0.091
1747685051724647056,-0.101
1747685051732334665,-0.108
1747685051740022274,-0.101
1747685051747709883,-0.098
1747685051755397492,-0.106
1747685051763085101,-0.111
1747685051770772710,-0.10300000000000001
1747685051778460319,-0.098
1747685051786147928,-0.108
1747685051793835537,-0.111
1747685051801523146,-0.111
1747685051809210755,-0.108
1747685051816898364,-0.091
1747685051824585973,-0.07100000000000001
1747685051832273582,-0.066
1747685051839961191,-0.064
1747685051847648800,-0.069
1747685051855336409,-0.08600000000000001
1747685051863024018,-0.094
1747685051870711627,-0.094
1747685051878399236,-0.094
1747685051886086890,-0.08600000000000001,77,723
1747685051893774778,-0.081
1747685051901462666,-0.08600000000000001
1747685051909150554,-0.084
1747685051916838442,-0.091
1747685051924526330,-0.049
1747685051932214218,0.2
1747685051939902106,0.591
1747685051947589994,0.618
1747685051955277882,0.089
1747685051962965770,-0.41300000000000003
1747685051970653658,-0.423
1747685051978341546,-0.249
1747685051986029434,-0.20500000000000002
1747685051993717322,-0.153
1747685052001405210,-0.064
1747685052009093098,-0.066
1747685052016780986,-0.08600000000000001
1747685052024468874,-0.056
1747685052032156762,-0.037
1747685052039844650,-0.037
1747685052047532538,-0.029
1747685052055220426,-0.027
1747685052062908314,-0.024
1747685052070596202,-0.012
1747685052078284090,-0.007
1747685052085971978,-0.012
1747685052093659866,-0.002
1747685052101347754,0.009000000000000001
1747685052109035642,0.004
1747685052116723530,0.004
1747685052124411418,0.027
1747685052132099306,0.044
1747685052139787194,0.049
1747685052147475082,0.054
1747685052155162970,0.064
1747685052162850858,0.084
1747685052170538746,0.091
1747685052178226634,0.089
1747685052185914522,0.101
1747685052193602410,0.113
1747685052201290298,0.098
1747685052208978186,0.08600000000000001
1747685052216666074,0.084
1747685052224353962,0.061
1747685052232041850,0.029
1747685052239729738,-0.004
1747685052247417626,-0.044
1747685052255105514,-0.081
1747685052262793402,-0.113
1747685052270481290,-0.131
1747685052278169178,-0.138
1747685052285857066,-0.136
1747685052293544954,-0.133
1747685052301232842,-0.128
1747685052308920730,-0.116
1747685052316608618,-0.108
1747685052324296506,-0.131
1747685052331984394,-0.136
1747685052339672282,-0.108
1747685052347360170,-0.094
1747685052355048058,-0.108
1747685052362735946,-0.108
1747685052370423834,-0.094
1747685052378111722,-0.096
1747685052385799610,-0.101
1747685052393487498,-0.096
1747685052401175386,-0.094
1747685052408863274,-0.098
1747685052416551162,-0.098
1747685052424239050,-0.094
1747685052431926938,-0.098
1747685052439614826,-0.098
1747685052447302736,-0.096
1747685052454990484,-0.098
1747685052462678232,-0.101
1747685052470365980,-0.098
1747685052478053728,-0.106
1747685052485741476,-0.111
1747685052493429224,-0.094
1747685052501116972,-0.064
1747685052508804720,-0.054
1747685052516492468,-0.054
1747685052524180216,-0.054
1747685052531867964,-0.054
1747685052539555712,-0.069
1747685052547243460,-0.094
1747685052554931208,-0.101
1747685052562618956,-0.08600000000000001
1747685052570306704,-0.074
1747685052577994452,-0.081
1747685052585682200,-0.089
1747685052593369948,-0.079
1747685052601057696,-0.079
1747685052608745444,-0.089
1747685052616433192,-0.017
1747685052624120940,0.289
1747685052631808688,0.648
1747685052639496436,0.529
1747685052647184184,-0.051000000000000004
1747685052654871932,-0.42
1747685052662559680,-0.356
1747685052670247428,-0.242
1747685052677935176,-0.21
1747685052685622924,-0.123
1747685052693310672,-0.059000000000000004
1747685052700998420,-0.074
1747685052708686168,-0.069
1747685052716373916,-0.047
1747685052724061664,-0.044
1747685052731749412,-0.039
1747685052739437160,-0.032
1747685052747124908,-0.029
1747685052754812656,-0.019
1747685052762500404,-0.012
1747685052770188152,-0.012
1747685052777875900,-0.009000000000000001
1747685052785563648,-0.004
1747685052793251396,0.002
1747685052800939144,0.012
1747685052808626892,0.022
1747685052816314640,0.027
1747685052824002388,0.032
1747685052831690136,0.044
1747685052839377884,0.066
1747685052847065632,0.081
1747685052854753380,0.084
1747685052862441128,0.096
1747685052870128876,0.106
1747685052877816624,0.10300000000000001
1747685052885504372,0.10300000000000001
1747685052893192120,0.101
1747685052900879868,0.094
1747685052908567616,0.084
1747685052916255364,0.061
1747685052923943112,0.017
1747685052931630860,-0.024
1747685052939318608,-0.051000000000000004
1747685052947006356,-0.074
1747685052954694104,-0.108
1747685052962381852,-0.136
1747685052970069600,-0.136
1747685052977757348,-0.128
1747685052985445096,-0.136
1747685052993132844,-0.133
1747685053000820592,-0.121
1747685053008508412,-0.123,78,701
1747685053016196160,-0.123,,678
1747685053023883908,-0.116
1747685053031571656,-0.116
1747685053039259404,-0.11800000000000001
1747685053046947152,-0.108
1747685053054634900,-0.101
1747685053062322648,-0.10300000000000001
1747685053070010396,-0.096
1747685053077698144,-0.091
1747685053085385892,-0.10300000000000001
1747685053093073640,-0.106
1747685053100761388,-0.096
1747685053108449136,-0.098
1747685053116136884,-0.106
1747685053123824632,-0.096
1747685053131512380,-0.094
1747685053139200128,-0.111
1747685053146887876,-0.113
1747685053154575624,-0.098
1747685053162263372,-0.096
1747685053169951120,-0.094
1747685053177638868,-0.091
1747685053185326616,-0.10300000000000001
1747685053193014364,-0.108
1747685053200702112,-0.096
1747685053208389860,-0.098
1747685053216077608,-0.098
1747685053223765356,-0.07100000000000001
1747685053231453104,-0.047
1747685053239140852,-0.056
1747685053246828600,-0.061
1747685053254516348,-0.051000000000000004
1747685053262204096,-0.069
1747685053269891844,-0.089
1747685053277579592,-0.081
1747685053285267340,-0.079
1747685053292955088,-0.079
1747685053300642836,-0.074
1747685053308330584,-0.076
1747685053316018332,-0.081
1747685053323706080,-0.081
1747685053331393828,-0.076
1747685053339081576,0.024
1747685053346769324,0.358
1747685053354457072,0.667
1747685053362144820,0.435
1747685053369832568,-0.178
1747685053377520316,-0.465
1747685053385208064,-0.336
1747685053392895812,-0.23700000000000002
1747685053400583560,-0.217
1747685053408271308,-0.121
1747685053415959056,-0.054
1747685053423646804,-0.066
1747685053431334552,-0.059000000000000004
1747685053439022300,-0.042
1747685053446710048,-0.039
1747685053454397796,-0.032
1747685053462085544,-0.022
1747685053469773292,-0.017
1747685053477461040,-0.007
1747685053485148788,-0.004
1747685053492836536,-0.002
1747685053500524284,0.009000000000000001
1747685053508212032,0.017
1747685053515899780,0.009000000000000001
1747685053523587528,0.012
1747685053531275276,0.029
1747685053538963024,0.049
1747685053546650772,0.054
1747685053554338520,0.059000000000000004
1747685053562026268,0.076
1747685053569714084,0.098
1747685053577401972,0.111
1747685053585089860,0.116
1747685053592777748,0.126
1747685053600465636,0.128
1747685053608153524,0.128
1747685053615841412,0.121
1747685053623529300,0.113
1747685053631217188,0.10300000000000001
1747685053638905076,0.07100000000000001
1747685053646592964,0.019
1747685053654280852,-0.019
1747685053661968740,-0.047
1747685053669656628,-0.081
1747685053677344516,-0.113
1747685053685032404,-0.126
1747685053692720292,-0.14100000000000001
1747685053700408180,-0.15
1747685053708096068,-0.14300000000000002
1747685053715783956,-0.133
1747685053723471844,-0.136
1747685053731159732,-0.133
1747685053738847620,-0.123
1747685053746535508,-0.111
1747685053754223396,-0.098
1747685053761911284,-0.096
1747685053769599172,-0.098
1747685053777287060,-0.098
1747685053784974948,-0.101
1747685053792662836,-0.096
1747685053800350724,-0.089
1747685053808038612,-0.091
1747685053815726500,-0.091
1747685053823414388,-0.08600000000000001
1747685053831102276,-0.08600000000000001
1747685053838790164,-0.094
1747685053846478052,-0.094
1747685053854165940,-0.08600000000000001
1747685053861853828,-0.08600000000000001
1747685053869541716,-0.091
1747685053877229604,-0.094
1747685053884917492,-0.08600000000000001
1747685053892605380,-0.094
1747685053900293268,-0.106
1747685053907981156,-0.096
1747685053915669044,-0.089
1747685053923356932,-0.094
1747685053931044820,-0.076
1747685053938732708,-0.054
1747685053946420596,-0.059000000000000004
1747685053954108484,-0.051000000000000004
1747685053961796372,-0.037
1747685053969484260,-0.061
1747685053977172148,-0.089
1747685053984860036,-0.079
1747685053992547924,-0.061
1747685054000235812,-0.069
1747685054007923700,-0.076
1747685054015611588,-0.069
1747685054023299476,-0.061
1747685054030987364,-0.066
1747685054038675252,-0.076
1747685054046363140,-0.014
1747685054054051028,0.272
1747685054061738916,0.648
1747685054069426804,0.5710000000000001
1747685054077114692,-0.019
1747685054084802580,-0.447
1747685054092490468,-0.385
1747685054100178356,-0.23700000000000002
1747685054107866244,-0.202
1747685054115554132,-0.126
1747685054123242020,-0.039
1747685054130929934,-0.047,79,675
1747685054138617543,-0.059000000000000004
1747685054146305152,-0.032
1747685054153992761,-0.017
1747685054161680370,-0.024
1747685054169367979,-0.012
1747685054177055588,0.0
1747685054184743197,-0.004
1747685054192430806,0.0
1747685054200118415,0.014
1747685054207806024,0.017
1747685054215493633,0.017
1747685054223181242,0.022
1747685054230868851,0.029
1747685054238556460,0.044
1747685054246244069,0.056
1747685054253931678,0.064
1747685054261619287,0.069
1747685054269306896,0.079
1747685054276994505,0.096
1747685054284682114,0.113
1747685054292369723,0.121
1747685054300057332,0.126
1747685054307744941,0.14100000000000001
1747685054315432550,0.14100000000000001
1747685054323120159,0.121
1747685054330807768,0.113
1747685054338495377,0.108
1747685054346182986,0.081
1747685054353870595,0.042
1747685054361558204,0.0
1747685054369245813,-0.037
1747685054376933422,-0.069
1747685054384621031,-0.091
1747685054392308640,-0.113
1747685054399996249,-0.131
1747685054407683858,-0.131
1747685054415371467,-0.126
1747685054423059076,-0.128
1747685054430746685,-0.123
1747685054438434294,-0.116
1747685054446121903,-0.113
1747685054453809512,-0.111
1747685054461497121,-0.101
1747685054469184730,-0.096
1747685054476872339,-0.101
1747685054484559948,-0.091
1747685054492247557,-0.079
1747685054499935166,-0.084
1747685054507622775,-0.089
1747685054515310384,-0.076
1747685054522997993,-0.076
1747685054530685602,-0.091
1747685054538373211,-0.094
1747685054546060820,-0.084
1747685054553748429,-0.08600000000000001
1747685054561436038,-0.089
1747685054569123647,-0.081
1747685054576811256,-0.081
1747685054584498865,-0.089
1747685054592186474,-0.084
1747685054599874083,-0.069
1747685054607561692,-0.07100000000000001
1747685054615249301,-0.089
1747685054622936910,-0.094
1747685054630624519,-0.079
1747685054638312128,-0.074
1747685054645999737,-0.081
1747685054653687346,-0.07100000000000001
1747685054661374955,-0.059000000000000004
1747685054669062564,-0.059000000000000004
1747685054676750173,-0.07100000000000001
1747685054684437782,-0.074
1747685054692125432,-0.074,81,690
1747685054699813390,-0.074,,722
1747685054707501348,-0.076
1747685054715189306,-0.07100000000000001
1747685054722877264,-0.059000000000000004
1747685054730565222,-0.042
1747685054738253180,-0.037
1747685054745941138,-0.037
1747685054753629096,-0.032
1747685054761317054,-0.032
1747685054769005012,-0.054
1747685054776692970,-0.069
1747685054784380928,-0.059000000000000004
1747685054792068886,-0.059000000000000004
1747685054799756844,-0.066
1747685054807444802,-0.061
1747685054815132760,-0.051000000000000004
1747685054822820718,-0.044
1747685054830508676,-0.056
1747685054838196634,-0.07100000000000001
1747685054845884592,0.064
1747685054853572550,0.432
1747685054861260508,0.7000000000000001
1747685054868948466,0.432
1747685054876636424,-0.14300000000000002
1747685054884324382,-0.418
1747685054892012340,-0.301
1747685054899700298,-0.195
1747685054907388256,-0.16
1747685054915076214,-0.076
1747685054922764172,-0.042
1747685054930452130,-0.069
1747685054938140088,-0.054
1747685054945828046,-0.027
1747685054953516004,-0.027
1747685054961203962,-0.019
1747685054968891920,-0.009000000000000001
1747685054976579878,-0.004
1747685054984267836,-0.002
1747685054991955794,-0.004
1747685054999643752,0.002
1747685055007331710,0.017
1747685055015019668,0.014
1747685055022707626,0.009000000000000001
1747685055030395584,0.024
1747685055038083542,0.042
1747685055045771500,0.049
1747685055053459458,0.054
1747685055061147416,0.064
1747685055068835374,0.079
1747685055076523332,0.08600000000000001
1747685055084211290,0.094
1747685055091899248,0.10300000000000001
1747685055099587206,0.11800000000000001
1747685055107275164,0.121
1747685055114963122,0.11800000000000001
1747685055122651080,0.116
1747685055130339038,0.106
1747685055138026996,0.096
1747685055145714954,0.089
1747685055153402912,0.061
1747685055161090870,0.012
1747685055168778828,-0.029
1747685055176466786,-0.047
1747685055184154744,-0.066
1747685055191842702,-0.10300000000000001
1747685055199530660,-0.126
1747685055207218618,-0.116
1747685055214906576,-0.111
1747685055222594534,-0.108
1747685055230282492,-0.108
1747685055237970450,-0.108
1747685055245658408,-0.101
1747685055253346369,-0.094
1747685055261034048,-0.101
1747685055268721727,-0.10300000000000001
1747685055276409406,-0.091
1747685055284097085,-0.079
1747685055291784764,-0.079
1747685055299472443,-0.084
1747685055307160122,-0.079
1747685055314847801,-0.069
1747685055322535480,-0.081
1747685055330223159,-0.089
1747685055337910838,-0.081
1747685055345598517,-0.081
1747685055353286196,-0.084
1747685055360973875,-0.084
1747685055368661554,-0.084
1747685055376349233,-0.081
1747685055384036912,-0.074
1747685055391724591,-0.074
1747685055399412270,-0.081
1747685055407099949,-0.079
1747685055414787628,-0.074
1747685055422475307,-0.079
1747685055430162986,-0.079
1747685055437850665,-0.074
1747685055445538344,-0.069
1747685055453226023,-0.066
1747685055460913702,-0.066
1747685055468601381,-0.074
1747685055476289060,-0.07100000000000001
1747685055483976739,-0.064
1747685055491664418,-0.059000000000000004
1747685055499352097,-0.056
1747685055507039776,-0.061
1747685055514727455,-0.07100000000000001
1747685055522415134,-0.069
1747685055530102813,-0.061
1747685055537790492,-0.064
1747685055545478171,-0.066
1747685055553165850,-0.047
1747685055560853529,-0.027
1747685055568541208,-0.027
1747685055576228887,-0.027
1747685055583916566,-0.032
1747685055591604245,-0.054
1747685055599291924,-0.066
1747685055606979603,-0.054
1747685055614667282,-0.051000000000000004
1747685055622354961,-0.061
1747685055630042640,-0.061
1747685055637730319,-0.049
1747685055645417998,-0.054
1747685055653105677,-0.066
1747685055660793356,-0.061
1747685055668481035,0.037
1747685055676168714,0.34600000000000003
1747685055683856393,0.655
1747685055691544072,0.47900000000000004
1747685055699231751,-0.089
1747685055706919430,-0.40800000000000003
1747685055714607109,-0.319
1747685055722294788,-0.20500000000000002
1747685055729982467,-0.17500000000000002
1747685055737670146,-0.091
1747685055745357825,-0.039
1747685055753045504,-0.061
1747685055760733183,-0.066
1747685055768420862,-0.034
1747685055776108541,-0.019
1747685055783796220,-0.022
1747685055791483899,-0.019
1747685055799171578,-0.012
1747685055806859257,-0.012
1747685055814546958,-0.012,81,709
1747685055822234776,-0.002
1747685055829922594,0.002
1747685055837610412,0.004
1747685055845298230,0.012
1747685055852986048,0.019
1747685055860673866,0.027
1747685055868361684,0.037
1747685055876049502,0.047
1747685055883737320,0.059000000000000004
1747685055891425138,0.066
1747685055899112956,0.07100000000000001
1747685055906800774,0.08600000000000001
1747685055914488592,0.098
1747685055922176410,0.098
1747685055929864228,0.098
1747685055937552046,0.101
1747685055945239864,0.106
1747685055952927682,0.10300000000000001
1747685055960615500,0.081
1747685055968303318,0.059000000000000004
1747685055975991136,0.044
1747685055983678954,0.014
1747685055991366772,-0.022
1747685055999054590,-0.054
1747685056006742408,-0.084
1747685056014430226,-0.108
1747685056022118044,-0.123
1747685056029805862,-0.126
1747685056037493680,-0.131
1747685056045181498,-0.131
1747685056052869316,-0.116
1747685056060557134,-0.111
1747685056068244952,-0.11800000000000001
1747685056075932770,-0.11800000000000001
1747685056083620588,-0.106
1747685056091308406,-0.101
1747685056098996224,-0.101
1747685056106684042,-0.094
1747685056114371860,-0.084
1747685056122059678,-0.081
1747685056129747496,-0.08600000000000001
1747685056137435314,-0.089
1747685056145123132,-0.081
1747685056152810950,-0.084
1747685056160498768,-0.094
1747685056168186586,-0.091
1747685056175874404,-0.084
1747685056183562222,-0.08600000000000001
1747685056191250040,-0.094
1747685056198937858,-0.096
1747685056206625676,-0.089
1747685056214313494,-0.08600000000000001
1747685056222001312,-0.08600000000000001
1747685056229689130,-0.079
1747685056237376948,-0.084
1747685056245064766,-0.091
1747685056252752584,-0.076
1747685056260440402,-0.069
1747685056268128220,-0.084
1747685056275816038,-0.091
1747685056283503856,-0.079
1747685056291191674,-0.069
1747685056298879492,-0.061
1747685056306567310,-0.069
1747685056314255128,-0.081
1747685056321942946,-0.076
1747685056329630764,-0.069
1747685056337318582,-0.07100000000000001
1747685056345006400,-0.074
1747685056352694218,-0.079
1747685056360382036,-0.079
1747685056368069854,-0.064
1747685056375757717,-0.051000000000000004
1747685056383445535,-0.047
1747685056391133353,-0.039
1747685056398821171,-0.029
1747685056406508989,-0.034
1747685056414196807,-0.051000000000000004
1747685056421884625,-0.061
1747685056429572443,-0.059000000000000004
1747685056437260261,-0.061
1747685056444948079,-0.07100000000000001
1747685056452635897,-0.07100000000000001
1747685056460323715,-0.061
1747685056468011533,-0.059000000000000004
1747685056475699351,-0.069
1747685056483387169,-0.064
1747685056491074987,0.037
1747685056498762805,0.34800000000000003
1747685056506450623,0.658
1747685056514138441,0.465
1747685056521826259,-0.128
1747685056529514077,-0.455
1747685056537201895,-0.353
1747685056544889713,-0.232
1747685056552577531,-0.20500000000000002
1747685056560265349,-0.121
1747685056567953167,-0.051000000000000004
1747685056575640985,-0.056
1747685056583328803,-0.051000000000000004
1747685056591016621,-0.029
1747685056598704439,-0.027
1747685056606392257,-0.029
1747685056614080075,-0.032
1747685056621767893,-0.024
1747685056629455711,-0.007
1747685056637143529,-0.004
1747685056644831347,-0.009000000000000001
1747685056652519165,-0.004
1747685056660206983,0.0
1747685056667894801,0.007
1747685056675582619,0.019
1747685056683270437,0.024
1747685056690958255,0.022
1747685056698646073,0.032
1747685056706333891,0.051000000000000004
1747685056714021709,0.066
1747685056721709527,0.079
1747685056729397345,0.098
1747685056737085163,0.116
1747685056744772981,0.11800000000000001
1747685056752460799,0.116
1747685056760148617,0.113
1747685056767836435,0.11800000000000001
1747685056775524253,0.121
1747685056783212071,0.101
1747685056790899889,0.07100000000000001
1747685056798587707,0.047
1747685056806275525,0.0
1747685056813963343,-0.049
1747685056821651161,-0.076
1747685056829338979,-0.098
1747685056837026797,-0.121
1747685056844714615,-0.14100000000000001
1747685056852402433,-0.145
1747685056860090251,-0.145
1747685056867778069,-0.14300000000000002
1747685056875465887,-0.14100000000000001
1747685056883153705,-0.131
1747685056890841523,-0.128
1747685056898529341,-0.131
1747685056906217159,-0.123
1747685056913904977,-0.113
1747685056921592795,-0.10300000000000001
1747685056929280613,-0.096
1747685056936968480,-0.094,82,797
1747685056944656089,-0.094
1747685056952343698,-0.091
1747685056960031307,-0.084
1747685056967718916,-0.089
1747685056975406525,-0.091
1747685056983094134,-0.091
1747685056990781743,-0.094
1747685056998469352,-0.094
1747685057006156961,-0.096
1747685057013844570,-0.094
1747685057021532179,-0.089
1747685057029219788,-0.089
1747685057036907397,-0.096
1747685057044595006,-0.094
1747685057052282615,-0.081
1747685057059970224,-0.081
1747685057067657833,-0.08600000000000001
1747685057075345442,-0.081
1747685057083033051,-0.08600000000000001
1747685057090720660,-0.089
1747685057098408269,-0.081
1747685057106095878,-0.081
1747685057113783487,-0.084
1747685057121471096,-0.08600000000000001
1747685057129158705,-0.081
1747685057136846314,-0.056
1747685057144533923,-0.039
1747685057152221532,-0.044
1747685057159909141,-0.037
1747685057167596750,-0.029
1747685057175284359,-0.054
1747685057182971968,-0.079
1747685057190659577,-0.074
1747685057198347186,-0.069
1747685057206034795,-0.061
1747685057213722404,-0.051000000000000004
1747685057221410013,-0.066
1747685057229097622,-0.076
1747685057236785231,-0.059000000000000004
1747685057244472840,-0.037
1747685057252160449,0.101
1747685057259848058,0.465
1747685057267535667,0.7000000000000001
1747685057275223276,0.331
1747685057282910885,-0.291
1747685057290598494,-0.47000000000000003
1747685057298286103,-0.291
1747685057305973712,-0.227
1747685057313661321,-0.20500000000000002
1747685057321348930,-0.084
1747685057329036539,-0.037
1747685057336724148,-0.054
1747685057344411757,-0.027
1747685057352099366,-0.009000000000000001
1747685057359786975,-0.024
1747685057367474584,-0.009000000000000001
1747685057375162193,0.009000000000000001
1747685057382849802,0.002
1747685057390537411,0.007
1747685057398225020,0.032
1747685057405912629,0.032
1747685057413600238,0.022
1747685057421287847,0.032
1747685057428975456,0.044
1747685057436663065,0.049
1747685057444350674,0.064
1747685057452038283,0.079
1747685057459725892,0.081
1747685057467413501,0.08600000000000001
1747685057475101110,0.108
1747685057482788719,0.128
1747685057490476328,0.136
1747685057498163982,0.153
1747685057505851591,0.17
1747685057513539200,0.17
1747685057521226809,0.155
1747685057528914418,0.14300000000000002
1747685057536602027,0.145
1747685057544289636,0.14100000000000001
1747685057551977245,0.106
1747685057559664854,0.056
1747685057567352463,0.012
1747685057575040072,-0.024
1747685057582727681,-0.054
1747685057590415290,-0.081
1747685057598102899,-0.108
1747685057605790508,-0.123
1747685057613478117,-0.123
1747685057621165726,-0.11800000000000001
1747685057628853335,-0.121
1747685057636540944,-0.116
1747685057644228553,-0.111
1747685057651916162,-0.106
1747685057659603771,-0.101
1747685057667291380,-0.08600000000000001
1747685057674978989,-0.076
1747685057682666598,-0.074
1747685057690354207,-0.069
1747685057698041816,-0.066
1747685057705729425,-0.066
1747685057713417034,-0.056
1747685057721104643,-0.054
1747685057728792252,-0.066
1747685057736479861,-0.066
1747685057744167470,-0.059000000000000004
1747685057751855079,-0.064
1747685057759542688,-0.07100000000000001
1747685057767230297,-0.064
1747685057774917906,-0.056
1747685057782605515,-0.07100000000000001
1747685057790293124,-0.076
1747685057797980733,-0.066
1747685057805668342,-0.061
1747685057813355951,-0.061
1747685057821043560,-0.064
1747685057828731169,-0.064
1747685057836418778,-0.064
1747685057844106387,-0.051000000000000004
1747685057851793996,-0.054
1747685057859481605,-0.066
1747685057867169214,-0.059000000000000004
1747685057874856823,-0.049
1747685057882544432,-0.056
1747685057890232041,-0.061
1747685057897919650,-0.059000000000000004
1747685057905607259,-0.064
1747685057913294868,-0.061
1747685057920982477,-0.051000000000000004
1747685057928670086,-0.039
1747685057936357695,-0.029
1747685057944045304,-0.024
1747685057951732913,-0.019
1747685057959420522,-0.019
1747685057967108131,-0.037
1747685057974795740,-0.051000000000000004
1747685057982483349,-0.051000000000000004
1747685057990170958,-0.049
1747685057997858567,-0.044
1747685058005546176,-0.044
1747685058013233785,-0.054
1747685058020921394,-0.054
1747685058028609003,-0.049
1747685058036296612,-0.034
1747685058043984221,0.128
1747685058051671830,0.509
1747685058059359480,0.722,81,823
1747685058067047438,0.376
1747685058074735396,-0.20700000000000002
1747685058082423354,-0.418
1747685058090111312,-0.277
1747685058097799270,-0.19
1747685058105487228,-0.16
1747685058113175186,-0.074
1747685058120863144,-0.047
1747685058128551102,-0.07100000000000001
1747685058136239060,-0.054
1747685058143927018,-0.029
1747685058151614976,-0.024
1747685058159302934,-0.019
1747685058166990892,-0.017
1747685058174678850,-0.019
1747685058182366808,-0.002
1747685058190054766,0.002
1747685058197742724,-0.012
1747685058205430682,-0.002
1747685058213118640,0.014
1747685058220806598,0.017
1747685058228494556,0.024
1747685058236182514,0.034
1747685058243870472,0.034
1747685058251558430,0.039
1747685058259246388,0.054
1747685058266934346,0.069
1747685058274622304,0.08600000000000001
1747685058282310262,0.106
1747685058289998220,0.121
1747685058297686178,0.126
1747685058305374136,0.121
1747685058313062094,0.116
1747685058320750052,0.113
1747685058328438010,0.111
1747685058336125968,0.101
1747685058343813926,0.084
1747685058351501884,0.051000000000000004
1747685058359189842,0.004
1747685058366877800,-0.044
1747685058374565758,-0.07100000000000001
1747685058382253716,-0.089
1747685058389941674,-0.106
1747685058397629632,-0.11800000000000001
1747685058405317590,-0.131
1747685058413005548,-0.133
1747685058420693506,-0.126
1747685058428381464,-0.131
1747685058436069422,-0.133
1747685058443757380,-0.116
1747685058451445338,-0.108
1747685058459133296,-0.108
1747685058466821254,-0.101
1747685058474509212,-0.089
1747685058482197170,-0.089
1747685058489885128,-0.098
1747685058497573086,-0.096
1747685058505261044,-0.08600000000000001
1747685058512949002,-0.08600000000000001
1747685058520636960,-0.091
1747685058528324918,-0.089
1747685058536012876,-0.084
1747685058543700834,-0.08600000000000001
1747685058551388792,-0.094
1747685058559076750,-0.096
1747685058566764708,-0.091
1747685058574452666,-0.084
1747685058582140624,-0.089
1747685058589828582,-0.094
1747685058597516540,-0.08600000000000001
1747685058605204498,-0.081
1747685058612892456,-0.089
1747685058620580417,-0.089,80,822
1747685058628268096,-0.074,,759
1747685058635955775,-0.07100000000000001
1747685058643643454,-0.084
1747685058651331133,-0.089
1747685058659018812,-0.08600000000000001
1747685058666706491,-0.079
1747685058674394170,-0.069
1747685058682081849,-0.064
1747685058689769528,-0.07100000000000001
1747685058697457207,-0.081
1747685058705144886,-0.081
1747685058712832565,-0.076
1747685058720520244,-0.07100000000000001
1747685058728207923,-0.054
1747685058735895602,-0.039
1747685058743583281,-0.049
1747685058751270960,-0.056
1747685058758958639,-0.037
1747685058766646318,-0.032
1747685058774333997,-0.064
1747685058782021676,-0.081
1747685058789709355,-0.069
1747685058797397034,-0.066
1747685058805084713,-0.069
1747685058812772392,-0.07100000000000001
1747685058820460071,-0.069
1747685058828147750,-0.064
1747685058835835429,-0.069
1747685058843523108,-0.024
1747685058851210787,0.215
1747685058858898466,0.581
1747685058866586145,0.623
1747685058874273824,0.145
1747685058881961503,-0.343
1747685058889649182,-0.405
1747685058897336861,-0.254
1747685058905024540,-0.192
1747685058912712219,-0.14100000000000001
1747685058920399898,-0.066
1747685058928087577,-0.054
1747685058935775256,-0.059000000000000004
1747685058943462935,-0.047
1747685058951150614,-0.037
1747685058958838293,-0.027
1747685058966525972,-0.022
1747685058974213651,-0.022
1747685058981901330,-0.019
1747685058989589009,-0.009000000000000001
1747685058997276688,-0.004
1747685059004964367,-0.004
1747685059012652046,0.0
1747685059020339725,0.009000000000000001
1747685059028027404,0.009000000000000001
1747685059035715083,0.017
1747685059043402762,0.034
1747685059051090441,0.042
1747685059058778120,0.044
1747685059066465799,0.051000000000000004
1747685059074153478,0.069
1747685059081841157,0.08600000000000001
1747685059089528836,0.091
1747685059097216515,0.101
1747685059104904194,0.111
1747685059112591873,0.116
1747685059120279552,0.121
1747685059127967231,0.11800000000000001
1747685059135654910,0.106
1747685059143342589,0.091
1747685059151030268,0.069
1747685059158717947,0.034
1747685059166405626,-0.014
1747685059174093305,-0.054
1747685059181781006,-0.081
1747685059189468824,-0.106
1747685059197156642,-0.116
1747685059204844460,-0.11800000000000001
1747685059212532278,-0.128
1747685059220220096,-0.131
1747685059227907914,-0.126
1747685059235595732,-0.123
1747685059243283550,-0.121
1747685059250971368,-0.113
1747685059258659186,-0.108
1747685059266347004,-0.108
1747685059274034822,-0.10300000000000001
1747685059281722640,-0.094
1747685059289410458,-0.08600000000000001
1747685059297098276,-0.08600000000000001
1747685059304786094,-0.08600000000000001
1747685059312473912,-0.08600000000000001
1747685059320161730,-0.089
1747685059327849548,-0.08600000000000001
1747685059335537366,-0.079
1747685059343225184,-0.074
1747685059350913002,-0.079
1747685059358600820,-0.081
1747685059366288638,-0.079
1747685059373976456,-0.079
1747685059381664274,-0.08600000000000001
1747685059389352092,-0.094
1747685059397039910,-0.08600000000000001
1747685059404727728,-0.076
1747685059412415546,-0.081
1747685059420103364,-0.079
1747685059427791182,-0.069
1747685059435479000,-0.076
1747685059443166818,-0.084
1747685059450854636,-0.076
1747685059458542454,-0.07100000000000001
1747685059466230272,-0.074
1747685059473918090,-0.07100000000000001
1747685059481605908,-0.064
1747685059489293726,-0.061
1747685059496981544,-0.061
1747685059504669362,-0.064
1747685059512357180,-0.064
1747685059520044998,-0.061
1747685059527732816,-0.061
1747685059535420634,-0.066
1747685059543108452,-0.069
1747685059550796270,-0.069
1747685059558484088,-0.066
1747685059566171906,-0.059000000000000004
1747685059573859724,-0.042
1747685059581547542,-0.019
1747685059589235360,-0.024
1747685059596923178,-0.039
1747685059604610996,-0.034
1747685059612298814,-0.032
1747685059619986632,-0.051000000000000004
1747685059627674450,-0.066
1747685059635362268,-0.064
1747685059643050086,-0.054
1747685059650737904,-0.051000000000000004
1747685059658425722,-0.056
1747685059666113540,-0.059000000000000004
1747685059673801358,-0.054
1747685059681489176,-0.049
1747685059689176994,0.024
1747685059696864812,0.304
1747685059704552630,0.633
1747685059712240448,0.529
1747685059719928266,-0.022
1747685059727616084,-0.4
1747685059735303902,-0.343
1747685059742991765,-0.217,79,792
1747685059750679165,-0.19
1747685059758366565,-0.11800000000000001
1747685059766053965,-0.042
1747685059773741365,-0.047
1747685059781428765,-0.054
1747685059789116165,-0.039
1747685059796803565,-0.029
1747685059804490965,-0.017
1747685059812178365,-0.014
1747685059819865765,-0.034
1747685059827553165,-0.029
1747685059835240565,-0.007
1747685059842927965,-0.002
1747685059850615365,-0.004
1747685059858302765,0.009000000000000001
1747685059865990165,0.014
1747685059873677565,0.009000000000000001
1747685059881364965,0.024
1747685059889052365,0.042
1747685059896739765,0.039
1747685059904427165,0.042
1747685059912114565,0.059000000000000004
1747685059919801965,0.07100000000000001
1747685059927489365,0.084
1747685059935176765,0.096
1747685059942864165,0.106
1747685059950551565,0.108
1747685059958238965,0.111
1747685059965926365,0.11800000000000001
1747685059973613765,0.11800000000000001
1747685059981301165,0.106
1747685059988988565,0.084
1747685059996675965,0.054
1747685060004363365,0.022
1747685060012050765,-0.012
1747685060019738165,-0.047
1747685060027425565,-0.076
1747685060035112965,-0.101
1747685060042800365,-0.121
1747685060050487765,-0.133
1747685060058175165,-0.138
1747685060065862565,-0.131
1747685060073549965,-0.123
1747685060081237365,-0.121
1747685060088924765,-0.121
1747685060096612165,-0.126
1747685060104299565,-0.123
1747685060111986965,-0.106
1747685060119674365,-0.098
1747685060127361765,-0.101
1747685060135049165,-0.10300000000000001
