time,ecg,hr,rr,marker
1748284651411347038,-0.041
1748284651419033741,0.41300000000000003
1748284651426720444,1.112
1748284651434407147,1.202
1748284651442093850,0.28200000000000003
1748284651449780553,-0.642
1748284651457467256,-0.608
1748284651465153959,-0.243
1748284651472840662,-0.223
1748284651480527365,-0.187
1748284651488214068,-0.051000000000000004
1748284651495900771,-0.055
1748284651503587474,-0.082
1748284651511274177,-0.038
1748284651518960880,-0.026000000000000002
1748284651526647583,-0.036000000000000004
1748284651534334286,-0.021
1748284651542020989,-0.007
1748284651549707692,-0.007
1748284651557394395,0.002
1748284651565081098,0.014
1748284651572767801,0.017
1748284651580454504,0.019
1748284651588141207,0.029
1748284651595827910,0.038
1748284651603514613,0.048
1748284651611201316,0.053
1748284651618888019,0.058
1748284651626574722,0.07
1748284651634261425,0.08
1748284651641948128,0.08700000000000001
1748284651649634831,0.092
1748284651657321534,0.097
1748284651665008237,0.10400000000000001
1748284651672694940,0.109
1748284651680381643,0.109
1748284651688068346,0.107
1748284651695755049,0.107
1748284651703441752,0.111
1748284651711128455,0.109
1748284651718815158,0.10200000000000001
1748284651726501861,0.08700000000000001
1748284651734188564,0.053
1748284651741875267,0.007
1748284651749561970,-0.026000000000000002
1748284651757248673,-0.058
1748284651764935376,-0.08700000000000001
1748284651772622079,-0.107
1748284651780308782,-0.114
1748284651787995485,-0.116
1748284651795682188,-0.116
1748284651803368891,-0.116
1748284651811055594,-0.111
1748284651818742297,-0.107
1748284651826429000,-0.10200000000000001
1748284651834115703,-0.099
1748284651841802406,-0.097
1748284651849489109,-0.092
1748284651857175812,-0.092
1748284651864862515,-0.094
1748284651872549218,-0.099
1748284651880235921,-0.10200000000000001
1748284651887922624,-0.10200000000000001
1748284651895609327,-0.10200000000000001
1748284651903296030,-0.10400000000000001
1748284651910982733,-0.10400000000000001
1748284651918669436,-0.10400000000000001
1748284651926356139,-0.107
1748284651934042842,-0.10400000000000001
1748284651941729545,-0.10200000000000001
1748284651949416248,-0.10400000000000001
1748284651957102951,-0.10400000000000001
1748284651964789654,-0.099
1748284651972476417,-0.097,78,801
1748284651980163329,-0.097
1748284651987850241,-0.094
1748284651995537153,-0.09
1748284652003224065,-0.08700000000000001
1748284652010910977,-0.08700000000000001
1748284652018597889,-0.085
1748284652026284801,-0.085
1748284652033971713,-0.085
1748284652041658625,-0.08
1748284652049345537,-0.08
1748284652057032449,-0.077
1748284652064719361,-0.077
1748284652072406273,-0.075
1748284652080093185,-0.07
1748284652087780097,-0.068
1748284652095467009,-0.068
1748284652103153921,-0.065
1748284652110840833,-0.063
1748284652118527745,-0.063
1748284652126214657,-0.063
1748284652133901569,-0.065
1748284652141588481,-0.07
1748284652149275393,-0.07200000000000001
1748284652156962305,-0.068
1748284652164649217,-0.063
1748284652172336129,-0.048
1748284652180023041,-0.034
1748284652187709953,-0.021
1748284652195396865,-0.012
1748284652203083777,-0.019
1748284652210770689,-0.048
1748284652218457601,-0.055
1748284652226144513,-0.046
1748284652233831425,-0.051000000000000004
1748284652241518337,-0.058
1748284652249205249,-0.048
1748284652256892161,-0.043000000000000003
1748284652264579073,-0.063
1748284652272265985,-0.09
1748284652279952897,0.048
1748284652287639809,0.591
1748284652295326721,1.194
1748284652303013633,0.966
1748284652310700545,-0.111
1748284652318387457,-0.785
1748284652326074369,-0.525
1748284652333761281,-0.243
1748284652341448193,-0.262
1748284652349135105,-0.145
1748284652356822017,-0.014
1748284652364508929,-0.048
1748284652372195841,-0.058
1748284652379882753,-0.012
1748284652387569665,-0.009000000000000001
1748284652395256577,-0.014
1748284652402943489,0.002
1748284652410630401,0.012
1748284652418317313,0.012
1748284652426004225,0.019
1748284652433691137,0.029
1748284652441378049,0.038
1748284652449064961,0.041
1748284652456751873,0.046
1748284652464438785,0.053
1748284652472125697,0.063
1748284652479812609,0.07
1748284652487499521,0.08
1748284652495186433,0.085
1748284652502873345,0.092
1748284652510560257,0.10200000000000001
1748284652518247169,0.111
1748284652525934081,0.121
1748284652533621056,0.128
1748284652541307411,0.131
1748284652548993766,0.136
1748284652556680121,0.138
1748284652564366476,0.138
1748284652572052831,0.14100000000000001
1748284652579739186,0.138
1748284652587425541,0.121
1748284652595111896,0.09
1748284652602798251,0.046
1748284652610484606,-0.004
1748284652618170961,-0.048
1748284652625857316,-0.082
1748284652633543671,-0.107
1748284652641230026,-0.121
1748284652648916381,-0.128
1748284652656602736,-0.128
1748284652664289091,-0.124
1748284652671975446,-0.11900000000000001
1748284652679661801,-0.114
1748284652687348156,-0.107
1748284652695034511,-0.10200000000000001
1748284652702720866,-0.099
1748284652710407221,-0.097
1748284652718093576,-0.094
1748284652725779931,-0.094
1748284652733466286,-0.097
1748284652741152641,-0.099
1748284652748838996,-0.099
1748284652756525351,-0.10200000000000001
1748284652764211706,-0.107
1748284652771898061,-0.107
1748284652779584416,-0.107
1748284652787270771,-0.109
1748284652794957126,-0.109
1748284652802643481,-0.107
1748284652810329836,-0.107
1748284652818016191,-0.107
1748284652825702546,-0.10400000000000001
1748284652833388901,-0.10400000000000001
1748284652841075256,-0.10200000000000001
1748284652848761611,-0.10200000000000001
1748284652856447966,-0.099
1748284652864134321,-0.097
1748284652871820676,-0.094
1748284652879507031,-0.092
1748284652887193386,-0.092
1748284652894879741,-0.09
1748284652902566096,-0.08700000000000001
1748284652910252451,-0.085
1748284652917938806,-0.085
1748284652925625161,-0.085
1748284652933311516,-0.082
1748284652940997871,-0.077
1748284652948684226,-0.075
1748284652956370581,-0.077
1748284652964056936,-0.077
1748284652971743291,-0.075
1748284652979429646,-0.07
1748284652987116001,-0.068
1748284652994802356,-0.068
1748284653002488711,-0.07200000000000001
1748284653010175066,-0.07
1748284653017861421,-0.068
1748284653025547776,-0.065
1748284653033234131,-0.065
1748284653040920486,-0.063
1748284653048606841,-0.06
1748284653056293196,-0.063
1748284653063979551,-0.07200000000000001
1748284653071665906,-0.082
1748284653079352261,-0.08
1748284653087038616,-0.07
1748284653094725005,-0.055,78,811
1748284653102411778,-0.041
1748284653110098551,-0.029
1748284653117785324,-0.019
1748284653125472097,-0.024
1748284653133158870,-0.048
1748284653140845643,-0.063
1748284653148532416,-0.06
1748284653156219189,-0.06
1748284653163905962,-0.06
1748284653171592735,-0.055
1748284653179279508,-0.058
1748284653186966281,-0.07200000000000001
1748284653194653054,-0.109
1748284653202339827,-0.041
1748284653210026600,0.425
1748284653217713373,1.124
1748284653225400146,1.194
1748284653233086919,0.274
1748284653240773692,-0.632
1748284653248460465,-0.591
1748284653256147238,-0.243
1748284653263834011,-0.228
1748284653271520784,-0.189
1748284653279207557,-0.058
1748284653286894330,-0.065
1748284653294581103,-0.092
1748284653302267876,-0.051000000000000004
1748284653309954649,-0.036000000000000004
1748284653317641422,-0.043000000000000003
1748284653325328195,-0.029
1748284653333014968,-0.019
1748284653340701741,-0.017
1748284653348388514,-0.009000000000000001
1748284653356075287,0.0
1748284653363762060,0.002
1748284653371448833,0.007
1748284653379135606,0.017
1748284653386822379,0.026000000000000002
1748284653394509152,0.034
1748284653402195925,0.041
1748284653409882698,0.051000000000000004
1748284653417569471,0.06
1748284653425256244,0.068
1748284653432943017,0.07200000000000001
1748284653440629790,0.08
1748284653448316563,0.09
1748284653456003336,0.099
1748284653463690109,0.10400000000000001
1748284653471376882,0.10400000000000001
1748284653479063655,0.107
1748284653486750428,0.109
1748284653494437201,0.109
1748284653502123974,0.107
1748284653509810747,0.097
1748284653517497520,0.075
1748284653525184293,0.046
1748284653532871066,0.007
1748284653540557839,-0.031
1748284653548244612,-0.068
1748284653555931385,-0.092
1748284653563618158,-0.109
1748284653571304931,-0.11900000000000001
1748284653578991704,-0.126
1748284653586678477,-0.126
1748284653594365250,-0.124
1748284653602052023,-0.11900000000000001
1748284653609738796,-0.111
1748284653617425569,-0.10400000000000001
1748284653625112342,-0.10200000000000001
1748284653632799115,-0.10200000000000001
1748284653640485888,-0.099
1748284653648172661,-0.097
1748284653655859471,-0.097
1748284653663546244,-0.097
1748284653671233017,-0.097
1748284653678919790,-0.10200000000000001
1748284653686606563,-0.107
1748284653694293336,-0.107
1748284653701980109,-0.107
1748284653709666882,-0.107
1748284653717353655,-0.107
1748284653725040428,-0.109
1748284653732727201,-0.107
1748284653740413974,-0.107
1748284653748100747,-0.107
1748284653755787520,-0.10200000000000001
1748284653763474293,-0.10200000000000001
1748284653771161066,-0.10200000000000001
1748284653778847839,-0.099
1748284653786534612,-0.097
1748284653794221385,-0.097
1748284653801908158,-0.094
1748284653809594931,-0.09
1748284653817281704,-0.08700000000000001
1748284653824968477,-0.08700000000000001
1748284653832655250,-0.085
1748284653840342023,-0.085
1748284653848028796,-0.082
1748284653855715569,-0.08
1748284653863402342,-0.077
1748284653871089115,-0.077
1748284653878775888,-0.077
1748284653886462661,-0.075
1748284653894149434,-0.07200000000000001
1748284653901836207,-0.07
1748284653909522980,-0.068
1748284653917209753,-0.068
1748284653924896526,-0.068
1748284653932583299,-0.068
1748284653940270072,-0.063
1748284653947956845,-0.063
1748284653955643618,-0.065
1748284653963330391,-0.063
1748284653971017164,-0.06
1748284653978703937,-0.06
1748284653986390710,-0.058
1748284653994077483,-0.058
1748284654001764256,-0.055
1748284654009451029,-0.055
1748284654017137802,-0.06
1748284654024824575,-0.068
1748284654032511348,-0.068
1748284654040198121,-0.068
1748284654047884894,-0.06
1748284654055571667,-0.048
1748284654063258440,-0.038
1748284654070945213,-0.031
1748284654078631986,-0.014
1748284654086318759,-0.012
1748284654094005532,-0.041
1748284654101692305,-0.063
1748284654109379078,-0.058
1748284654117065851,-0.053
1748284654124752624,-0.055
1748284654132439397,-0.055
1748284654140126170,-0.051000000000000004
1748284654147812943,-0.065
1748284654155499716,-0.107
1748284654163186489,-0.029
1748284654170873262,0.447
1748284654178560035,1.133
1748284654186246808,1.182
1748284654193933581,0.248
1748284654201620354,-0.644
1748284654209307127,-0.588
1748284654216993937,-0.245,78,872
1748284654224680640,-0.233
1748284654232367343,-0.189
1748284654240054046,-0.055
1748284654247740749,-0.063
1748284654255427452,-0.085
1748284654263114155,-0.043000000000000003
1748284654270800858,-0.031
1748284654278487561,-0.041
1748284654286174264,-0.029
1748284654293860967,-0.014
1748284654301547670,-0.012
1748284654309234373,-0.007
1748284654316921076,0.002
1748284654324607779,0.009000000000000001
1748284654332294482,0.017
1748284654339981185,0.026000000000000002
1748284654347667888,0.034
1748284654355354591,0.038
1748284654363041294,0.043000000000000003
1748284654370727997,0.055
1748284654378414700,0.063
1748284654386101403,0.063
1748284654393788106,0.07200000000000001
1748284654401474809,0.09
1748284654409161512,0.097
1748284654416848215,0.10200000000000001
1748284654424534918,0.109
1748284654432221621,0.114
1748284654439908324,0.109
1748284654447595027,0.109
1748284654455281730,0.111
1748284654462968433,0.111
1748284654470655136,0.10400000000000001
1748284654478341839,0.08700000000000001
1748284654486028542,0.053
1748284654493715245,0.009000000000000001
1748284654501401948,-0.031
1748284654509088651,-0.068
1748284654516775354,-0.094
1748284654524462057,-0.114
1748284654532148760,-0.124
1748284654539835463,-0.128
1748284654547522166,-0.128
1748284654555208869,-0.124
1748284654562895572,-0.11900000000000001
1748284654570582275,-0.111
1748284654578268978,-0.107
1748284654585955681,-0.10400000000000001
1748284654593642384,-0.10200000000000001
1748284654601329087,-0.099
1748284654609015790,-0.097
1748284654616702493,-0.097
1748284654624389196,-0.097
1748284654632075899,-0.099
1748284654639762602,-0.10200000000000001
1748284654647449305,-0.10200000000000001
1748284654655136008,-0.10400000000000001
1748284654662822711,-0.10400000000000001
1748284654670509414,-0.10200000000000001
1748284654678196117,-0.10400000000000001
1748284654685882820,-0.10400000000000001
1748284654693569523,-0.10400000000000001
1748284654701256226,-0.107
1748284654708942929,-0.107
1748284654716629632,-0.10200000000000001
1748284654724316335,-0.099
1748284654732003038,-0.099
1748284654739689741,-0.097
1748284654747376444,-0.094
1748284654755063147,-0.092
1748284654762749850,-0.094
1748284654770436553,-0.092
1748284654778123316,-0.08700000000000001,77,866
1748284654785810019,-0.085
1748284654793496722,-0.08700000000000001
1748284654801183425,-0.09
1748284654808870128,-0.085
1748284654816556831,-0.077
1748284654824243534,-0.08
1748284654831930237,-0.082
1748284654839616940,-0.08
1748284654847303643,-0.075
1748284654854990346,-0.08
1748284654862677049,-0.08
1748284654870363752,-0.075
1748284654878050455,-0.07
1748284654885737158,-0.07200000000000001
1748284654893423861,-0.075
1748284654901110564,-0.08
1748284654908797267,-0.085
1748284654916483970,-0.082
1748284654924170673,-0.077
1748284654931857376,-0.07
1748284654939544079,-0.051000000000000004
1748284654947230782,-0.036000000000000004
1748284654954917485,-0.026000000000000002
1748284654962604188,-0.024
1748284654970290891,-0.038
1748284654977977594,-0.06
1748284654985664297,-0.065
1748284654993351000,-0.065
1748284655001037703,-0.07
1748284655008724406,-0.065
1748284655016411109,-0.06
1748284655024097812,-0.065
1748284655031784515,-0.094
1748284655039471218,-0.107
1748284655047157921,0.14100000000000001
1748284655054844624,0.8
1748284655062531327,1.27
1748284655070218030,0.751
1748284655077904733,-0.338
1748284655085591436,-0.742
1748284655093278139,-0.403
1748284655100964842,-0.23600000000000002
1748284655108651545,-0.25
1748284655116338248,-0.116
1748284655124024951,-0.046
1748284655131711654,-0.09
1748284655139398357,-0.07200000000000001
1748284655147085060,-0.036000000000000004
1748284655154771763,-0.041
1748284655162458466,-0.041
1748284655170145169,-0.024
1748284655177831872,-0.019
1748284655185518575,-0.014
1748284655193205278,-0.002
1748284655200891981,0.0
1748284655208578684,0.007
1748284655216265387,0.019
1748284655223952090,0.026000000000000002
1748284655231638793,0.034
1748284655239325496,0.043000000000000003
1748284655247012199,0.051000000000000004
1748284655254698902,0.06
1748284655262385605,0.07200000000000001
1748284655270072308,0.08700000000000001
1748284655277759011,0.097
1748284655285445714,0.111
1748284655293132417,0.121
1748284655300819120,0.128
1748284655308505823,0.131
1748284655316192526,0.133
1748284655323879229,0.133
1748284655331565932,0.128
1748284655339252695,0.126
1748284655346939398,0.114
1748284655354626101,0.09
1748284655362312804,0.048
1748284655369999507,0.0
1748284655377686210,-0.046
1748284655385372913,-0.08700000000000001
1748284655393059616,-0.121
1748284655400746319,-0.14300000000000002
1748284655408433022,-0.15
1748284655416119725,-0.15
1748284655423806428,-0.15
1748284655431493131,-0.15
1748284655439179834,-0.145
1748284655446866537,-0.133
1748284655454553240,-0.126
1748284655462239943,-0.126
1748284655469926646,-0.124
1748284655477613349,-0.116
1748284655485300052,-0.109
1748284655492986755,-0.107
1748284655500673458,-0.111
1748284655508360161,-0.114
1748284655516046864,-0.114
1748284655523733567,-0.116
1748284655531420270,-0.11900000000000001
1748284655539106973,-0.11900000000000001
1748284655546793676,-0.11900000000000001
1748284655554480379,-0.121
1748284655562167082,-0.124
1748284655569853785,-0.116
1748284655577540488,-0.114
1748284655585227191,-0.11900000000000001
1748284655592913894,-0.116
1748284655600600597,-0.111
1748284655608287300,-0.109
1748284655615974003,-0.111
1748284655623660706,-0.109
1748284655631347409,-0.107
1748284655639034112,-0.10400000000000001
1748284655646720815,-0.10200000000000001
1748284655654407518,-0.097
1748284655662094221,-0.099
1748284655669780924,-0.10200000000000001
1748284655677467627,-0.097
1748284655685154330,-0.092
1748284655692841033,-0.094
1748284655700527736,-0.097
1748284655708214439,-0.09
1748284655715901142,-0.085
1748284655723587845,-0.094
1748284655731274548,-0.099
1748284655738961251,-0.094
1748284655746647954,-0.08700000000000001
1748284655754334657,-0.075
1748284655762021360,-0.063
1748284655769708063,-0.053
1748284655777394766,-0.041
1748284655785081469,-0.046
1748284655792768172,-0.07
1748284655800454875,-0.082
1748284655808141578,-0.077
1748284655815828281,-0.077
1748284655823514984,-0.077
1748284655831201687,-0.075
1748284655838888390,-0.075
1748284655846575093,-0.09
1748284655854261796,-0.107
1748284655861948499,0.007
1748284655869635202,0.51
1748284655877321905,1.153
1748284655885008608,1.012
1748284655892695311,-0.07
1748284655900382074,-0.8240000000000001,75,925
1748284655908068777,-0.601,,961
1748284655915755480,-0.306
1748284655923442183,-0.323
1748284655931128886,-0.194
1748284655938815589,-0.031
1748284655946502292,-0.063
1748284655954188995,-0.085
1748284655961875698,-0.034
1748284655969562401,-0.024
1748284655977249104,-0.034
1748284655984935807,-0.014
1748284655992622510,-0.002
1748284656000309213,0.0
1748284656007995916,0.009000000000000001
1748284656015682619,0.021
1748284656023369322,0.024
1748284656031056025,0.036000000000000004
1748284656038742728,0.048
1748284656046429431,0.055
1748284656054116134,0.065
1748284656061802837,0.075
1748284656069489540,0.08700000000000001
1748284656077176243,0.099
1748284656084862946,0.111
1748284656092549649,0.126
1748284656100236352,0.14100000000000001
1748284656107923055,0.158
1748284656115609758,0.17
1748284656123296461,0.177
1748284656130983164,0.17500000000000002
1748284656138669867,0.17200000000000001
1748284656146356570,0.17200000000000001
1748284656154043273,0.167
1748284656161729976,0.15
1748284656169416679,0.11900000000000001
1748284656177103382,0.07200000000000001
1748284656184790085,0.017
1748284656192476788,-0.043000000000000003
1748284656200163491,-0.097
1748284656207850194,-0.136
1748284656215536897,-0.158
1748284656223223600,-0.165
1748284656230910303,-0.17
1748284656238597006,-0.167
1748284656246283709,-0.16
1748284656253970412,-0.15
1748284656261657115,-0.14100000000000001
1748284656269343818,-0.128
1748284656277030521,-0.116
1748284656284717224,-0.109
1748284656292403927,-0.107
1748284656300090630,-0.10400000000000001
1748284656307777333,-0.10400000000000001
1748284656315464036,-0.10400000000000001
1748284656323150739,-0.107
1748284656330837442,-0.107
1748284656338524145,-0.109
1748284656346210848,-0.116
1748284656353897551,-0.116
1748284656361584254,-0.116
1748284656369270957,-0.116
1748284656376957660,-0.116
1748284656384644363,-0.11900000000000001
1748284656392331066,-0.116
1748284656400017769,-0.116
1748284656407704472,-0.116
1748284656415391175,-0.111
1748284656423077878,-0.109
1748284656430764581,-0.107
1748284656438451284,-0.107
1748284656446137987,-0.10400000000000001
1748284656453824690,-0.10400000000000001
1748284656461511453,-0.099
1748284656469198087,-0.094
1748284656476884721,-0.094
1748284656484571355,-0.094
1748284656492257989,-0.094
1748284656499944623,-0.094
1748284656507631257,-0.099
1748284656515317891,-0.10400000000000001
1748284656523004525,-0.099
1748284656530691159,-0.08700000000000001
1748284656538377793,-0.07
1748284656546064427,-0.055
1748284656553751061,-0.043000000000000003
1748284656561437695,-0.038
1748284656569124329,-0.053
1748284656576810963,-0.075
1748284656584497597,-0.08
1748284656592184231,-0.075
1748284656599870865,-0.077
1748284656607557499,-0.077
1748284656615244133,-0.07200000000000001
1748284656622930767,-0.07200000000000001
1748284656630617401,-0.097
1748284656638304035,-0.121
1748284656645990669,0.082
1748284656653677303,0.722
1748284656661363937,1.2650000000000001
1748284656669050571,0.834
1748284656676737205,-0.296
1748284656684423839,-0.807
1748284656692110473,-0.46900000000000003
1748284656699797107,-0.25
1748284656707483741,-0.267
1748284656715170375,-0.131
1748284656722857009,-0.038
1748284656730543643,-0.082
1748284656738230277,-0.07200000000000001
1748284656745916911,-0.031
1748284656753603545,-0.034
1748284656761290179,-0.034
1748284656768976813,-0.014
1748284656776663447,-0.007
1748284656784350081,-0.009000000000000001
1748284656792036715,-0.002
1748284656799723349,0.007
1748284656807409983,0.012
1748284656815096617,0.021
1748284656822783251,0.031
1748284656830469885,0.038
1748284656838156519,0.048
1748284656845843153,0.055
1748284656853529787,0.07
1748284656861216421,0.082
1748284656868903055,0.097
1748284656876589689,0.114
1748284656884276323,0.131
1748284656891962957,0.145
1748284656899649591,0.158
1748284656907336225,0.165
1748284656915022859,0.17
1748284656922709493,0.17500000000000002
1748284656930396127,0.17200000000000001
1748284656938082761,0.163
1748284656945769395,0.14300000000000002
1748284656953456029,0.107
1748284656961142663,0.055
1748284656968829297,0.0
1748284656976515931,-0.053
1748284656984202565,-0.10200000000000001
1748284656991889199,-0.136
1748284656999575833,-0.16
1748284657007262467,-0.167
1748284657014949101,-0.167
1748284657022635749,-0.165,74,880
1748284657030322522,-0.16
1748284657038009295,-0.15
1748284657045696068,-0.14300000000000002
1748284657053382841,-0.136
1748284657061069614,-0.128
1748284657068756387,-0.124
1748284657076443160,-0.116
1748284657084129933,-0.114
1748284657091816706,-0.114
1748284657099503479,-0.114
1748284657107190252,-0.111
1748284657114877025,-0.111
1748284657122563798,-0.114
1748284657130250571,-0.116
1748284657137937344,-0.116
1748284657145624117,-0.116
1748284657153310890,-0.116
1748284657160997663,-0.116
1748284657168684436,-0.114
1748284657176371209,-0.111
1748284657184057982,-0.114
1748284657191744755,-0.116
1748284657199431528,-0.111
1748284657207118301,-0.109
1748284657214805074,-0.107
1748284657222491847,-0.10400000000000001
1748284657230178620,-0.10400000000000001
1748284657237865393,-0.10200000000000001
1748284657245552166,-0.099
1748284657253238939,-0.099
1748284657260925712,-0.097
1748284657268612485,-0.094
1748284657276299258,-0.097
1748284657283986031,-0.094
1748284657291672804,-0.09
1748284657299359577,-0.094
1748284657307046350,-0.099
1748284657314733123,-0.10200000000000001
1748284657322419896,-0.10200000000000001
1748284657330106669,-0.097
1748284657337793442,-0.08
1748284657345480215,-0.063
1748284657353166988,-0.053
1748284657360853761,-0.043000000000000003
1748284657368540534,-0.038
1748284657376227307,-0.058
1748284657383914080,-0.08
1748284657391600853,-0.077
1748284657399287626,-0.075
1748284657406974399,-0.082
1748284657414661172,-0.08
1748284657422347945,-0.075
1748284657430034718,-0.077
1748284657437721491,-0.114
1748284657445408264,-0.136
1748284657453095037,0.131
1748284657460781810,0.8320000000000001
1748284657468468583,1.33
1748284657476155356,0.8170000000000001
1748284657483842129,-0.294
1748284657491528902,-0.727
1748284657499215675,-0.386
1748284657506902448,-0.214
1748284657514589221,-0.243
1748284657522275994,-0.124
1748284657529962767,-0.063
1748284657537649540,-0.10400000000000001
1748284657545336313,-0.08700000000000001
1748284657553023086,-0.053
1748284657560709859,-0.058
1748284657568396632,-0.051000000000000004
1748284657576083405,-0.034
1748284657583770215,-0.029
1748284657591456918,-0.024
1748284657599143621,-0.014
1748284657606830324,-0.007
1748284657614517027,0.0
1748284657622203730,0.007
1748284657629890433,0.014
1748284657637577136,0.026000000000000002
1748284657645263839,0.036000000000000004
1748284657652950542,0.048
1748284657660637245,0.06
1748284657668323948,0.07200000000000001
1748284657676010651,0.08700000000000001
1748284657683697354,0.10200000000000001
1748284657691384057,0.11900000000000001
1748284657699070760,0.133
1748284657706757463,0.145
1748284657714444166,0.15
1748284657722130869,0.155
1748284657729817572,0.16
1748284657737504275,0.16
1748284657745190978,0.153
1748284657752877681,0.133
1748284657760564384,0.097
1748284657768251087,0.046
1748284657775937790,0.0
1748284657783624493,-0.048
1748284657791311196,-0.092
1748284657798997899,-0.128
1748284657806684602,-0.148
1748284657814371305,-0.155
1748284657822058008,-0.158
1748284657829744711,-0.155
1748284657837431414,-0.15
1748284657845118117,-0.14100000000000001
1748284657852804820,-0.136
1748284657860491523,-0.131
1748284657868178226,-0.126
1748284657875864929,-0.11900000000000001
1748284657883551632,-0.116
1748284657891238335,-0.116
1748284657898925038,-0.114
1748284657906611741,-0.109
1748284657914298444,-0.111
1748284657921985147,-0.114
1748284657929671850,-0.114
1748284657937358553,-0.111
1748284657945045256,-0.114
1748284657952731959,-0.116
1748284657960418662,-0.11900000000000001
1748284657968105365,-0.114
1748284657975792068,-0.111
1748284657983478771,-0.111
1748284657991165474,-0.111
1748284657998852177,-0.109
1748284658006538880,-0.109
1748284658014225583,-0.107
1748284658021912286,-0.107
1748284658029598989,-0.10400000000000001
1748284658037285692,-0.10200000000000001
1748284658044972395,-0.099
1748284658052659098,-0.099
1748284658060345801,-0.097
1748284658068032504,-0.094
1748284658075719207,-0.092
1748284658083405910,-0.092
1748284658091092613,-0.09
1748284658098779316,-0.08700000000000001
1748284658106466019,-0.085
1748284658114152722,-0.085
1748284658121839425,-0.082
1748284658129526128,-0.08
1748284658137212831,-0.08
1748284658144899594,-0.08,73,817
1748284658152586297,-0.077
1748284658160273000,-0.075
1748284658167959703,-0.07200000000000001
1748284658175646406,-0.07200000000000001
1748284658183333109,-0.07
1748284658191019812,-0.07
1748284658198706515,-0.068
1748284658206393218,-0.065
1748284658214079921,-0.063
1748284658221766624,-0.065
1748284658229453327,-0.068
1748284658237140030,-0.065
1748284658244826733,-0.063
1748284658252513436,-0.06
1748284658260200139,-0.06
1748284658267886842,-0.058
1748284658275573545,-0.065
1748284658283260248,-0.075
1748284658290946951,-0.075
1748284658298633654,-0.068
1748284658306320357,-0.06
1748284658314007060,-0.046
1748284658321693763,-0.034
1748284658329380466,-0.021
1748284658337067169,-0.012
1748284658344753872,-0.029
1748284658352440575,-0.058
1748284658360127278,-0.058
1748284658367813981,-0.053
1748284658375500684,-0.063
1748284658383187387,-0.063
1748284658390874090,-0.055
1748284658398560793,-0.058
1748284658406247496,-0.082
1748284658413934199,-0.126
1748284658421620902,0.012
1748284658429307605,0.603
1748284658436994308,1.262
1748284658444681011,1.109
1748284658452367714,0.075
1748284658460054417,-0.676
1748284658467741120,-0.496
1748284658475427823,-0.214
1748284658483114526,-0.245
1748284658490801229,-0.17500000000000002
1748284658498487932,-0.065
1748284658506174635,-0.092
1748284658513861338,-0.099
1748284658521548041,-0.055
1748284658529234744,-0.053
1748284658536921447,-0.058
1748284658544608150,-0.041
1748284658552294853,-0.029
1748284658559981556,-0.031
1748284658567668259,-0.024
1748284658575354962,-0.014
1748284658583041665,-0.007
1748284658590728368,0.002
1748284658598415071,0.009000000000000001
1748284658606101774,0.017
1748284658613788477,0.029
1748284658621475180,0.038
1748284658629161883,0.043000000000000003
1748284658636848586,0.053
1748284658644535289,0.068
1748284658652221992,0.08
1748284658659908695,0.09
1748284658667595398,0.10200000000000001
1748284658675282101,0.116
1748284658682968804,0.126
1748284658690655507,0.136
1748284658698342210,0.14100000000000001
1748284658706028973,0.14100000000000001
1748284658713715676,0.14100000000000001
1748284658721402379,0.14100000000000001
1748284658729089082,0.126
1748284658736775785,0.099
1748284658744462488,0.058
1748284658752149191,0.012
1748284658759835894,-0.036000000000000004
1748284658767522597,-0.08
1748284658775209300,-0.109
1748284658782896003,-0.128
1748284658790582706,-0.14100000000000001
1748284658798269409,-0.14300000000000002
1748284658805956112,-0.145
1748284658813642815,-0.145
1748284658821329518,-0.138
1748284658829016221,-0.131
1748284658836702924,-0.128
1748284658844389627,-0.124
1748284658852076330,-0.116
1748284658859763033,-0.114
1748284658867449736,-0.114
1748284658875136439,-0.111
1748284658882823142,-0.109
1748284658890509845,-0.111
1748284658898196548,-0.114
1748284658905883251,-0.114
1748284658913569954,-0.111
1748284658921256657,-0.114
1748284658928943360,-0.116
1748284658936630063,-0.114
1748284658944316766,-0.116
1748284658952003469,-0.116
1748284658959690172,-0.116
1748284658967376875,-0.116
1748284658975063578,-0.114
1748284658982750281,-0.114
1748284658990436984,-0.111
1748284658998123687,-0.111
1748284659005810390,-0.109
1748284659013497093,-0.107
1748284659021183796,-0.10400000000000001
1748284659028870499,-0.10200000000000001
1748284659036557202,-0.099
1748284659044243905,-0.099
1748284659051930608,-0.099
1748284659059617311,-0.097
1748284659067304014,-0.092
1748284659074990717,-0.094
1748284659082677420,-0.092
1748284659090364123,-0.09
1748284659098050826,-0.08700000000000001
1748284659105737529,-0.08700000000000001
1748284659113424232,-0.082
1748284659121110935,-0.082
1748284659128797638,-0.085
1748284659136484341,-0.082
1748284659144171044,-0.075
1748284659151857747,-0.07200000000000001
1748284659159544450,-0.07200000000000001
1748284659167231153,-0.075
1748284659174917856,-0.07200000000000001
1748284659182604559,-0.07
1748284659190291262,-0.068
1748284659197977965,-0.068
1748284659205664668,-0.068
1748284659213351371,-0.068
1748284659221038074,-0.068
1748284659228724777,-0.065
1748284659236411480,-0.063
1748284659244098183,-0.063
1748284659251784886,-0.06
1748284659259471589,-0.06
1748284659267158352,-0.06,73,782
1748284659274845055,-0.06
1748284659282531758,-0.058
1748284659290218461,-0.058
1748284659297905164,-0.058
1748284659305591867,-0.068
1748284659313278570,-0.07200000000000001
1748284659320965273,-0.07
1748284659328651976,-0.068
1748284659336338679,-0.06
1748284659344025382,-0.048
1748284659351712085,-0.036000000000000004
1748284659359398788,-0.024
1748284659367085491,-0.019
1748284659374772194,-0.041
1748284659382458897,-0.06
1748284659390145600,-0.06
1748284659397832303,-0.058
1748284659405519006,-0.063
1748284659413205709,-0.06
1748284659420892412,-0.06
1748284659428579115,-0.068
1748284659436265818,-0.10400000000000001
1748284659443952521,-0.111
1748284659451639224,0.184
1748284659459325927,0.89
1748284659467012630,1.333
1748284659474699333,0.764
1748284659482386036,-0.335
1748284659490072739,-0.71
1748284659497759442,-0.36
1748284659505446145,-0.218
1748284659513132848,-0.253
1748284659520819551,-0.126
1748284659528506254,-0.065
1748284659536192957,-0.111
1748284659543879660,-0.08700000000000001
1748284659551566363,-0.051000000000000004
1748284659559253066,-0.063
1748284659566939769,-0.058
1748284659574626472,-0.034
1748284659582313175,-0.029
1748284659589999878,-0.029
1748284659597686581,-0.019
1748284659605373284,-0.009000000000000001
1748284659613059987,-0.004
1748284659620746690,0.002
1748284659628433393,0.014
1748284659636120096,0.021
1748284659643806799,0.026000000000000002
1748284659651493502,0.036000000000000004
1748284659659180205,0.048
1748284659666866908,0.06
1748284659674553611,0.07200000000000001
1748284659682240314,0.08700000000000001
1748284659689927017,0.10200000000000001
1748284659697613720,0.116
1748284659705300423,0.128
1748284659712987126,0.136
1748284659720673829,0.138
1748284659728360532,0.14100000000000001
1748284659736047235,0.14100000000000001
1748284659743733938,0.136
1748284659751420641,0.128
1748284659759107344,0.114
1748284659766794047,0.08
1748284659774480750,0.034
1748284659782167453,-0.012
1748284659789854156,-0.055
1748284659797540859,-0.094
1748284659805227562,-0.126
1748284659812914265,-0.14300000000000002
1748284659820600968,-0.15
1748284659828287731,-0.155,73,807
1748284659835974365,-0.158
1748284659843660999,-0.148
1748284659851347633,-0.138
1748284659859034267,-0.136
1748284659866720901,-0.133
1748284659874407535,-0.126
1748284659882094169,-0.116
1748284659889780803,-0.114
1748284659897467437,-0.116
1748284659905154071,-0.114
1748284659912840705,-0.109
1748284659920527339,-0.107
1748284659928213973,-0.107
1748284659935900607,-0.109
1748284659943587241,-0.109
1748284659951273875,-0.114
1748284659958960509,-0.116
1748284659966647143,-0.114
1748284659974333777,-0.114
1748284659982020411,-0.11900000000000001
1748284659989707045,-0.11900000000000001
1748284659997393679,-0.114
1748284660005080313,-0.111
1748284660012766947,-0.109
1748284660020453581,-0.109
1748284660028140215,-0.109
1748284660035826849,-0.10400000000000001
1748284660043513483,-0.099
1748284660051200117,-0.10200000000000001
1748284660058886751,-0.10400000000000001
1748284660066573385,-0.097
1748284660074260019,-0.094
1748284660081946653,-0.094
1748284660089633287,-0.094
1748284660097319921,-0.092
1748284660105006555,-0.09
1748284660112693189,-0.085
1748284660120379823,-0.08
1748284660128066457,-0.08
1748284660135753091,-0.082
1748284660143439725,-0.08
1748284660151126359,-0.08
1748284660158812993,-0.08
1748284660166499627,-0.075
1748284660174186261,-0.07
1748284660181872895,-0.07200000000000001
1748284660189559529,-0.07200000000000001
1748284660197246163,-0.07
1748284660204932797,-0.07
1748284660212619431,-0.07
1748284660220306065,-0.068
1748284660227992699,-0.065
1748284660235679333,-0.065
1748284660243365967,-0.065
1748284660251052601,-0.063
1748284660258739235,-0.063
1748284660266425869,-0.063
1748284660274112503,-0.06
1748284660281799137,-0.06
1748284660289485771,-0.065
1748284660297172405,-0.068
1748284660304859039,-0.065
1748284660312545673,-0.063
1748284660320232307,-0.058
1748284660327918941,-0.046
1748284660335605575,-0.034
1748284660343292209,-0.019
1748284660350978843,-0.017
1748284660358665477,-0.036000000000000004
1748284660366352111,-0.058
1748284660374038745,-0.06
1748284660381725379,-0.06
1748284660389412027,-0.063
1748284660397098800,-0.058
1748284660404785573,-0.055
1748284660412472346,-0.065
1748284660420159119,-0.08
1748284660427845892,-0.063
1748284660435532665,0.218
1748284660443219438,0.866
1748284660450906211,1.233
1748284660458592984,0.586
1748284660466279757,-0.484
1748284660473966530,-0.761
1748284660481653303,-0.406
1748284660489340076,-0.289
1748284660497026849,-0.279
1748284660504713622,-0.10200000000000001
1748284660512400395,-0.031
1748284660520087168,-0.077
1748284660527773941,-0.055
1748284660535460714,-0.019
1748284660543147487,-0.026000000000000002
1748284660550834260,-0.021
1748284660558521033,-0.007
1748284660566207806,-0.002
1748284660573894579,0.004
1748284660581581352,0.012
1748284660589268125,0.017
1748284660596954898,0.024
1748284660604641671,0.036000000000000004
1748284660612328444,0.043000000000000003
1748284660620015217,0.051000000000000004
1748284660627701990,0.058
1748284660635388763,0.068
1748284660643075536,0.08
1748284660650762309,0.092
1748284660658449082,0.10200000000000001
1748284660666135855,0.116
1748284660673822628,0.133
1748284660681509401,0.145
1748284660689196174,0.16
1748284660696882947,0.17200000000000001
1748284660704569720,0.177
1748284660712256493,0.18
1748284660719943266,0.182
1748284660727630039,0.18
1748284660735316812,0.17
1748284660743003585,0.145
1748284660750690358,0.10200000000000001
1748284660758377131,0.048
1748284660766063904,-0.007
1748284660773750677,-0.06
1748284660781437450,-0.109
1748284660789124223,-0.14300000000000002
1748284660796810996,-0.16
1748284660804497769,-0.167
1748284660812184542,-0.167
1748284660819871315,-0.163
1748284660827558088,-0.155
1748284660835244861,-0.145
1748284660842931634,-0.136
1748284660850618407,-0.126
1748284660858305180,-0.116
1748284660865991953,-0.109
1748284660873678726,-0.10200000000000001
1748284660881365499,-0.099
1748284660889052272,-0.099
1748284660896739045,-0.097
1748284660904425818,-0.094
1748284660912112591,-0.097
1748284660919799364,-0.099
1748284660927486137,-0.10200000000000001
1748284660935172910,-0.10400000000000001
1748284660942859683,-0.109
1748284660950546493,-0.111,73,971
1748284660958232848,-0.109
1748284660965919203,-0.109
1748284660973605558,-0.114
1748284660981291913,-0.111
1748284660988978268,-0.109
1748284660996664623,-0.109
1748284661004350978,-0.109
1748284661012037333,-0.107
1748284661019723688,-0.10400000000000001
1748284661027410043,-0.10200000000000001
1748284661035096398,-0.099
1748284661042782753,-0.099
1748284661050469108,-0.099
1748284661058155463,-0.097
1748284661065841818,-0.092
1748284661073528173,-0.09
1748284661081214528,-0.08700000000000001
1748284661088900883,-0.09
1748284661096587238,-0.09
1748284661104273593,-0.08700000000000001
1748284661111959948,-0.082
1748284661119646303,-0.08
1748284661127332658,-0.07200000000000001
1748284661135019013,-0.065
1748284661142705368,-0.063
1748284661150391723,-0.07
1748284661158078078,-0.082
1748284661165764433,-0.077
1748284661173450788,-0.065
1748284661181137143,-0.055
1748284661188823498,-0.053
1748284661196509853,-0.075
1748284661204196208,-0.085
1748284661211882563,-0.065
1748284661219568918,-0.053
1748284661227255273,-0.063
1748284661234941628,-0.082
1748284661242627983,-0.075
1748284661250314338,-0.058
1748284661258000693,-0.06
1748284661265687048,-0.063
1748284661273373403,-0.041
1748284661281059758,-0.029
1748284661288746113,-0.068
1748284661296432468,-0.09
1748284661304118823,-0.055
1748284661311805178,-0.051000000000000004
1748284661319491533,-0.082
1748284661327177888,-0.07
1748284661334864243,-0.068
1748284661342550598,-0.08700000000000001
1748284661350236953,-0.068
1748284661357923308,-0.036000000000000004
1748284661365609663,-0.034
1748284661373296018,-0.021
1748284661380982373,0.002
1748284661388668728,-0.031
1748284661396355083,-0.077
1748284661404041438,-0.068
1748284661411727793,-0.06
1748284661419414148,-0.075
1748284661427100503,-0.051000000000000004
1748284661434786858,-0.046
1748284661442473213,-0.08700000000000001
1748284661450159568,-0.10400000000000001
1748284661457845923,-0.114
1748284661465532278,0.051000000000000004
1748284661473218633,0.6980000000000001
1748284661480904988,1.348
1748284661488591343,1.075
1748284661496277698,-0.012
1748284661503964053,-0.671
1748284661511650441,-0.437
1748284661519337214,-0.20600000000000002
1748284661527023987,-0.243
1748284661534710760,-0.158
1748284661542397533,-0.085
1748284661550084306,-0.116
1748284661557771079,-0.097
1748284661565457852,-0.058
1748284661573144625,-0.06
1748284661580831398,-0.055
1748284661588518171,-0.043000000000000003
1748284661596204944,-0.036000000000000004
1748284661603891717,-0.029
1748284661611578490,-0.021
1748284661619265263,-0.014
1748284661626952036,-0.007
1748284661634638809,-0.002
1748284661642325582,0.009000000000000001
1748284661650012355,0.026000000000000002
1748284661657699128,0.034
1748284661665385901,0.043000000000000003
1748284661673072674,0.048
1748284661680759447,0.046
1748284661688446220,0.065
1748284661696132993,0.097
1748284661703819766,0.111
1748284661711506539,0.121
1748284661719193312,0.136
1748284661726880085,0.148
1748284661734566858,0.17
1748284661742253631,0.184
1748284661749940404,0.182
1748284661757627177,0.17200000000000001
1748284661765313950,0.163
1748284661773000723,0.145
1748284661780687496,0.114
1748284661788374269,0.068
1748284661796061042,0.014
1748284661803747815,-0.034
1748284661811434588,-0.075
1748284661819121361,-0.111
1748284661826808134,-0.136
1748284661834494907,-0.153
1748284661842181680,-0.165
1748284661849868453,-0.158
1748284661857555226,-0.148
1748284661865241999,-0.15
1748284661872928772,-0.153
1748284661880615545,-0.14100000000000001
1748284661888302318,-0.128
1748284661895989091,-0.128
1748284661903675864,-0.128
1748284661911362637,-0.121
1748284661919049410,-0.11900000000000001
1748284661926736183,-0.121
1748284661934422956,-0.124
1748284661942109729,-0.121
1748284661949796502,-0.11900000000000001
1748284661957483275,-0.121
1748284661965170048,-0.11900000000000001
1748284661972856821,-0.121
1748284661980543594,-0.126
1748284661988230367,-0.126
1748284661995917140,-0.121
1748284662003603913,-0.121
1748284662011290686,-0.11900000000000001
1748284662018977459,-0.116
1748284662026664232,-0.124
1748284662034351005,-0.124
1748284662042037778,-0.116
1748284662049724551,-0.111
1748284662057411324,-0.114
1748284662065098097,-0.111
1748284662072784907,-0.10400000000000001,73,1027
1748284662080471680,-0.10400000000000001
1748284662088158453,-0.107
1748284662095845226,-0.107
1748284662103531999,-0.10400000000000001
1748284662111218772,-0.10200000000000001
1748284662118905545,-0.099
1748284662126592318,-0.094
1748284662134279091,-0.09
1748284662141965864,-0.085
1748284662149652637,-0.092
1748284662157339410,-0.10200000000000001
1748284662165026183,-0.097
1748284662172712956,-0.08700000000000001
1748284662180399729,-0.08700000000000001
1748284662188086502,-0.09
1748284662195773275,-0.085
1748284662203460048,-0.077
1748284662211146821,-0.08
1748284662218833594,-0.082
1748284662226520367,-0.09
1748284662234207140,-0.094
1748284662241893913,-0.085
1748284662249580686,-0.075
1748284662257267459,-0.08
1748284662264954232,-0.077
1748284662272641005,-0.075
1748284662280327778,-0.077
1748284662288014551,-0.077
1748284662295701324,-0.07200000000000001
1748284662303388097,-0.07200000000000001
1748284662311074870,-0.07
1748284662318761643,-0.07200000000000001
1748284662326448416,-0.075
1748284662334135189,-0.07
1748284662341821962,-0.065
1748284662349508735,-0.068
1748284662357195508,-0.07200000000000001
1748284662364882281,-0.08
1748284662372569054,-0.082
1748284662380255827,-0.077
1748284662387942600,-0.068
1748284662395629373,-0.055
1748284662403316146,-0.043000000000000003
1748284662411002919,-0.034
1748284662418689692,-0.021
1748284662426376465,-0.031
1748284662434063238,-0.055
1748284662441750011,-0.06
1748284662449436784,-0.058
1748284662457123557,-0.068
1748284662464810330,-0.065
1748284662472497103,-0.058
1748284662480183876,-0.063
1748284662487870649,-0.094
1748284662495557422,-0.124
1748284662503244195,0.065
1748284662510930968,0.6910000000000001
1748284662518617741,1.289
1748284662526304514,1.0090000000000001
1748284662533991287,-0.053
1748284662541678060,-0.7030000000000001
1748284662549364833,-0.47200000000000003
1748284662557051606,-0.233
1748284662564738379,-0.267
1748284662572425152,-0.165
1748284662580111925,-0.055
1748284662587798698,-0.092
1748284662595485471,-0.092
1748284662603172244,-0.048
1748284662610859017,-0.051000000000000004
1748284662618545790,-0.053
1748284662626232563,-0.031
1748284662633919373,-0.026000000000000002
1748284662641605867,-0.026000000000000002
1748284662649292361,-0.014
1748284662656978855,-0.007
1748284662664665349,-0.004
1748284662672351843,0.004
1748284662680038337,0.014
1748284662687724831,0.021
1748284662695411325,0.029
1748284662703097819,0.038
1748284662710784313,0.051000000000000004
1748284662718470807,0.06
1748284662726157301,0.07200000000000001
1748284662733843795,0.085
1748284662741530289,0.10200000000000001
1748284662749216783,0.116
1748284662756903277,0.131
1748284662764589771,0.145
1748284662772276265,0.153
1748284662779962759,0.158
1748284662787649253,0.163
1748284662795335747,0.16
1748284662803022241,0.15
1748284662810708735,0.133
1748284662818395229,0.109
1748284662826081723,0.068
1748284662833768217,0.014
1748284662841454711,-0.031
1748284662849141205,-0.075
1748284662856827699,-0.116
1748284662864514193,-0.148
1748284662872200687,-0.165
1748284662879887181,-0.167
1748284662887573675,-0.167
1748284662895260169,-0.167
1748284662902946663,-0.16
1748284662910633157,-0.15
1748284662918319651,-0.145
1748284662926006145,-0.14300000000000002
1748284662933692639,-0.133
1748284662941379133,-0.126
1748284662949065627,-0.121
1748284662956752121,-0.11900000000000001
1748284662964438615,-0.11900000000000001
1748284662972125109,-0.11900000000000001
1748284662979811603,-0.11900000000000001
1748284662987498097,-0.11900000000000001
1748284662995184591,-0.121
1748284663002871085,-0.121
1748284663010557579,-0.121
1748284663018244073,-0.126
1748284663025930567,-0.128
1748284663033617061,-0.124
1748284663041303555,-0.121
1748284663048990049,-0.124
1748284663056676543,-0.128
1748284663064363037,-0.124
1748284663072049531,-0.121
1748284663079736025,-0.11900000000000001
1748284663087422519,-0.116
1748284663095109013,-0.116
1748284663102795507,-0.116
1748284663110482001,-0.111
1748284663118168495,-0.111
1748284663125854989,-0.109
1748284663133541483,-0.109
1748284663141227977,-0.107
1748284663148914471,-0.10200000000000001
1748284663156600965,-0.099
1748284663164287459,-0.10200000000000001
1748284663171973953,-0.10400000000000001
1748284663179660447,-0.099
1748284663187346941,-0.092
1748284663195033491,-0.092,72,983
1748284663202720194,-0.094
1748284663210406897,-0.092
1748284663218093600,-0.092
1748284663225780303,-0.092
1748284663233467006,-0.09
1748284663241153709,-0.08700000000000001
1748284663248840412,-0.08700000000000001
1748284663256527115,-0.085
1748284663264213818,-0.082
1748284663271900521,-0.082
1748284663279587224,-0.08
1748284663287273927,-0.077
1748284663294960630,-0.077
1748284663302647333,-0.077
1748284663310334036,-0.07200000000000001
1748284663318020739,-0.068
1748284663325707442,-0.068
1748284663333394145,-0.07200000000000001
1748284663341080848,-0.08
1748284663348767551,-0.082
1748284663356454254,-0.08
1748284663364140957,-0.075
1748284663371827660,-0.068
1748284663379514363,-0.051000000000000004
1748284663387201066,-0.036000000000000004
1748284663394887769,-0.029
1748284663402574472,-0.024
1748284663410261175,-0.034
1748284663417947878,-0.06
1748284663425634581,-0.068
1748284663433321284,-0.063
1748284663441007987,-0.065
1748284663448694690,-0.065
1748284663456381393,-0.06
1748284663464068096,-0.065
1748284663471754799,-0.08700000000000001
1748284663479441502,-0.11900000000000001
1748284663487128205,0.046
1748284663494814908,0.644
1748284663502501611,1.26
1748284663510188314,1.041
1748284663517875017,0.009000000000000001
1748284663525561720,-0.681
1748284663533248423,-0.491
1748284663540935126,-0.23600000000000002
1748284663548621829,-0.262
1748284663556308532,-0.17500000000000002
1748284663563995235,-0.058
1748284663571681938,-0.08700000000000001
1748284663579368641,-0.097
1748284663587055344,-0.053
1748284663594742047,-0.048
1748284663602428750,-0.051000000000000004
1748284663610115453,-0.034
1748284663617802156,-0.024
1748284663625488859,-0.024
1748284663633175562,-0.014
1748284663640862265,-0.002
1748284663648548968,0.004
1748284663656235671,0.012
1748284663663922374,0.019
1748284663671609077,0.031
1748284663679295780,0.041
1748284663686982483,0.048
1748284663694669186,0.058
1748284663702355889,0.07
1748284663710042592,0.085
1748284663717729295,0.097
1748284663725415998,0.111
1748284663733102701,0.128
1748284663740789404,0.145
1748284663748476107,0.158
1748284663756162870,0.165,70,1032
1748284663763849573,0.17
1748284663771536276,0.17500000000000002
1748284663779222979,0.17200000000000001
1748284663786909682,0.16
1748284663794596385,0.14300000000000002
1748284663802283088,0.111
1748284663809969791,0.065
1748284663817656494,0.014
1748284663825343197,-0.036000000000000004
1748284663833029900,-0.08
1748284663840716603,-0.11900000000000001
1748284663848403306,-0.145
1748284663856090009,-0.158
1748284663863776712,-0.167
1748284663871463415,-0.17
1748284663879150118,-0.165
1748284663886836821,-0.158
1748284663894523524,-0.153
1748284663902210227,-0.148
1748284663909896930,-0.136
1748284663917583633,-0.124
1748284663925270336,-0.121
1748284663932957039,-0.11900000000000001
1748284663940643742,-0.109
1748284663948330445,-0.109
1748284663956017148,-0.111
1748284663963703851,-0.109
1748284663971390554,-0.107
1748284663979077257,-0.109
1748284663986763960,-0.107
1748284663994450663,-0.107
1748284664002137366,-0.109
1748284664009824069,-0.114
1748284664017510772,-0.116
1748284664025197475,-0.114
1748284664032884178,-0.114
1748284664040570881,-0.111
1748284664048257584,-0.109
1748284664055944287,-0.10400000000000001
1748284664063630990,-0.10200000000000001
1748284664071317693,-0.10200000000000001
1748284664079004396,-0.10400000000000001
1748284664086691099,-0.10200000000000001
1748284664094377802,-0.099
1748284664102064505,-0.097
1748284664109751208,-0.097
1748284664117437911,-0.092
1748284664125124614,-0.09
1748284664132811317,-0.092
1748284664140498020,-0.08700000000000001
1748284664148184723,-0.077
1748284664155871426,-0.082
1748284664163558129,-0.08700000000000001
1748284664171244832,-0.085
1748284664178931535,-0.082
1748284664186618238,-0.082
1748284664194304941,-0.08
1748284664201991644,-0.077
1748284664209678347,-0.07200000000000001
1748284664217365050,-0.07200000000000001
1748284664225051753,-0.08
1748284664232738456,-0.082
1748284664240425159,-0.08
1748284664248111862,-0.077
1748284664255798565,-0.075
1748284664263485268,-0.063
1748284664271171971,-0.046
1748284664278858674,-0.036000000000000004
1748284664286545377,-0.026000000000000002
1748284664294232080,-0.031
1748284664301918783,-0.055
1748284664309605486,-0.065
1748284664317292249,-0.063
1748284664324978952,-0.068
1748284664332665655,-0.07
1748284664340352358,-0.065
1748284664348039061,-0.068
1748284664355725764,-0.077
1748284664363412467,-0.094
1748284664371099170,0.002
1748284664378785873,0.47600000000000003
1748284664386472576,1.141
1748284664394159279,1.1260000000000001
1748284664401845982,0.131
1748284664409532685,-0.732
1748284664417219388,-0.637
1748284664424906091,-0.323
1748284664432592794,-0.316
1748284664440279497,-0.228
1748284664447966200,-0.06
1748284664455652903,-0.058
1748284664463339606,-0.08
1748284664471026309,-0.036000000000000004
1748284664478713012,-0.024
1748284664486399715,-0.029
1748284664494086418,-0.014
1748284664501773121,-0.004
1748284664509459824,0.0
1748284664517146527,0.007
1748284664524833230,0.012
1748284664532519933,0.014
1748284664540206636,0.024
1748284664547893339,0.038
1748284664555580042,0.053
1748284664563266745,0.065
1748284664570953448,0.068
1748284664578640151,0.075
1748284664586326854,0.092
1748284664594013557,0.107
1748284664601700260,0.126
1748284664609386963,0.148
1748284664617073666,0.165
1748284664624760369,0.182
1748284664632447072,0.199
1748284664640133775,0.20600000000000002
1748284664647820478,0.20600000000000002
1748284664655507181,0.20400000000000001
1748284664663193884,0.197
1748284664670880587,0.187
1748284664678567290,0.163
1748284664686253993,0.121
1748284664693940696,0.068
1748284664701627399,0.009000000000000001
1748284664709314102,-0.046
1748284664717000805,-0.10200000000000001
1748284664724687508,-0.148
1748284664732374211,-0.177
1748284664740060914,-0.189
1748284664747747617,-0.194
1748284664755434320,-0.192
1748284664763121023,-0.184
1748284664770807726,-0.17200000000000001
1748284664778494429,-0.165
1748284664786181132,-0.158
1748284664793867835,-0.145
1748284664801554538,-0.133
1748284664809241241,-0.124
1748284664816927944,-0.11900000000000001
1748284664824614647,-0.114
1748284664832301350,-0.107
1748284664839988053,-0.107
1748284664847674756,-0.109
1748284664855361459,-0.109
1748284664863048162,-0.109
1748284664870734865,-0.111
1748284664878421632,-0.116,69,1037
1748284664886108335,-0.116
1748284664893795038,-0.116
1748284664901481741,-0.11900000000000001
1748284664909168444,-0.11900000000000001
1748284664916855147,-0.116
1748284664924541850,-0.116
1748284664932228553,-0.116
1748284664939915256,-0.114
1748284664947601959,-0.114
1748284664955288662,-0.114
1748284664962975365,-0.111
1748284664970662068,-0.109
1748284664978348771,-0.10400000000000001
1748284664986035474,-0.10400000000000001
1748284664993722177,-0.10200000000000001
1748284665001408880,-0.097
1748284665009095583,-0.099
1748284665016782286,-0.097
1748284665024468989,-0.092
1748284665032155692,-0.09
1748284665039842395,-0.092
1748284665047529098,-0.097
1748284665055215801,-0.099
1748284665062902504,-0.10200000000000001
1748284665070589207,-0.099
1748284665078275910,-0.085
1748284665085962613,-0.065
1748284665093649316,-0.053
1748284665101336019,-0.051000000000000004
1748284665109022722,-0.041
1748284665116709425,-0.046
1748284665124396128,-0.07200000000000001
1748284665132082831,-0.082
1748284665139769534,-0.075
1748284665147456237,-0.077
1748284665155142940,-0.075
1748284665162829643,-0.07
1748284665170516346,-0.07200000000000001
1748284665178203049,-0.097
1748284665185889752,-0.14300000000000002
1748284665193576455,-0.024
1748284665201263158,0.537
1748284665208949861,1.226
1748284665216636564,1.1460000000000001
1748284665224323267,0.124
1748284665232009970,-0.708
1748284665239696673,-0.579
1748284665247383376,-0.257
1748284665255070079,-0.262
1748284665262756782,-0.197
1748284665270443485,-0.065
1748284665278130188,-0.082
1748284665285816891,-0.099
1748284665293503594,-0.055
1748284665301190297,-0.048
1748284665308877000,-0.055
1748284665316563703,-0.038
1748284665324250406,-0.031
1748284665331937109,-0.031
1748284665339623812,-0.021
1748284665347310515,-0.012
1748284665354997218,-0.004
1748284665362683921,0.0
1748284665370370624,0.007
1748284665378057327,0.014
1748284665385744030,0.024
1748284665393430733,0.036000000000000004
1748284665401117436,0.048
1748284665408804139,0.06
1748284665416490842,0.075
1748284665424177545,0.09
1748284665431864248,0.107
1748284665439551011,0.126
1748284665447237714,0.145
1748284665454924417,0.16
1748284665462611120,0.17200000000000001
1748284665470297823,0.177
1748284665477984526,0.18
1748284665485671229,0.17500000000000002
1748284665493357932,0.165
1748284665501044635,0.14100000000000001
1748284665508731338,0.10200000000000001
1748284665516418041,0.053
1748284665524104744,-0.002
1748284665531791447,-0.058
1748284665539478150,-0.10400000000000001
1748284665547164853,-0.138
1748284665554851556,-0.158
1748284665562538259,-0.167
1748284665570224962,-0.17
1748284665577911665,-0.167
1748284665585598368,-0.163
1748284665593285071,-0.155
1748284665600971774,-0.148
1748284665608658477,-0.14100000000000001
1748284665616345180,-0.133
1748284665624031883,-0.128
1748284665631718586,-0.128
1748284665639405289,-0.126
1748284665647091992,-0.11900000000000001
1748284665654778695,-0.11900000000000001
1748284665662465398,-0.11900000000000001
1748284665670152101,-0.11900000000000001
1748284665677838804,-0.11900000000000001
1748284665685525507,-0.11900000000000001
1748284665693212210,-0.11900000000000001
1748284665700898913,-0.11900000000000001
1748284665708585616,-0.11900000000000001
1748284665716272319,-0.121
1748284665723959022,-0.11900000000000001
1748284665731645725,-0.114
1748284665739332428,-0.114
1748284665747019131,-0.114
1748284665754705834,-0.114
1748284665762392537,-0.109
1748284665770079240,-0.10400000000000001
1748284665777765943,-0.10200000000000001
1748284665785452646,-0.10200000000000001
1748284665793139349,-0.10200000000000001
1748284665800826052,-0.099
1748284665808512755,-0.097
1748284665816199458,-0.097
1748284665823886161,-0.092
1748284665831572864,-0.09
1748284665839259567,-0.08700000000000001
1748284665846946270,-0.082
1748284665854632973,-0.082
1748284665862319676,-0.085
1748284665870006379,-0.082
1748284665877693082,-0.082
1748284665885379785,-0.08
1748284665893066488,-0.077
1748284665900753191,-0.075
1748284665908439894,-0.07200000000000001
1748284665916126597,-0.07200000000000001
1748284665923813300,-0.08
1748284665931500003,-0.09
1748284665939186706,-0.085
1748284665946873409,-0.082
1748284665954560112,-0.077
1748284665962246815,-0.058
1748284665969933518,-0.041
1748284665977620221,-0.038
1748284665985306924,-0.031
1748284665992993627,-0.034
1748284666000680390,-0.055,68,984
1748284666008367093,-0.07200000000000001
1748284666016053796,-0.07
1748284666023740499,-0.068
1748284666031427202,-0.07
1748284666039113905,-0.068
1748284666046800608,-0.065
1748284666054487311,-0.085
1748284666062174014,-0.133
1748284666069860717,-0.053
1748284666077547420,0.452
1748284666085234123,1.172
1748284666092920826,1.248
1748284666100607529,0.34
1748284666108294232,-0.579
1748284666115980935,-0.5760000000000001
1748284666123667638,-0.243
1748284666131354341,-0.23600000000000002
1748284666139041044,-0.211
1748284666146727747,-0.085
1748284666154414450,-0.09
1748284666162101153,-0.116
1748284666169787856,-0.07200000000000001
1748284666177474559,-0.06
1748284666185161262,-0.07
1748284666192847965,-0.053
1748284666200534668,-0.041
1748284666208221371,-0.043000000000000003
1748284666215908074,-0.036000000000000004
1748284666223594777,-0.021
1748284666231281480,-0.014
1748284666238968183,-0.009000000000000001
1748284666246654886,-0.002
1748284666254341589,0.004
1748284666262028292,0.014
1748284666269714995,0.024
1748284666277401698,0.034
1748284666285088401,0.046
1748284666292775104,0.058
1748284666300461807,0.068
1748284666308148510,0.082
1748284666315835213,0.10200000000000001
1748284666323521916,0.121
1748284666331208619,0.133
1748284666338895322,0.14100000000000001
1748284666346582025,0.145
1748284666354268728,0.14300000000000002
1748284666361955431,0.138
1748284666369642134,0.136
1748284666377328837,0.128
1748284666385015540,0.10200000000000001
1748284666392702243,0.058
1748284666400388946,0.009000000000000001
1748284666408075649,-0.036000000000000004
1748284666415762352,-0.082
1748284666423449055,-0.116
1748284666431135758,-0.133
1748284666438822461,-0.148
1748284666446509164,-0.163
1748284666454195867,-0.167
1748284666461882570,-0.155
1748284666469569273,-0.153
1748284666477255976,-0.153
1748284666484942679,-0.14100000000000001
1748284666492629382,-0.131
1748284666500316085,-0.136
1748284666508002788,-0.138
1748284666515689491,-0.131
1748284666523376194,-0.126
1748284666531062897,-0.128
1748284666538749600,-0.128
1748284666546436303,-0.124
1748284666554123006,-0.124
1748284666561809769,-0.124
1748284666569496821,-0.124
1748284666577183873,-0.121
1748284666584870925,-0.124
1748284666592557977,-0.124
1748284666600245029,-0.126
1748284666607932081,-0.126
1748284666615619133,-0.124
1748284666623306185,-0.124
1748284666630993237,-0.11900000000000001
1748284666638680289,-0.111
1748284666646367341,-0.109
1748284666654054393,-0.111
1748284666661741445,-0.109
1748284666669428497,-0.107
1748284666677115549,-0.109
1748284666684802601,-0.111
1748284666692489653,-0.114
1748284666700176705,-0.107
1748284666707863757,-0.099
1748284666715550809,-0.094
1748284666723237861,-0.092
1748284666730924913,-0.097
1748284666738611965,-0.097
1748284666746299017,-0.09
1748284666753986069,-0.09
1748284666761673121,-0.092
1748284666769360173,-0.092
1748284666777047225,-0.082
1748284666784734277,-0.077
1748284666792421329,-0.08
1748284666800108381,-0.08
1748284666807795433,-0.08
1748284666815482485,-0.085
1748284666823169537,-0.09
1748284666830856589,-0.09
1748284666838543641,-0.08700000000000001
1748284666846230693,-0.082
1748284666853917745,-0.065
1748284666861604797,-0.051000000000000004
1748284666869291849,-0.043000000000000003
1748284666876978901,-0.034
1748284666884665953,-0.038
1748284666892353005,-0.06
1748284666900040057,-0.075
1748284666907727109,-0.075
1748284666915414161,-0.077
1748284666923101213,-0.075
1748284666930788265,-0.07
1748284666938475317,-0.075
1748284666946162369,-0.085
1748284666953849421,-0.10400000000000001
1748284666961536473,-0.017
1748284666969223525,0.455
1748284666976910577,1.131
1748284666984597629,1.1360000000000001
1748284666992284681,0.163
1748284666999971733,-0.7000000000000001
1748284667007658785,-0.62
1748284667015345837,-0.299
1748284667023032889,-0.294
1748284667030719941,-0.223
1748284667038406993,-0.068
1748284667046094045,-0.065
1748284667053781097,-0.09
1748284667061468149,-0.046
1748284667069155201,-0.038
1748284667076842253,-0.053
1748284667084529305,-0.031
1748284667092216357,-0.014
1748284667099903409,-0.014
1748284667107590461,-0.007
1748284667115277513,0.004
1748284667122964583,0.007,67,885
1748284667130650938,0.014,,822
1748284667138337293,0.026000000000000002
1748284667146023648,0.036000000000000004
1748284667153710003,0.041
1748284667161396358,0.051000000000000004
1748284667169082713,0.063
1748284667176769068,0.077
1748284667184455423,0.092
1748284667192141778,0.099
1748284667199828133,0.111
1748284667207514488,0.133
1748284667215200843,0.15
1748284667222887198,0.158
1748284667230573553,0.163
1748284667238259908,0.17
1748284667245946263,0.17
1748284667253632618,0.165
1748284667261318973,0.16
1748284667269005328,0.145
1748284667276691683,0.116
1748284667284378038,0.068
1748284667292064393,0.017
1748284667299750748,-0.031
1748284667307437103,-0.08
1748284667315123458,-0.121
1748284667322809813,-0.145
1748284667330496168,-0.16
1748284667338182523,-0.17200000000000001
1748284667345868878,-0.17200000000000001
1748284667353555233,-0.165
1748284667361241588,-0.16
1748284667368927943,-0.153
1748284667376614298,-0.14100000000000001
1748284667384300653,-0.133
1748284667391987008,-0.126
1748284667399673363,-0.11900000000000001
1748284667407359718,-0.116
1748284667415046073,-0.114
1748284667422732428,-0.109
1748284667430418783,-0.109
1748284667438105138,-0.111
1748284667445791493,-0.111
1748284667453477848,-0.111
1748284667461164203,-0.114
1748284667468850558,-0.114
1748284667476536913,-0.114
1748284667484223268,-0.116
1748284667491909623,-0.11900000000000001
1748284667499595978,-0.11900000000000001
1748284667507282333,-0.116
1748284667514968688,-0.116
1748284667522655043,-0.116
1748284667530341398,-0.114
1748284667538027753,-0.111
1748284667545714108,-0.111
1748284667553400463,-0.111
1748284667561086818,-0.107
1748284667568773173,-0.10200000000000001
1748284667576459528,-0.10200000000000001
1748284667584145883,-0.10200000000000001
1748284667591832238,-0.099
1748284667599518593,-0.094
1748284667607204948,-0.094
1748284667614891303,-0.094
1748284667622577658,-0.09
1748284667630264013,-0.08700000000000001
1748284667637950368,-0.08700000000000001
1748284667645636723,-0.085
1748284667653323078,-0.085
1748284667661009433,-0.085
1748284667668695788,-0.09
1748284667676382143,-0.094
1748284667684068527,-0.09
1748284667691755230,-0.077
1748284667699441933,-0.063
1748284667707128636,-0.048
1748284667714815339,-0.041
1748284667722502042,-0.036000000000000004
1748284667730188745,-0.043000000000000003
1748284667737875448,-0.068
1748284667745562151,-0.077
1748284667753248854,-0.07200000000000001
1748284667760935557,-0.07200000000000001
1748284667768622260,-0.075
1748284667776308963,-0.068
1748284667783995666,-0.068
1748284667791682369,-0.092
1748284667799369072,-0.136
1748284667807055775,-0.019
1748284667814742478,0.535
1748284667822429181,1.216
1748284667830115884,1.143
1748284667837802587,0.128
1748284667845489290,-0.7000000000000001
1748284667853175993,-0.5660000000000001
1748284667860862696,-0.243
1748284667868549399,-0.25
1748284667876236102,-0.187
1748284667883922805,-0.063
1748284667891609508,-0.08700000000000001
1748284667899296211,-0.10200000000000001
1748284667906982914,-0.055
1748284667914669617,-0.048
1748284667922356320,-0.055
1748284667930043023,-0.036000000000000004
1748284667937729726,-0.029
1748284667945416429,-0.031
1748284667953103132,-0.021
1748284667960789835,-0.009000000000000001
1748284667968476538,-0.009000000000000001
1748284667976163241,-0.004
1748284667983849944,0.002
1748284667991536647,0.012
1748284667999223350,0.024
1748284668006910053,0.034
1748284668014596756,0.043000000000000003
1748284668022283459,0.051000000000000004
1748284668029970162,0.065
1748284668037656865,0.08
1748284668045343568,0.09
1748284668053030271,0.107
1748284668060716974,0.128
1748284668068403677,0.138
1748284668076090380,0.145
1748284668083777083,0.153
1748284668091463786,0.153
1748284668099150489,0.15
1748284668106837192,0.148
1748284668114523895,0.128
1748284668122210598,0.092
1748284668129897301,0.048
1748284668137584004,0.002
1748284668145270707,-0.048
1748284668152957410,-0.09
1748284668160644113,-0.124
1748284668168330816,-0.145
1748284668176017519,-0.153
1748284668183704222,-0.153
1748284668191390925,-0.155
1748284668199077628,-0.153
1748284668206764331,-0.148
1748284668214451034,-0.14100000000000001
1748284668222137737,-0.133
1748284668229824440,-0.128
1748284668237511143,-0.126
1748284668245197910,-0.121,67,877
1748284668252884613,-0.11900000000000001
1748284668260571316,-0.121
1748284668268258019,-0.11900000000000001
1748284668275944722,-0.116
1748284668283631425,-0.116
1748284668291318128,-0.114
1748284668299004831,-0.116
1748284668306691534,-0.11900000000000001
1748284668314378237,-0.11900000000000001
1748284668322064940,-0.116
1748284668329751643,-0.116
1748284668337438346,-0.116
1748284668345125049,-0.114
1748284668352811752,-0.114
1748284668360498455,-0.111
1748284668368185158,-0.109
1748284668375871861,-0.111
1748284668383558564,-0.109
1748284668391245267,-0.10400000000000001
1748284668398931970,-0.10400000000000001
1748284668406618673,-0.10200000000000001
1748284668414305376,-0.099
1748284668421992079,-0.094
1748284668429678782,-0.094
1748284668437365485,-0.094
1748284668445052188,-0.094
1748284668452738891,-0.09
1748284668460425594,-0.085
1748284668468112297,-0.085
1748284668475799000,-0.085
1748284668483485703,-0.08
1748284668491172406,-0.08
1748284668498859109,-0.077
1748284668506545812,-0.077
1748284668514232515,-0.077
1748284668521919218,-0.075
1748284668529605921,-0.077
1748284668537292624,-0.08700000000000001
1748284668544979327,-0.092
1748284668552666030,-0.08700000000000001
1748284668560352733,-0.077
1748284668568039436,-0.065
1748284668575726139,-0.048
1748284668583412842,-0.038
1748284668591099545,-0.029
1748284668598786248,-0.029
1748284668606472951,-0.051000000000000004
1748284668614159654,-0.068
1748284668621846357,-0.068
1748284668629533060,-0.07
1748284668637219763,-0.075
1748284668644906466,-0.068
1748284668652593169,-0.063
1748284668660279872,-0.07200000000000001
1748284668667966575,-0.114
1748284668675653278,-0.126
1748284668683339981,0.17500000000000002
1748284668691026684,0.878
1748284668698713387,1.326
1748284668706400090,0.788
1748284668714086793,-0.28700000000000003
1748284668721773496,-0.678
1748284668729460199,-0.343
1748284668737146902,-0.201
1748284668744833605,-0.23800000000000002
1748284668752520308,-0.124
1748284668760207011,-0.075
1748284668767893714,-0.11900000000000001
1748284668775580417,-0.092
1748284668783267120,-0.058
1748284668790953823,-0.065
1748284668798640526,-0.063
1748284668806327289,-0.046,68,891
1748284668814013992,-0.041
1748284668821700695,-0.036000000000000004
1748284668829387398,-0.026000000000000002
1748284668837074101,-0.017
1748284668844760804,-0.012
1748284668852447507,-0.004
1748284668860134210,0.002
1748284668867820913,0.012
1748284668875507616,0.021
1748284668883194319,0.029
1748284668890881022,0.038
1748284668898567725,0.051000000000000004
1748284668906254428,0.06
1748284668913941131,0.07
1748284668921627834,0.08700000000000001
1748284668929314537,0.10200000000000001
1748284668937001240,0.114
1748284668944687943,0.124
1748284668952374646,0.131
1748284668960061349,0.131
1748284668967748052,0.128
1748284668975434755,0.128
1748284668983121458,0.11900000000000001
1748284668990808161,0.097
1748284668998494864,0.06
1748284669006181567,0.021
1748284669013868270,-0.017
1748284669021554973,-0.06
1748284669029241676,-0.10200000000000001
1748284669036928379,-0.131
1748284669044615082,-0.14300000000000002
1748284669052301785,-0.15
1748284669059988488,-0.153
1748284669067675191,-0.155
1748284669075361894,-0.153
1748284669083048597,-0.145
1748284669090735300,-0.14300000000000002
1748284669098422003,-0.138
1748284669106108706,-0.128
1748284669113795409,-0.124
1748284669121482112,-0.126
1748284669129168815,-0.128
1748284669136855518,-0.124
1748284669144542221,-0.124
1748284669152228924,-0.126
1748284669159915627,-0.124
1748284669167602330,-0.11900000000000001
1748284669175289033,-0.11900000000000001
1748284669182975736,-0.121
1748284669190662439,-0.121
1748284669198349142,-0.126
1748284669206035845,-0.124
1748284669213722548,-0.11900000000000001
1748284669221409251,-0.11900000000000001
1748284669229095954,-0.121
1748284669236782657,-0.121
1748284669244469360,-0.116
1748284669252156063,-0.109
1748284669259842766,-0.107
1748284669267529469,-0.10400000000000001
1748284669275216172,-0.10400000000000001
1748284669282902875,-0.107
1748284669290589578,-0.10400000000000001
1748284669298276281,-0.097
1748284669305962984,-0.099
1748284669313649687,-0.099
1748284669321336390,-0.094
1748284669329023093,-0.092
1748284669336709796,-0.097
1748284669344396499,-0.094
1748284669352083202,-0.092
1748284669359769905,-0.09
1748284669367456668,-0.08700000000000001
1748284669375143232,-0.08700000000000001
1748284669382829796,-0.08700000000000001
1748284669390516360,-0.082
1748284669398202924,-0.08
1748284669405889488,-0.082
1748284669413576052,-0.09
1748284669421262616,-0.092
1748284669428949180,-0.09
1748284669436635744,-0.08700000000000001
1748284669444322308,-0.075
1748284669452008872,-0.06
1748284669459695436,-0.048
1748284669467382000,-0.038
1748284669475068564,-0.041
1748284669482755128,-0.063
1748284669490441692,-0.08
1748284669498128256,-0.08
1748284669505814820,-0.08
1748284669513501384,-0.077
1748284669521187948,-0.07200000000000001
1748284669528874512,-0.075
1748284669536561076,-0.08700000000000001
1748284669544247640,-0.114
1748284669551934204,-0.07
1748284669559620768,0.321
1748284669567307332,1.014
1748284669574993896,1.216
1748284669582680460,0.386
1748284669590367024,-0.605
1748284669598053588,-0.683
1748284669605740152,-0.321
1748284669613426716,-0.272
1748284669621113280,-0.248
1748284669628799844,-0.09
1748284669636486408,-0.063
1748284669644172972,-0.10200000000000001
1748284669651859536,-0.07
1748284669659546100,-0.046
1748284669667232664,-0.048
1748284669674919228,-0.038
1748284669682605792,-0.024
1748284669690292356,-0.024
1748284669697978920,-0.017
1748284669705665484,-0.007
1748284669713352048,0.0
1748284669721038612,0.0
1748284669728725176,0.007
1748284669736411740,0.024
1748284669744098304,0.034
1748284669751784868,0.036000000000000004
1748284669759471432,0.046
1748284669767157996,0.058
1748284669774844560,0.068
1748284669782531124,0.082
1748284669790217688,0.099
1748284669797904252,0.111
1748284669805590816,0.124
1748284669813277380,0.136
1748284669820963944,0.14100000000000001
1748284669828650508,0.14100000000000001
1748284669836337072,0.14100000000000001
1748284669844023636,0.14100000000000001
1748284669851710200,0.136
1748284669859396764,0.121
1748284669867083328,0.094
1748284669874769892,0.058
1748284669882456456,0.012
1748284669890143020,-0.038
1748284669897829584,-0.08700000000000001
1748284669905516148,-0.126
1748284669913202712,-0.15
1748284669920889276,-0.163
1748284669928575877,-0.167,68,845
1748284669936262302,-0.167
1748284669943948727,-0.165
1748284669951635152,-0.158
1748284669959321577,-0.148
1748284669967008002,-0.14100000000000001
1748284669974694427,-0.136
1748284669982380852,-0.131
1748284669990067277,-0.128
1748284669997753702,-0.126
1748284670005440127,-0.124
1748284670013126552,-0.124
1748284670020812977,-0.121
1748284670028499402,-0.121
1748284670036185827,-0.124
1748284670043872252,-0.126
1748284670051558677,-0.128
1748284670059245102,-0.128
1748284670066931527,-0.131
1748284670074617952,-0.128
1748284670082304377,-0.126
1748284670089990802,-0.126
1748284670097677227,-0.128
1748284670105363652,-0.128
1748284670113050077,-0.126
1748284670120736502,-0.121
1748284670128422927,-0.11900000000000001
1748284670136109352,-0.11900000000000001
1748284670143795777,-0.11900000000000001
1748284670151482202,-0.116
1748284670159168627,-0.114
1748284670166855052,-0.109
1748284670174541477,-0.107
1748284670182227902,-0.107
1748284670189914327,-0.10200000000000001
1748284670197600752,-0.10200000000000001
1748284670205287177,-0.099
1748284670212973602,-0.097
1748284670220660027,-0.097
1748284670228346452,-0.097
1748284670236032877,-0.092
1748284670243719302,-0.08700000000000001
1748284670251405727,-0.08700000000000001
1748284670259092152,-0.085
1748284670266778577,-0.08700000000000001
1748284670274465002,-0.085
1748284670282151427,-0.085
1748284670289837852,-0.09
1748284670297524277,-0.097
1748284670305210702,-0.092
1748284670312897127,-0.085
1748284670320583552,-0.075
1748284670328269977,-0.06
1748284670335956402,-0.048
1748284670343642827,-0.038
1748284670351329252,-0.036000000000000004
1748284670359015677,-0.058
1748284670366702102,-0.077
1748284670374388527,-0.075
1748284670382074952,-0.07200000000000001
1748284670389761377,-0.077
1748284670397447802,-0.075
1748284670405134227,-0.07
1748284670412820652,-0.077
1748284670420507077,-0.111
1748284670428193502,-0.128
1748284670435879927,0.145
1748284670443566352,0.834
1748284670451252777,1.296
1748284670458939202,0.768
1748284670466625627,-0.321
1748284670474312052,-0.727
1748284670481998477,-0.386
1748284670489684908,-0.226
1748284670497371611,-0.253
1748284670505058314,-0.126
1748284670512745017,-0.065
1748284670520431720,-0.109
1748284670528118423,-0.08700000000000001
1748284670535805126,-0.053
1748284670543491829,-0.06
1748284670551178532,-0.055
1748284670558865235,-0.038
1748284670566551938,-0.034
1748284670574238641,-0.031
1748284670581925344,-0.024
1748284670589612047,-0.014
1748284670597298750,-0.007
1748284670604985453,-0.002
1748284670612672156,0.004
1748284670620358859,0.014
1748284670628045562,0.024
1748284670635732265,0.034
1748284670643418968,0.043000000000000003
1748284670651105671,0.053
1748284670658792374,0.063
1748284670666479077,0.075
1748284670674165780,0.09
1748284670681852483,0.10400000000000001
1748284670689539186,0.116
1748284670697225889,0.124
1748284670704912592,0.128
1748284670712599295,0.133
1748284670720285998,0.133
1748284670727972701,0.128
1748284670735659404,0.124
1748284670743346107,0.107
1748284670751032810,0.07
1748284670758719513,0.026000000000000002
1748284670766406216,-0.019
1748284670774092919,-0.063
1748284670781779622,-0.099
1748284670789466325,-0.126
1748284670797153028,-0.14300000000000002
1748284670804839731,-0.15
1748284670812526434,-0.153
1748284670820213137,-0.15
1748284670827899840,-0.145
1748284670835586543,-0.14100000000000001
1748284670843273246,-0.136
1748284670850959949,-0.128
1748284670858646652,-0.126
1748284670866333355,-0.124
1748284670874020058,-0.11900000000000001
1748284670881706761,-0.11900000000000001
1748284670889393464,-0.116
1748284670897080167,-0.11900000000000001
1748284670904766870,-0.11900000000000001
1748284670912453573,-0.116
1748284670920140276,-0.114
1748284670927826979,-0.116
1748284670935513682,-0.11900000000000001
1748284670943200385,-0.11900000000000001
1748284670950887088,-0.11900000000000001
1748284670958573791,-0.116
1748284670966260494,-0.114
1748284670973947197,-0.114
1748284670981633900,-0.114
1748284670989320603,-0.111
1748284670997007306,-0.109
1748284671004694009,-0.111
1748284671012380712,-0.111
1748284671020067415,-0.107
1748284671027754118,-0.10400000000000001
1748284671035440821,-0.10200000000000001
1748284671043127524,-0.10200000000000001
1748284671050814287,-0.099,68,873
1748284671058500990,-0.097
1748284671066187693,-0.094
1748284671073874396,-0.092
1748284671081561099,-0.092
1748284671089247802,-0.092
1748284671096934505,-0.09
1748284671104621208,-0.08700000000000001
1748284671112307911,-0.08700000000000001
1748284671119994614,-0.085
1748284671127681317,-0.082
1748284671135368020,-0.08
1748284671143054723,-0.08
1748284671150741426,-0.077
1748284671158428129,-0.077
1748284671166114832,-0.077
1748284671173801535,-0.075
1748284671181488238,-0.07
1748284671189174941,-0.07
1748284671196861644,-0.07200000000000001
1748284671204548347,-0.075
1748284671212235050,-0.08
1748284671219921753,-0.085
1748284671227608456,-0.082
1748284671235295159,-0.07
1748284671242981862,-0.053
1748284671250668565,-0.043000000000000003
1748284671258355268,-0.036000000000000004
1748284671266041971,-0.024
1748284671273728674,-0.034
1748284671281415377,-0.06
1748284671289102080,-0.07
1748284671296788783,-0.065
1748284671304475486,-0.068
1748284671312162189,-0.065
1748284671319848892,-0.06
1748284671327535595,-0.068
1748284671335222298,-0.08700000000000001
1748284671342909001,-0.133
1748284671350595704,-0.051000000000000004
1748284671358282407,0.455
1748284671365969110,1.153
1748284671373655813,1.194
1748284671381342516,0.277
1748284671389029219,-0.608
1748284671396715922,-0.5690000000000001
1748284671404402625,-0.23600000000000002
1748284671412089328,-0.231
1748284671419776031,-0.199
1748284671427462734,-0.08
1748284671435149437,-0.092
1748284671442836140,-0.116
1748284671450522843,-0.07200000000000001
1748284671458209546,-0.058
1748284671465896249,-0.065
1748284671473582952,-0.048
1748284671481269655,-0.038
1748284671488956358,-0.038
1748284671496643061,-0.029
1748284671504329764,-0.019
1748284671512016467,-0.017
1748284671519703170,-0.012
1748284671527389873,0.0
1748284671535076576,0.007
1748284671542763279,0.012
1748284671550449982,0.021
1748284671558136685,0.029
1748284671565823388,0.038
1748284671573510091,0.048
1748284671581196794,0.058
1748284671588883497,0.068
1748284671596570200,0.082
1748284671604256903,0.097
1748284671611943670,0.10400000000000001
1748284671619630373,0.109
1748284671627317076,0.111
1748284671635003779,0.111
1748284671642690482,0.109
1748284671650377185,0.109
1748284671658063888,0.10200000000000001
1748284671665750591,0.08
1748284671673437294,0.043000000000000003
1748284671681123997,0.007
1748284671688810700,-0.034
1748284671696497403,-0.075
1748284671704184106,-0.111
1748284671711870809,-0.131
1748284671719557512,-0.14300000000000002
1748284671727244215,-0.153
1748284671734930918,-0.155
1748284671742617621,-0.15
1748284671750304324,-0.14300000000000002
1748284671757991027,-0.138
1748284671765677730,-0.136
1748284671773364433,-0.133
1748284671781051136,-0.126
1748284671788737839,-0.124
1748284671796424542,-0.124
1748284671804111245,-0.124
1748284671811797948,-0.126
1748284671819484651,-0.124
1748284671827171354,-0.121
1748284671834858057,-0.121
1748284671842544760,-0.11900000000000001
1748284671850231463,-0.116
1748284671857918166,-0.11900000000000001
1748284671865604869,-0.124
1748284671873291572,-0.121
1748284671880978275,-0.11900000000000001
1748284671888664978,-0.116
1748284671896351681,-0.116
1748284671904038384,-0.116
1748284671911725087,-0.114
1748284671919411790,-0.109
1748284671927098493,-0.109
1748284671934785196,-0.111
1748284671942471899,-0.107
1748284671950158602,-0.10200000000000001
1748284671957845305,-0.10400000000000001
1748284671965532008,-0.10200000000000001
1748284671973218711,-0.094
1748284671980905414,-0.094
1748284671988592117,-0.097
1748284671996278820,-0.094
1748284672003965523,-0.092
1748284672011652226,-0.092
1748284672019338929,-0.092
1748284672027025632,-0.08700000000000001
1748284672034712335,-0.085
1748284672042399038,-0.085
1748284672050085741,-0.085
1748284672057772444,-0.08
1748284672065459147,-0.077
1748284672073145850,-0.08
1748284672080832553,-0.082
1748284672088519256,-0.082
1748284672096205959,-0.077
1748284672103892662,-0.077
1748284672111579365,-0.077
1748284672119266068,-0.07200000000000001
1748284672126952771,-0.07
1748284672134639474,-0.07
1748284672142326177,-0.068
1748284672150012880,-0.068
1748284672157699583,-0.07200000000000001
1748284672165386286,-0.075
1748284672173073049,-0.077,68,874
1748284672180759543,-0.077
1748284672188446037,-0.075
1748284672196132531,-0.063
1748284672203819025,-0.051000000000000004
1748284672211505519,-0.043000000000000003
1748284672219192013,-0.031
1748284672226878507,-0.021
1748284672234565001,-0.036000000000000004
1748284672242251495,-0.06
1748284672249937989,-0.068
1748284672257624483,-0.068
1748284672265310977,-0.07
1748284672272997471,-0.068
1748284672280683965,-0.063
1748284672288370459,-0.065
1748284672296056953,-0.09
1748284672303743447,-0.099
1748284672311429941,0.14300000000000002
1748284672319116435,0.79
1748284672326802929,1.26
1748284672334489423,0.751
1748284672342175917,-0.335
1748284672349862411,-0.761
1748284672357548905,-0.425
1748284672365235399,-0.248
1748284672372921893,-0.265
1748284672380608387,-0.126
1748284672388294881,-0.046
1748284672395981375,-0.09
1748284672403667869,-0.077
1748284672411354363,-0.036000000000000004
1748284672419040857,-0.041
1748284672426727351,-0.038
1748284672434413845,-0.024
1748284672442100339,-0.019
1748284672449786833,-0.012
1748284672457473327,-0.004
1748284672465159821,0.002
1748284672472846315,0.012
1748284672480532809,0.021
1748284672488219303,0.026000000000000002
1748284672495905797,0.029
1748284672503592291,0.038
1748284672511278785,0.051000000000000004
1748284672518965279,0.058
1748284672526651773,0.065
1748284672534338267,0.077
1748284672542024761,0.092
1748284672549711255,0.10200000000000001
1748284672557397749,0.111
1748284672565084243,0.124
1748284672572770737,0.128
1748284672580457231,0.131
1748284672588143725,0.131
1748284672595830219,0.131
1748284672603516713,0.128
1748284672611203207,0.121
1748284672618889701,0.10400000000000001
1748284672626576195,0.077
1748284672634262689,0.041
1748284672641949183,-0.007
1748284672649635677,-0.055
1748284672657322171,-0.094
1748284672665008665,-0.124
1748284672672695159,-0.14300000000000002
1748284672680381653,-0.153
1748284672688068147,-0.158
1748284672695754641,-0.158
1748284672703441135,-0.153
1748284672711127629,-0.145
1748284672718814123,-0.136
1748284672726500617,-0.128
1748284672734187171,-0.124
1748284672741873665,-0.11900000000000001
1748284672749560159,-0.111
1748284672757246653,-0.111
1748284672764933147,-0.111
1748284672772619641,-0.111
1748284672780306135,-0.111
1748284672787992629,-0.114
1748284672795679123,-0.116
1748284672803365617,-0.11900000000000001
1748284672811052111,-0.11900000000000001
1748284672818738605,-0.121
1748284672826425099,-0.126
1748284672834111593,-0.124
1748284672841798087,-0.121
1748284672849484581,-0.121
1748284672857171075,-0.121
1748284672864857569,-0.121
1748284672872544063,-0.11900000000000001
1748284672880230557,-0.11900000000000001
1748284672887917051,-0.116
1748284672895603545,-0.114
1748284672903290039,-0.111
1748284672910976533,-0.109
1748284672918663027,-0.111
1748284672926349521,-0.109
1748284672934036015,-0.10200000000000001
1748284672941722509,-0.10200000000000001
1748284672949409003,-0.10200000000000001
1748284672957095497,-0.099
1748284672964781991,-0.097
1748284672972468485,-0.094
1748284672980154979,-0.092
1748284672987841473,-0.09
1748284672995527967,-0.09
1748284673003214461,-0.09
1748284673010900955,-0.08700000000000001
1748284673018587449,-0.085
1748284673026273943,-0.082
1748284673033960437,-0.082
1748284673041646931,-0.08
1748284673049333425,-0.08
1748284673057019919,-0.077
1748284673064706413,-0.077
1748284673072392907,-0.077
1748284673080079401,-0.075
1748284673087765895,-0.07200000000000001
1748284673095452389,-0.075
1748284673103138883,-0.075
1748284673110825377,-0.07200000000000001
1748284673118511871,-0.075
1748284673126198365,-0.08
1748284673133884859,-0.085
1748284673141571353,-0.082
1748284673149257847,-0.075
1748284673156944341,-0.07200000000000001
1748284673164630835,-0.06
1748284673172317329,-0.048
1748284673180003823,-0.031
1748284673187690317,-0.026000000000000002
1748284673195376811,-0.048
1748284673203063305,-0.068
1748284673210749799,-0.065
1748284673218436293,-0.068
1748284673226122787,-0.07
1748284673233809281,-0.065
1748284673241495775,-0.063
1748284673249182269,-0.07200000000000001
1748284673256868763,-0.107
1748284673264555257,-0.124
1748284673272241751,0.133
1748284673279928245,0.81
1748284673287614739,1.304
1748284673295301289,0.839,68,879
1748284673302987992,-0.248
1748284673310674695,-0.72
1748284673318361398,-0.401
1748284673326048101,-0.218
1748284673333734804,-0.253
1748284673341421507,-0.136
1748284673349108210,-0.065
1748284673356794913,-0.109
1748284673364481616,-0.099
1748284673372168319,-0.06
1748284673379855022,-0.06
1748284673387541725,-0.058
1748284673395228428,-0.043000000000000003
1748284673402915131,-0.038
1748284673410601834,-0.036000000000000004
1748284673418288537,-0.026000000000000002
1748284673425975240,-0.017
1748284673433661943,-0.012
1748284673441348646,-0.007
1748284673449035349,0.002
1748284673456722052,0.009000000000000001
1748284673464408755,0.017
1748284673472095458,0.024
1748284673479782161,0.034
1748284673487468864,0.043000000000000003
1748284673495155567,0.055
1748284673502842270,0.068
1748284673510528973,0.082
1748284673518215676,0.094
1748284673525902379,0.10200000000000001
1748284673533589082,0.109
1748284673541275785,0.11900000000000001
1748284673548962488,0.121
1748284673556649191,0.11900000000000001
1748284673564335894,0.116
1748284673572022597,0.111
1748284673579709300,0.094
1748284673587396003,0.065
1748284673595082706,0.029
1748284673602769409,-0.014
1748284673610456112,-0.055
1748284673618142815,-0.094
1748284673625829518,-0.124
1748284673633516221,-0.14100000000000001
1748284673641202924,-0.148
1748284673648889627,-0.15
1748284673656576330,-0.153
1748284673664263033,-0.148
1748284673671949736,-0.14100000000000001
1748284673679636439,-0.136
1748284673687323142,-0.133
1748284673695009845,-0.128
1748284673702696548,-0.121
1748284673710383251,-0.116
1748284673718069954,-0.116
1748284673725756657,-0.116
1748284673733443360,-0.114
1748284673741130063,-0.114
1748284673748816766,-0.114
1748284673756503469,-0.111
1748284673764190172,-0.111
1748284673771876875,-0.114
1748284673779563578,-0.116
1748284673787250281,-0.116
1748284673794936984,-0.116
1748284673802623687,-0.11900000000000001
1748284673810310390,-0.116
1748284673817997093,-0.114
1748284673825683796,-0.111
1748284673833370499,-0.111
1748284673841057202,-0.109
1748284673848743905,-0.107
1748284673856430668,-0.107,68,919
1748284673864117371,-0.107
1748284673871804074,-0.10400000000000001
1748284673879490777,-0.099
1748284673887177480,-0.099
1748284673894864183,-0.099
1748284673902550886,-0.097
1748284673910237589,-0.097
1748284673917924292,-0.094
1748284673925610995,-0.092
1748284673933297698,-0.092
1748284673940984401,-0.08700000000000001
1748284673948671104,-0.085
1748284673956357807,-0.085
1748284673964044510,-0.085
1748284673971731213,-0.082
1748284673979417916,-0.082
1748284673987104619,-0.08
1748284673994791322,-0.08
1748284674002478025,-0.077
1748284674010164728,-0.077
1748284674017851431,-0.077
1748284674025538134,-0.075
1748284674033224837,-0.07200000000000001
1748284674040911540,-0.075
1748284674048598243,-0.075
1748284674056284946,-0.075
1748284674063971649,-0.07
1748284674071658352,-0.07
1748284674079345055,-0.07
1748284674087031758,-0.07
1748284674094718461,-0.07
1748284674102405164,-0.07
1748284674110091867,-0.07
1748284674117778570,-0.068
1748284674125465273,-0.068
1748284674133151976,-0.07
1748284674140838679,-0.077
1748284674148525382,-0.08
1748284674156212085,-0.08
1748284674163898788,-0.075
1748284674171585491,-0.068
1748284674179272194,-0.051000000000000004
1748284674186958897,-0.041
1748284674194645600,-0.031
1748284674202332303,-0.026000000000000002
1748284674210019006,-0.046
1748284674217705709,-0.068
1748284674225392412,-0.068
1748284674233079115,-0.068
1748284674240765818,-0.07
1748284674248452521,-0.068
1748284674256139224,-0.065
1748284674263825927,-0.075
1748284674271512630,-0.114
1748284674279199333,-0.124
1748284674286886036,0.184
1748284674294572739,0.885
1748284674302259442,1.311
1748284674309946145,0.751
1748284674317632848,-0.318
1748284674325319551,-0.6880000000000001
1748284674333006254,-0.352
1748284674340692957,-0.214
1748284674348379660,-0.248
1748284674356066363,-0.128
1748284674363753066,-0.075
1748284674371439769,-0.116
1748284674379126472,-0.094
1748284674386813175,-0.06
1748284674394499878,-0.068
1748284674402186581,-0.063
1748284674409873284,-0.046
1748284674417560047,-0.041
1748284674425246750,-0.038
1748284674432933453,-0.029
1748284674440620156,-0.021
1748284674448306859,-0.017
1748284674455993562,-0.009000000000000001
1748284674463680265,-0.002
1748284674471366968,0.004
1748284674479053671,0.012
1748284674486740374,0.021
1748284674494427077,0.031
1748284674502113780,0.038
1748284674509800483,0.048
1748284674517487186,0.063
1748284674525173889,0.075
1748284674532860592,0.085
1748284674540547295,0.094
1748284674548233998,0.10400000000000001
1748284674555920701,0.107
1748284674563607404,0.109
1748284674571294107,0.109
1748284674578980810,0.107
1748284674586667513,0.10200000000000001
1748284674594354216,0.09
1748284674602040919,0.065
1748284674609727622,0.029
1748284674617414325,-0.014
1748284674625101028,-0.055
1748284674632787731,-0.092
1748284674640474434,-0.121
1748284674648161137,-0.14100000000000001
1748284674655847840,-0.15
1748284674663534543,-0.153
1748284674671221246,-0.15
1748284674678907949,-0.145
1748284674686594652,-0.14300000000000002
1748284674694281355,-0.138
1748284674701968058,-0.131
1748284674709654761,-0.126
1748284674717341464,-0.121
1748284674725028167,-0.116
1748284674732714870,-0.114
1748284674740401573,-0.114
1748284674748088276,-0.111
1748284674755774979,-0.111
1748284674763461682,-0.116
1748284674771148385,-0.114
1748284674778835088,-0.111
1748284674786521791,-0.114
1748284674794208494,-0.11900000000000001
1748284674801895197,-0.116
1748284674809581900,-0.116
1748284674817268603,-0.116
1748284674824955306,-0.11900000000000001
1748284674832642009,-0.116
1748284674840328712,-0.114
1748284674848015415,-0.111
1748284674855702118,-0.111
1748284674863388821,-0.111
1748284674871075524,-0.107
1748284674878762227,-0.10400000000000001
1748284674886448930,-0.107
1748284674894135633,-0.10400000000000001
1748284674901822336,-0.10200000000000001
1748284674909509039,-0.099
1748284674917195742,-0.097
1748284674924882445,-0.094
1748284674932569148,-0.094
1748284674940255851,-0.094
1748284674947942554,-0.092
1748284674955629257,-0.09
1748284674963315960,-0.09
1748284674971002663,-0.09
1748284674978689430,-0.085,68,957
1748284674986375715,-0.082
1748284674994062000,-0.082
1748284675001748285,-0.082
1748284675009434570,-0.08
1748284675017120855,-0.077
1748284675024807140,-0.077
1748284675032493425,-0.08
1748284675040179710,-0.08
1748284675047865995,-0.077
1748284675055552280,-0.077
1748284675063238565,-0.07200000000000001
1748284675070924850,-0.07200000000000001
1748284675078611135,-0.075
1748284675086297420,-0.075
1748284675093983705,-0.07
1748284675101669990,-0.068
1748284675109356275,-0.07
1748284675117042560,-0.07200000000000001
1748284675124728845,-0.07200000000000001
1748284675132415130,-0.07
1748284675140101415,-0.068
1748284675147787700,-0.068
1748284675155473985,-0.075
1748284675163160270,-0.082
1748284675170846555,-0.077
1748284675178532840,-0.075
1748284675186219125,-0.07200000000000001
1748284675193905410,-0.055
1748284675201591695,-0.038
1748284675209277980,-0.029
1748284675216964265,-0.021
1748284675224650550,-0.041
1748284675232336835,-0.063
1748284675240023120,-0.068
1748284675247709405,-0.065
1748284675255395690,-0.065
1748284675263081975,-0.063
1748284675270768260,-0.06
1748284675278454545,-0.07
1748284675286140830,-0.10200000000000001
1748284675293827115,-0.10400000000000001
1748284675301513400,0.184
1748284675309199685,0.878
1748284675316885970,1.318
1748284675324572255,0.751
1748284675332258540,-0.335
1748284675339944825,-0.712
1748284675347631110,-0.372
1748284675355317395,-0.226
1748284675363003680,-0.25
1748284675370689965,-0.124
1748284675378376250,-0.07
1748284675386062535,-0.111
1748284675393748820,-0.08700000000000001
1748284675401435105,-0.051000000000000004
1748284675409121390,-0.055
1748284675416807675,-0.048
1748284675424493960,-0.031
1748284675432180245,-0.029
1748284675439866530,-0.026000000000000002
1748284675447552815,-0.014
1748284675455239100,-0.002
1748284675462925385,0.002
1748284675470611670,0.004
1748284675478297955,0.009000000000000001
1748284675485984240,0.021
1748284675493670525,0.034
1748284675501356810,0.038
1748284675509043095,0.048
1748284675516729380,0.063
1748284675524415665,0.077
1748284675532101950,0.085
1748284675539788291,0.092
1748284675547474994,0.10400000000000001
1748284675555161697,0.114
1748284675562848400,0.11900000000000001
1748284675570535103,0.116
1748284675578221806,0.116
1748284675585908509,0.124
1748284675593595212,0.126
1748284675601281915,0.116
1748284675608968618,0.097
1748284675616655321,0.07
1748284675624342024,0.034
1748284675632028727,-0.009000000000000001
1748284675639715430,-0.055
1748284675647402133,-0.097
1748284675655088836,-0.128
1748284675662775539,-0.145
1748284675670462242,-0.15
1748284675678148945,-0.155
1748284675685835648,-0.158
1748284675693522351,-0.153
1748284675701209054,-0.14300000000000002
1748284675708895757,-0.136
1748284675716582460,-0.131
1748284675724269163,-0.126
1748284675731955866,-0.121
1748284675739642569,-0.116
1748284675747329272,-0.109
1748284675755015975,-0.10400000000000001
1748284675762702678,-0.107
1748284675770389381,-0.109
1748284675778076084,-0.111
1748284675785762787,-0.114
1748284675793449490,-0.114
1748284675801136193,-0.116
1748284675808822896,-0.124
1748284675816509599,-0.124
1748284675824196302,-0.121
1748284675831883005,-0.11900000000000001
1748284675839569708,-0.121
1748284675847256411,-0.11900000000000001
1748284675854943114,-0.116
1748284675862629817,-0.114
1748284675870316520,-0.114
1748284675878003223,-0.111
1748284675885689926,-0.111
1748284675893376629,-0.111
1748284675901063332,-0.109
1748284675908750035,-0.107
1748284675916436738,-0.10400000000000001
1748284675924123441,-0.10400000000000001
1748284675931810144,-0.10200000000000001
1748284675939496847,-0.099
1748284675947183550,-0.097
1748284675954870253,-0.097
1748284675962556956,-0.094
1748284675970243659,-0.092
1748284675977930362,-0.092
1748284675985617065,-0.09
1748284675993303768,-0.08700000000000001
1748284676000990471,-0.08700000000000001
1748284676008677174,-0.082
1748284676016363877,-0.08
1748284676024050580,-0.08
1748284676031737283,-0.08
1748284676039423986,-0.08
1748284676047110689,-0.08
1748284676054797392,-0.077
1748284676062484095,-0.075
1748284676070170798,-0.07200000000000001
1748284676077857501,-0.07200000000000001
1748284676085544204,-0.082
1748284676093230907,-0.08700000000000001
1748284676100917670,-0.082,68,961
1748284676108604373,-0.08
1748284676116291076,-0.075
1748284676123977779,-0.055
1748284676131664482,-0.041
1748284676139351185,-0.034
1748284676147037888,-0.031
1748284676154724591,-0.048
1748284676162411294,-0.07200000000000001
1748284676170097997,-0.07200000000000001
1748284676177784700,-0.068
1748284676185471403,-0.07
1748284676193158106,-0.068
1748284676200844809,-0.065
1748284676208531512,-0.07200000000000001
1748284676216218215,-0.094
1748284676223904918,-0.08700000000000001
1748284676231591621,0.192
1748284676239278324,0.854
1748284676246965027,1.2550000000000001
1748284676254651730,0.647
1748284676262338433,-0.44
1748284676270025136,-0.771
1748284676277711839,-0.41100000000000003
1748284676285398542,-0.267
1748284676293085245,-0.27
1748284676300771948,-0.109
1748284676308458651,-0.038
1748284676316145354,-0.09
1748284676323832057,-0.068
1748284676331518760,-0.029
1748284676339205463,-0.038
1748284676346892166,-0.036000000000000004
1748284676354578869,-0.014
1748284676362265572,-0.012
1748284676369952275,-0.012
1748284676377638978,0.0
1748284676385325681,0.009000000000000001
1748284676393012384,0.012
1748284676400699087,0.017
1748284676408385790,0.026000000000000002
1748284676416072493,0.036000000000000004
1748284676423759196,0.043000000000000003
1748284676431445899,0.051000000000000004
1748284676439132602,0.06
1748284676446819305,0.07
1748284676454506008,0.082
1748284676462192711,0.097
1748284676469879414,0.109
1748284676477566117,0.121
1748284676485252820,0.136
1748284676492939523,0.148
1748284676500626226,0.153
1748284676508312929,0.153
1748284676515999632,0.153
1748284676523686335,0.15
1748284676531373038,0.14100000000000001
1748284676539059741,0.116
1748284676546746444,0.082
1748284676554433147,0.034
1748284676562119850,-0.019
1748284676569806553,-0.065
1748284676577493256,-0.107
1748284676585179959,-0.14100000000000001
1748284676592866662,-0.16
1748284676600553365,-0.165
1748284676608240068,-0.165
1748284676615926771,-0.163
1748284676623613474,-0.155
1748284676631300177,-0.148
1748284676638986880,-0.14100000000000001
1748284676646673583,-0.133
1748284676654360286,-0.126
1748284676662047049,-0.11900000000000001
1748284676669733683,-0.116
1748284676677420317,-0.111
1748284676685106951,-0.111
1748284676692793585,-0.111
1748284676700480219,-0.111
1748284676708166853,-0.114
1748284676715853487,-0.114
1748284676723540121,-0.116
1748284676731226755,-0.11900000000000001
1748284676738913389,-0.116
1748284676746600023,-0.11900000000000001
1748284676754286657,-0.121
1748284676761973291,-0.121
1748284676769659925,-0.11900000000000001
1748284676777346559,-0.11900000000000001
1748284676785033193,-0.11900000000000001
1748284676792719827,-0.116
1748284676800406461,-0.111
1748284676808093095,-0.111
1748284676815779729,-0.111
1748284676823466363,-0.109
1748284676831152997,-0.107
1748284676838839631,-0.107
1748284676846526265,-0.10400000000000001
1748284676854212899,-0.10200000000000001
1748284676861899533,-0.10200000000000001
1748284676869586167,-0.099
1748284676877272801,-0.097
1748284676884959435,-0.097
1748284676892646069,-0.094
1748284676900332703,-0.09
1748284676908019337,-0.09
1748284676915705971,-0.09
1748284676923392605,-0.08700000000000001
1748284676931079239,-0.082
1748284676938765873,-0.082
1748284676946452507,-0.082
1748284676954139141,-0.08
1748284676961825775,-0.077
1748284676969512409,-0.077
1748284676977199043,-0.077
1748284676984885677,-0.077
1748284676992572311,-0.075
1748284677000258945,-0.07200000000000001
1748284677007945579,-0.07
1748284677015632213,-0.07
1748284677023318847,-0.07200000000000001
1748284677031005481,-0.07
1748284677038692115,-0.07
1748284677046378749,-0.077
1748284677054065383,-0.085
1748284677061752017,-0.082
1748284677069438651,-0.077
1748284677077125285,-0.068
1748284677084811919,-0.051000000000000004
1748284677092498553,-0.041
1748284677100185187,-0.029
1748284677107871821,-0.026000000000000002
1748284677115558455,-0.048
1748284677123245089,-0.068
1748284677130931723,-0.068
1748284677138618357,-0.068
1748284677146304991,-0.07
1748284677153991625,-0.065
1748284677161678259,-0.065
1748284677169364893,-0.07200000000000001
1748284677177051527,-0.109
1748284677184738161,-0.114
1748284677192424795,0.194
1748284677200111429,0.902
1748284677207798063,1.321
1748284677215484697,0.732
1748284677223171345,-0.34,67,1014
1748284677230857700,-0.6880000000000001
1748284677238544055,-0.355
1748284677246230410,-0.226
1748284677253916765,-0.248
1748284677261603120,-0.121
1748284677269289475,-0.07
1748284677276975830,-0.109
1748284677284662185,-0.08700000000000001
1748284677292348540,-0.055
1748284677300034895,-0.06
1748284677307721250,-0.055
1748284677315407605,-0.038
1748284677323093960,-0.034
1748284677330780315,-0.031
1748284677338466670,-0.021
1748284677346153025,-0.014
1748284677353839380,-0.009000000000000001
1748284677361525735,-0.002
1748284677369212090,0.007
1748284677376898445,0.014
1748284677384584800,0.021
1748284677392271155,0.031
1748284677399957510,0.043000000000000003
1748284677407643865,0.053
1748284677415330220,0.065
1748284677423016575,0.077
1748284677430702930,0.094
1748284677438389285,0.107
1748284677446075640,0.11900000000000001
1748284677453761995,0.131
1748284677461448350,0.136
1748284677469134705,0.138
1748284677476821060,0.136
1748284677484507415,0.133
1748284677492193770,0.121
1748284677499880125,0.10400000000000001
1748284677507566480,0.07200000000000001
1748284677515252835,0.029
1748284677522939190,-0.014
1748284677530625545,-0.058
1748284677538311900,-0.099
1748284677545998255,-0.128
1748284677553684610,-0.14300000000000002
1748284677561370965,-0.15
1748284677569057320,-0.155
1748284677576743675,-0.153
1748284677584430030,-0.148
1748284677592116385,-0.138
1748284677599802740,-0.133
1748284677607489095,-0.128
1748284677615175450,-0.126
1748284677622861805,-0.121
1748284677630548160,-0.116
1748284677638234515,-0.114
1748284677645920870,-0.111
1748284677653607225,-0.111
1748284677661293580,-0.109
1748284677668979935,-0.111
1748284677676666290,-0.111
1748284677684352645,-0.111
1748284677692039000,-0.111
1748284677699725355,-0.114
1748284677707411710,-0.114
1748284677715098065,-0.114
1748284677722784420,-0.114
1748284677730470775,-0.114
1748284677738157130,-0.116
1748284677745843485,-0.114
1748284677753529840,-0.111
1748284677761216195,-0.109
1748284677768902550,-0.107
1748284677776588905,-0.107
1748284677784275289,-0.107,66,1015
1748284677791961992,-0.10400000000000001
1748284677799648695,-0.099
1748284677807335398,-0.099
1748284677815022101,-0.099
1748284677822708804,-0.097
1748284677830395507,-0.094
1748284677838082210,-0.092
1748284677845768913,-0.09
1748284677853455616,-0.09
1748284677861142319,-0.09
1748284677868829022,-0.08700000000000001
1748284677876515725,-0.085
1748284677884202428,-0.082
1748284677891889131,-0.082
1748284677899575834,-0.082
1748284677907262537,-0.08
1748284677914949240,-0.077
1748284677922635943,-0.08
1748284677930322646,-0.077
1748284677938009349,-0.07200000000000001
1748284677945696052,-0.07200000000000001
1748284677953382755,-0.07200000000000001
1748284677961069458,-0.07200000000000001
1748284677968756161,-0.068
1748284677976442864,-0.068
1748284677984129567,-0.07
1748284677991816270,-0.07
1748284677999502973,-0.068
1748284678007189676,-0.065
1748284678014876379,-0.068
1748284678022563082,-0.07200000000000001
1748284678030249785,-0.077
1748284678037936488,-0.08
1748284678045623191,-0.08
1748284678053309894,-0.07200000000000001
1748284678060996597,-0.055
1748284678068683300,-0.043000000000000003
1748284678076370003,-0.034
1748284678084056706,-0.021
1748284678091743409,-0.031
1748284678099430112,-0.058
1748284678107116815,-0.068
1748284678114803518,-0.063
1748284678122490221,-0.065
1748284678130176924,-0.065
1748284678137863627,-0.06
1748284678145550330,-0.063
1748284678153237033,-0.085
1748284678160923736,-0.126
1748284678168610439,-0.034
1748284678176297142,0.486
1748284678183983845,1.182
1748284678191670548,1.185
1748284678199357251,0.231
1748284678207043954,-0.635
1748284678214730657,-0.5690000000000001
1748284678222417360,-0.25
1748284678230104063,-0.25
1748284678237790766,-0.199
1748284678245477469,-0.075
1748284678253164172,-0.08700000000000001
1748284678260850875,-0.109
1748284678268537578,-0.065
1748284678276224281,-0.055
1748284678283910984,-0.063
1748284678291597687,-0.046
1748284678299284390,-0.034
1748284678306971093,-0.031
1748284678314657796,-0.026000000000000002
1748284678322344499,-0.017
1748284678330031202,-0.009000000000000001
1748284678337717905,0.0
1748284678345404672,0.009000000000000001
1748284678353091097,0.017
1748284678360777522,0.021
1748284678368463947,0.029
1748284678376150372,0.041
1748284678383836797,0.051000000000000004
1748284678391523222,0.06
1748284678399209647,0.075
1748284678406896072,0.09
1748284678414582497,0.10200000000000001
1748284678422268922,0.116
1748284678429955347,0.128
1748284678437641772,0.133
1748284678445328197,0.138
1748284678453014622,0.14100000000000001
1748284678460701047,0.14100000000000001
1748284678468387472,0.136
1748284678476073897,0.121
1748284678483760322,0.094
1748284678491446747,0.058
1748284678499133172,0.009000000000000001
1748284678506819597,-0.036000000000000004
1748284678514506022,-0.08
1748284678522192447,-0.116
1748284678529878872,-0.14300000000000002
1748284678537565297,-0.158
1748284678545251722,-0.16
1748284678552938147,-0.16
1748284678560624572,-0.158
1748284678568310997,-0.15
1748284678575997422,-0.14300000000000002
1748284678583683847,-0.138
1748284678591370272,-0.131
1748284678599056697,-0.126
1748284678606743122,-0.11900000000000001
1748284678614429547,-0.116
1748284678622115972,-0.111
1748284678629802397,-0.109
1748284678637488822,-0.111
1748284678645175247,-0.114
1748284678652861672,-0.114
1748284678660548097,-0.111
1748284678668234522,-0.114
1748284678675920947,-0.116
1748284678683607372,-0.116
1748284678691293797,-0.116
1748284678698980222,-0.116
1748284678706666647,-0.116
1748284678714353072,-0.116
1748284678722039497,-0.114
1748284678729725922,-0.114
1748284678737412347,-0.114
1748284678745098772,-0.111
1748284678752785197,-0.109
1748284678760471622,-0.107
1748284678768158047,-0.10400000000000001
1748284678775844472,-0.10200000000000001
1748284678783530897,-0.10200000000000001
1748284678791217322,-0.099
1748284678798903747,-0.097
1748284678806590172,-0.099
1748284678814276597,-0.097
1748284678821963022,-0.094
1748284678829649447,-0.092
1748284678837335872,-0.09
1748284678845022297,-0.08700000000000001
1748284678852708722,-0.085
1748284678860395147,-0.085
1748284678868081572,-0.082
1748284678875767997,-0.082
1748284678883454422,-0.08
1748284678891140847,-0.077
1748284678898827272,-0.077
1748284678906513707,-0.077,66,930
1748284678914200271,-0.075
1748284678921886835,-0.075
1748284678929573399,-0.07200000000000001
1748284678937259963,-0.07200000000000001
1748284678944946527,-0.07
1748284678952633091,-0.07
1748284678960319655,-0.07
1748284678968006219,-0.068
1748284678975692783,-0.068
1748284678983379347,-0.068
1748284678991065911,-0.068
1748284678998752475,-0.065
1748284679006439039,-0.065
1748284679014125603,-0.063
1748284679021812167,-0.063
1748284679029498731,-0.068
1748284679037185295,-0.075
1748284679044871859,-0.077
1748284679052558423,-0.075
1748284679060244987,-0.07
1748284679067931551,-0.058
1748284679075618115,-0.043000000000000003
1748284679083304679,-0.034
1748284679090991243,-0.021
1748284679098677807,-0.026000000000000002
1748284679106364371,-0.055
1748284679114050935,-0.065
1748284679121737499,-0.058
1748284679129424063,-0.063
1748284679137110627,-0.065
1748284679144797191,-0.06
1748284679152483755,-0.06
1748284679160170319,-0.077
1748284679167856883,-0.121
1748284679175543447,-0.043000000000000003
1748284679183230011,0.455
1748284679190916575,1.158
1748284679198603139,1.211
1748284679206289703,0.28400000000000003
1748284679213976267,-0.62
1748284679221662831,-0.593
1748284679229349395,-0.265
1748284679237035959,-0.253
1748284679244722523,-0.209
1748284679252409087,-0.075
1748284679260095651,-0.082
1748284679267782215,-0.107
1748284679275468779,-0.065
1748284679283155343,-0.051000000000000004
1748284679290841907,-0.058
1748284679298528471,-0.043000000000000003
1748284679306215035,-0.031
1748284679313901599,-0.031
1748284679321588163,-0.024
1748284679329274727,-0.012
1748284679336961291,-0.004
1748284679344647855,0.0
1748284679352334419,0.007
1748284679360020983,0.017
1748284679367707547,0.024
1748284679375394111,0.031
1748284679383080675,0.043000000000000003
1748284679390767239,0.053
1748284679398453803,0.063
1748284679406140367,0.075
1748284679413826931,0.09
1748284679421513495,0.10400000000000001
1748284679429200059,0.11900000000000001
1748284679436886623,0.133
1748284679444573187,0.14100000000000001
1748284679452259751,0.145
1748284679459946315,0.145
1748284679467632912,0.145
1748284679475319615,0.14100000000000001
1748284679483006318,0.131
1748284679490693021,0.10400000000000001
1748284679498379724,0.068
1748284679506066427,0.024
1748284679513753130,-0.024
1748284679521439833,-0.07
1748284679529126536,-0.109
1748284679536813239,-0.136
1748284679544499942,-0.153
1748284679552186645,-0.158
1748284679559873348,-0.158
1748284679567560051,-0.155
1748284679575246754,-0.148
1748284679582933457,-0.14100000000000001
1748284679590620160,-0.133
1748284679598306863,-0.126
1748284679605993566,-0.121
1748284679613680269,-0.116
1748284679621366972,-0.111
1748284679629053675,-0.109
1748284679636740378,-0.10400000000000001
1748284679644427081,-0.10200000000000001
1748284679652113784,-0.10400000000000001
1748284679659800487,-0.107
1748284679667487190,-0.107
1748284679675173893,-0.109
1748284679682860596,-0.109
1748284679690547299,-0.111
1748284679698234002,-0.111
1748284679705920705,-0.114
1748284679713607408,-0.114
1748284679721294111,-0.114
1748284679728980814,-0.111
1748284679736667517,-0.109
1748284679744354220,-0.109
1748284679752040923,-0.109
1748284679759727626,-0.107
1748284679767414329,-0.10400000000000001
1748284679775101032,-0.10400000000000001
1748284679782787735,-0.099
1748284679790474438,-0.097
1748284679798161141,-0.099
1748284679805847844,-0.097
1748284679813534547,-0.097
1748284679821221250,-0.094
1748284679828907953,-0.09
1748284679836594656,-0.08700000000000001
1748284679844281359,-0.08700000000000001
1748284679851968062,-0.08700000000000001
1748284679859654765,-0.085
1748284679867341468,-0.082
1748284679875028171,-0.08
1748284679882714874,-0.08
1748284679890401577,-0.077
1748284679898088280,-0.075
1748284679905774983,-0.075
1748284679913461686,-0.075
1748284679921148389,-0.07200000000000001
1748284679928835092,-0.07200000000000001
1748284679936521795,-0.07200000000000001
1748284679944208498,-0.07
1748284679951895201,-0.068
1748284679959581904,-0.07
1748284679967268607,-0.068
1748284679974955310,-0.065
1748284679982642013,-0.065
1748284679990328716,-0.063
1748284679998015419,-0.063
1748284680005702122,-0.063
1748284680013388825,-0.063
1748284680021075528,-0.063
1748284680028762291,-0.06,65,961
1748284680036448925,-0.065
1748284680044135559,-0.07200000000000001
1748284680051822193,-0.075
1748284680059508827,-0.068
1748284680067195461,-0.058
1748284680074882095,-0.048
1748284680082568729,-0.036000000000000004
1748284680090255363,-0.024
1748284680097941997,-0.019
1748284680105628631,-0.041
1748284680113315265,-0.06
1748284680121001899,-0.06
1748284680128688533,-0.058
1748284680136375167,-0.06
1748284680144061801,-0.06
1748284680151748435,-0.055
1748284680159435069,-0.063
1748284680167121703,-0.097
1748284680174808337,-0.10400000000000001
1748284680182494971,0.17
1748284680190181605,0.854
1748284680197868239,1.321
1748284680205554873,0.802
1748284680213241507,-0.28400000000000003
1748284680220928141,-0.712
1748284680228614775,-0.394
1748284680236301409,-0.23600000000000002
1748284680243988043,-0.255
1748284680251674677,-0.126
1748284680259361311,-0.06
1748284680267047945,-0.10200000000000001
1748284680274734579,-0.08700000000000001
1748284680282421213,-0.051000000000000004
1748284680290107847,-0.053
1748284680297794481,-0.048
1748284680305481115,-0.031
1748284680313167749,-0.029
1748284680320854383,-0.024
1748284680328541017,-0.012
1748284680336227651,-0.007
1748284680343914285,-0.002
1748284680351600919,0.007
1748284680359287553,0.017
1748284680366974187,0.024
1748284680374660821,0.031
1748284680382347455,0.041
1748284680390034089,0.053
1748284680397720723,0.063
1748284680405407357,0.075
1748284680413093991,0.09
1748284680420780625,0.10400000000000001
1748284680428467259,0.11900000000000001
1748284680436153893,0.133
1748284680443840527,0.148
1748284680451527161,0.153
1748284680459213795,0.153
1748284680466900429,0.153
1748284680474587063,0.153
1748284680482273697,0.14300000000000002
1748284680489960331,0.124
1748284680497646965,0.094
1748284680505333599,0.048
1748284680513020233,0.0
1748284680520706867,-0.046
1748284680528393501,-0.09
1748284680536080135,-0.126
1748284680543766769,-0.15
1748284680551453403,-0.16
1748284680559140037,-0.165
1748284680566826671,-0.165
1748284680574513305,-0.16
1748284680582199939,-0.15
1748284680589886587,-0.138
1748284680597572942,-0.133
1748284680605259297,-0.128
1748284680612945652,-0.121
1748284680620632007,-0.116
1748284680628318362,-0.116
1748284680636004717,-0.114
1748284680643691072,-0.111
1748284680651377427,-0.109
1748284680659063782,-0.111
1748284680666750137,-0.114
1748284680674436492,-0.116
1748284680682122847,-0.11900000000000001
1748284680689809202,-0.11900000000000001
1748284680697495557,-0.11900000000000001
1748284680705181912,-0.11900000000000001
1748284680712868267,-0.11900000000000001
1748284680720554622,-0.11900000000000001
1748284680728240977,-0.121
1748284680735927332,-0.11900000000000001
1748284680743613687,-0.116
1748284680751300042,-0.114
1748284680758986397,-0.111
1748284680766672752,-0.109
1748284680774359107,-0.109
1748284680782045462,-0.107
1748284680789731817,-0.10400000000000001
1748284680797418172,-0.10200000000000001
1748284680805104527,-0.10200000000000001
1748284680812790882,-0.099
1748284680820477237,-0.097
1748284680828163592,-0.099
1748284680835849947,-0.097
1748284680843536302,-0.092
1748284680851222657,-0.092
1748284680858909012,-0.09
1748284680866595367,-0.08700000000000001
1748284680874281722,-0.082
1748284680881968077,-0.085
1748284680889654432,-0.085
1748284680897340787,-0.085
1748284680905027142,-0.082
1748284680912713497,-0.08
1748284680920399852,-0.077
1748284680928086207,-0.082
1748284680935772562,-0.092
1748284680943458917,-0.094
1748284680951145272,-0.08700000000000001
1748284680958831627,-0.08
1748284680966517982,-0.065
1748284680974204337,-0.048
1748284680981890692,-0.036000000000000004
1748284680989577047,-0.029
1748284680997263402,-0.041
1748284681004949757,-0.07
1748284681012636112,-0.085
1748284681020322467,-0.077
1748284681028008822,-0.075
1748284681035695177,-0.075
1748284681043381532,-0.07200000000000001
1748284681051067887,-0.07200000000000001
1748284681058754242,-0.085
1748284681066440597,-0.109
1748284681074126952,0.021
1748284681081813307,0.5640000000000001
1748284681089499662,1.206
1748284681097186017,1.053
1748284681104872372,-0.007
1748284681112558727,-0.766
1748284681120245082,-0.5760000000000001
1748284681127931437,-0.289
1748284681135617792,-0.306
1748284681143304147,-0.199
1748284681150990531,-0.055,65,980
1748284681158677234,-0.08
1748284681166363937,-0.097
1748284681174050640,-0.051000000000000004
1748284681181737343,-0.043000000000000003
1748284681189424046,-0.051000000000000004
1748284681197110749,-0.036000000000000004
1748284681204797452,-0.024
1748284681212484155,-0.019
1748284681220170858,-0.012
1748284681227857561,-0.004
1748284681235544264,0.0
1748284681243230967,0.012
1748284681250917670,0.021
1748284681258604373,0.029
1748284681266291076,0.036000000000000004
1748284681273977779,0.048
1748284681281664482,0.06
1748284681289351185,0.075
1748284681297037888,0.09
1748284681304724591,0.10400000000000001
1748284681312411294,0.121
1748284681320097997,0.14100000000000001
1748284681327784700,0.158
1748284681335471403,0.17200000000000001
1748284681343158106,0.177
1748284681350844809,0.177
1748284681358531512,0.177
1748284681366218215,0.17200000000000001
1748284681373904918,0.163
1748284681381591621,0.14100000000000001
1748284681389278324,0.099
1748284681396965027,0.048
1748284681404651730,-0.007
1748284681412338433,-0.063
1748284681420025136,-0.111
1748284681427711839,-0.153
1748284681435398542,-0.177
1748284681443085245,-0.187
1748284681450771948,-0.189
1748284681458458651,-0.187
1748284681466145354,-0.18
1748284681473832057,-0.17
1748284681481518760,-0.16
1748284681489205463,-0.15
1748284681496892166,-0.14100000000000001
1748284681504578869,-0.133
1748284681512265572,-0.126
1748284681519952275,-0.124
1748284681527638978,-0.11900000000000001
1748284681535325681,-0.116
1748284681543012384,-0.116
1748284681550699087,-0.116
1748284681558385790,-0.11900000000000001
1748284681566072493,-0.121
1748284681573759196,-0.121
1748284681581445899,-0.124
1748284681589132602,-0.126
1748284681596819305,-0.126
1748284681604506008,-0.126
1748284681612192711,-0.126
1748284681619879414,-0.124
1748284681627566117,-0.121
1748284681635252820,-0.121
1748284681642939523,-0.121
1748284681650626226,-0.11900000000000001
1748284681658312929,-0.116
1748284681665999632,-0.116
1748284681673686335,-0.114
1748284681681373038,-0.111
1748284681689059741,-0.109
1748284681696746444,-0.109
1748284681704433147,-0.107
1748284681712119914,-0.10400000000000001
1748284681719806339,-0.10400000000000001
1748284681727492764,-0.10200000000000001
1748284681735179189,-0.099
1748284681742865614,-0.097
1748284681750552039,-0.094
1748284681758238464,-0.094
1748284681765924889,-0.094
1748284681773611314,-0.092
1748284681781297739,-0.09
1748284681788984164,-0.08700000000000001
1748284681796670589,-0.085
1748284681804357014,-0.085
1748284681812043439,-0.082
1748284681819729864,-0.082
1748284681827416289,-0.085
1748284681835102714,-0.092
1748284681842789139,-0.094
1748284681850475564,-0.092
1748284681858161989,-0.085
1748284681865848414,-0.07200000000000001
1748284681873534839,-0.053
1748284681881221264,-0.043000000000000003
1748284681888907689,-0.036000000000000004
1748284681896594114,-0.034
1748284681904280539,-0.058
1748284681911966964,-0.077
1748284681919653389,-0.075
1748284681927339814,-0.075
1748284681935026239,-0.077
1748284681942712664,-0.07200000000000001
1748284681950399089,-0.07
1748284681958085514,-0.08
1748284681965771939,-0.114
1748284681973458364,-0.114
1748284681981144789,0.201
1748284681988831214,0.905
1748284681996517639,1.306
1748284682004204064,0.6930000000000001
1748284682011890489,-0.386
1748284682019576914,-0.725
1748284682027263339,-0.377
1748284682034949764,-0.243
1748284682042636189,-0.255
1748284682050322614,-0.124
1748284682058009039,-0.07
1748284682065695464,-0.111
1748284682073381889,-0.09
1748284682081068314,-0.055
1748284682088754739,-0.063
1748284682096441164,-0.058
1748284682104127589,-0.041
1748284682111814014,-0.036000000000000004
1748284682119500439,-0.034
1748284682127186864,-0.021
1748284682134873289,-0.014
1748284682142559714,-0.009000000000000001
1748284682150246139,0.0
1748284682157932564,0.007
1748284682165618989,0.014
1748284682173305414,0.024
1748284682180991839,0.031
1748284682188678264,0.041
1748284682196364689,0.055
1748284682204051114,0.07
1748284682211737539,0.085
1748284682219423964,0.10200000000000001
1748284682227110389,0.11900000000000001
1748284682234796814,0.133
1748284682242483239,0.148
1748284682250169664,0.155
1748284682257856089,0.16
1748284682265542514,0.16
1748284682273228949,0.16,64,1007
1748284682280915513,0.148,,1003
1748284682288602077,0.124
1748284682296288641,0.085
1748284682303975205,0.034
1748284682311661769,-0.017
1748284682319348333,-0.065
1748284682327034897,-0.109
1748284682334721461,-0.14300000000000002
1748284682342408025,-0.16
1748284682350094589,-0.17
1748284682357781153,-0.17
1748284682365467717,-0.165
1748284682373154281,-0.16
1748284682380840845,-0.155
1748284682388527409,-0.148
1748284682396213973,-0.14100000000000001
1748284682403900537,-0.136
1748284682411587101,-0.131
1748284682419273665,-0.126
1748284682426960229,-0.121
1748284682434646793,-0.11900000000000001
1748284682442333357,-0.116
1748284682450019921,-0.116
1748284682457706485,-0.114
1748284682465393049,-0.114
1748284682473079613,-0.116
1748284682480766177,-0.11900000000000001
1748284682488452741,-0.11900000000000001
1748284682496139305,-0.11900000000000001
1748284682503825869,-0.11900000000000001
1748284682511512433,-0.11900000000000001
1748284682519198997,-0.116
1748284682526885561,-0.116
1748284682534572125,-0.116
1748284682542258689,-0.114
1748284682549945253,-0.111
1748284682557631817,-0.109
1748284682565318381,-0.109
1748284682573004945,-0.107
1748284682580691509,-0.10400000000000001
1748284682588378073,-0.10400000000000001
1748284682596064637,-0.10200000000000001
1748284682603751201,-0.097
1748284682611437765,-0.094
1748284682619124329,-0.094
1748284682626810893,-0.092
1748284682634497457,-0.09
1748284682642184021,-0.09
1748284682649870585,-0.08700000000000001
1748284682657557149,-0.085
1748284682665243713,-0.085
1748284682672930277,-0.082
1748284682680616841,-0.082
1748284682688303405,-0.08
1748284682695989969,-0.08
1748284682703676533,-0.077
1748284682711363097,-0.075
1748284682719049661,-0.07200000000000001
1748284682726736225,-0.07200000000000001
1748284682734422789,-0.07200000000000001
1748284682742109353,-0.07
1748284682749795917,-0.07
1748284682757482481,-0.07
1748284682765169045,-0.068
1748284682772855609,-0.068
1748284682780542173,-0.065
1748284682788228737,-0.065
1748284682795915301,-0.068
1748284682803601865,-0.07200000000000001
1748284682811288429,-0.077
1748284682818974993,-0.077
1748284682826661557,-0.07200000000000001
1748284682834348154,-0.063,64,895
1748284682842034857,-0.046
1748284682849721560,-0.036000000000000004
1748284682857408263,-0.024
1748284682865094966,-0.021
1748284682872781669,-0.043000000000000003
1748284682880468372,-0.063
1748284682888155075,-0.063
1748284682895841778,-0.06
1748284682903528481,-0.063
