time,LSB
0.000000000000,0.690000000000
0.007687888000,0.410000000000
0.015375776000,-0.197000000000
0.023063664000,-0.445000000000
0.030751552000,-0.304000000000
0.038439462000,-0.217000000000
0.046127001000,-0.205000000000
0.053814540000,-0.108000000000
0.061502079000,-0.034000000000
0.069189618000,-0.042000000000
0.076877157000,-0.039000000000
0.084564696000,-0.017000000000
0.092252235000,-0.014000000000
0.099939774000,-0.017000000000
0.107627313000,-0.009000000000
0.115314852000,-0.002000000000
0.123002391000,0.004000000000
0.130689930000,0.017000000000
0.138377469000,0.022000000000
0.146065008000,0.022000000000
0.153752547000,0.022000000000
0.161440086000,0.014000000000
0.169127625000,0.019000000000
0.176815164000,0.042000000000
0.184502703000,0.056000000000
0.192190242000,0.066000000000
0.199877781000,0.076000000000
0.207565320000,0.081000000000
0.215252859000,0.096000000000
0.222940398000,0.121000000000
0.230627937000,0.131000000000
0.238315476000,0.138000000000
0.246003015000,0.148000000000
0.253690554000,0.143000000000
0.261378093000,0.131000000000
0.269065632000,0.126000000000
0.276753171000,0.116000000000
0.284440710000,0.096000000000
0.292128249000,0.061000000000
0.299815788000,0.012000000000
0.307503327000,-0.034000000000
0.315190866000,-0.061000000000
0.322878405000,-0.084000000000
0.330565944000,-0.111000000000
0.338253483000,-0.128000000000
0.345941022000,-0.126000000000
0.353628561000,-0.126000000000
0.361316100000,-0.141000000000
0.369003639000,-0.141000000000
0.376691178000,-0.121000000000
0.384378717000,-0.111000000000
0.392066256000,-0.111000000000
0.399753795000,-0.103000000000
0.407441334000,-0.091000000000
0.415128873000,-0.081000000000
0.422816412000,-0.076000000000
0.430503951000,-0.074000000000
0.438191490000,-0.071000000000
0.445879029000,-0.071000000000
0.453566568000,-0.071000000000
0.461254107000,-0.071000000000
0.468941646000,-0.071000000000
0.476629185000,-0.069000000000
0.484316724000,-0.076000000000
0.492004263000,-0.081000000000
0.499691802000,-0.074000000000
0.507379341000,-0.069000000000
0.515066880000,-0.079000000000
0.522754419000,-0.079000000000
0.530441958000,-0.071000000000
0.538129497000,-0.064000000000
0.545817036000,-0.071000000000
0.553504575000,-0.074000000000
0.561192114000,-0.066000000000
0.568879653000,-0.066000000000
0.576567192000,-0.061000000000
0.584254731000,-0.049000000000
0.591942270000,-0.054000000000
0.599629877000,-0.066000000000
0.607317695000,-0.061000000000
0.615005513000,-0.056000000000
0.622693331000,-0.064000000000
0.630381149000,-0.059000000000
0.638068967000,-0.039000000000
0.645756785000,-0.022000000000
0.653444603000,-0.019000000000
0.661132421000,-0.022000000000
0.668820239000,-0.014000000000
0.676508057000,-0.014000000000
0.684195875000,-0.034000000000
0.691883693000,-0.051000000000
0.699571511000,-0.051000000000
0.707259329000,-0.042000000000
0.714947147000,-0.042000000000
0.722634965000,-0.044000000000
0.730322783000,-0.034000000000
0.738010601000,-0.032000000000
0.745698419000,-0.032000000000
0.753386237000,0.081000000000
0.761074055000,0.432000000000
0.768761873000,0.742000000000
0.776449691000,0.467000000000
0.784137509000,-0.183000000000
0.791825327000,-0.445000000000
0.799513145000,-0.286000000000
0.807200963000,-0.207000000000
0.814888781000,-0.197000000000
0.822576599000,-0.071000000000
0.830264417000,0.009000000000
0.837952235000,-0.019000000000
0.845640053000,-0.017000000000
0.853327871000,0.007000000000
0.861015689000,-0.002000000000
0.868703507000,0.004000000000
0.876391325000,0.027000000000
0.884079143000,0.029000000000
0.891766961000,0.032000000000
0.899454779000,0.049000000000
0.907142597000,0.049000000000
0.914830415000,0.039000000000
0.922518233000,0.054000000000
0.930206051000,0.076000000000
0.937893869000,0.071000000000
0.945581687000,0.066000000000
0.953269505000,0.091000000000
0.960957323000,0.108000000000
0.968645141000,0.108000000000
0.976332959000,0.123000000000
0.984020777000,0.150000000000
0.991708595000,0.165000000000
0.999396413000,0.170000000000
1.007084231000,0.175000000000
1.014772049000,0.180000000000
1.022459867000,0.183000000000
1.030147685000,0.173000000000
1.037835503000,0.163000000000
1.045523321000,0.150000000000
1.053211139000,0.123000000000
1.060898957000,0.084000000000
1.068586775000,0.047000000000
1.076274593000,-0.007000000000
1.083962411000,-0.054000000000
1.091650229000,-0.066000000000
1.099338047000,-0.081000000000
1.107025865000,-0.106000000000
1.114713683000,-0.113000000000
1.122401501000,-0.108000000000
1.130089319000,-0.108000000000
1.137777137000,-0.106000000000
1.145464955000,-0.098000000000
1.153152773000,-0.089000000000
1.160840640000,-0.084000000000
1.168528319000,-0.091000000000
1.176215998000,-0.089000000000
1.183903677000,-0.071000000000
1.191591356000,-0.056000000000
1.199279035000,-0.064000000000
1.206966714000,-0.064000000000
1.214654393000,-0.051000000000
1.222342072000,-0.049000000000
1.230029751000,-0.059000000000
1.237717430000,-0.064000000000
1.245405109000,-0.061000000000
1.253092788000,-0.061000000000
1.260780467000,-0.064000000000
1.268468146000,-0.064000000000
1.276155825000,-0.061000000000
1.283843504000,-0.056000000000
1.291531183000,-0.056000000000
1.299218862000,-0.066000000000
1.306906541000,-0.071000000000
1.314594220000,-0.066000000000
1.322281899000,-0.061000000000
1.329969578000,-0.061000000000
1.337657257000,-0.059000000000
1.345344936000,-0.051000000000
1.353032615000,-0.047000000000
1.360720294000,-0.056000000000
1.368407973000,-0.061000000000
1.376095652000,-0.051000000000
1.383783331000,-0.054000000000
1.391471010000,-0.064000000000
1.399158689000,-0.056000000000
1.406846368000,-0.042000000000
1.414534047000,-0.039000000000
1.422221726000,-0.032000000000
1.429909405000,-0.022000000000
1.437597084000,-0.019000000000
1.445284763000,-0.014000000000
1.452972442000,-0.024000000000
1.460660121000,-0.042000000000
1.468347800000,-0.039000000000
1.476035479000,-0.032000000000
1.483723158000,-0.039000000000
1.491410837000,-0.049000000000
1.499098516000,-0.049000000000
1.506786195000,-0.042000000000
1.514473874000,-0.042000000000
1.522161553000,-0.047000000000
1.529849232000,0.032000000000
1.537536911000,0.336000000000
1.545224590000,0.700000000000
1.552912269000,0.620000000000
1.560599948000,0.054000000000
1.568287627000,-0.368000000000
1.575975306000,-0.338000000000
1.583662985000,-0.202000000000
1.591350664000,-0.168000000000
1.599038343000,-0.098000000000
1.606726022000,-0.027000000000
1.614413701000,-0.039000000000
1.622101380000,-0.054000000000
1.629789059000,-0.029000000000
1.637476738000,-0.014000000000
1.645164417000,-0.012000000000
1.652852096000,0.000000000000
1.660539775000,0.009000000000
1.668227454000,0.002000000000
1.675915133000,0.002000000000
1.683602812000,0.012000000000
1.691290491000,0.017000000000
1.698978170000,0.014000000000
1.706665849000,0.017000000000
1.714353528000,0.027000000000
1.722041225000,0.037000000000
1.729729182000,0.047000000000
1.737417139000,0.059000000000
1.745105096000,0.071000000000
1.752793053000,0.074000000000
1.760481010000,0.081000000000
1.768168967000,0.103000000000
1.775856924000,0.121000000000
1.783544881000,0.121000000000
1.791232838000,0.118000000000
1.798920795000,0.128000000000
1.806608752000,0.136000000000
1.814296709000,0.133000000000
1.821984666000,0.121000000000
1.829672623000,0.094000000000
1.837360580000,0.059000000000
1.845048537000,0.027000000000
1.852736494000,-0.009000000000
1.860424451000,-0.047000000000
1.868112408000,-0.074000000000
1.875800365000,-0.086000000000
1.883488322000,-0.094000000000
1.891176279000,-0.108000000000
1.898864236000,-0.118000000000
1.906552193000,-0.108000000000
1.914240150000,-0.096000000000
1.921928107000,-0.101000000000
1.929616064000,-0.103000000000
1.937304021000,-0.094000000000
1.944991978000,-0.084000000000
1.952679935000,-0.079000000000
1.960367892000,-0.076000000000
1.968055849000,-0.074000000000
1.975743806000,-0.071000000000
1.983431763000,-0.071000000000
1.991119720000,-0.069000000000
1.998807677000,-0.064000000000
2.006495634000,-0.066000000000
2.014183591000,-0.074000000000
2.021871548000,-0.074000000000
2.029559505000,-0.066000000000
2.037247462000,-0.066000000000
2.044935419000,-0.079000000000
2.052623376000,-0.084000000000
2.060311333000,-0.071000000000
2.067999290000,-0.066000000000
2.075687247000,-0.071000000000
2.083375204000,-0.079000000000
2.091063161000,-0.076000000000
2.098751118000,-0.066000000000
2.106439075000,-0.069000000000
2.114127032000,-0.071000000000
2.121814989000,-0.071000000000
2.129502946000,-0.066000000000
2.137190903000,-0.066000000000
2.144878860000,-0.074000000000
2.152566817000,-0.076000000000
2.160254774000,-0.076000000000
2.167942731000,-0.076000000000
2.175630688000,-0.069000000000
2.183318645000,-0.051000000000
2.191006602000,-0.032000000000
2.198694559000,-0.029000000000
2.206382516000,-0.042000000000
2.214070473000,-0.037000000000
2.221758430000,-0.034000000000
2.229446387000,-0.056000000000
2.237134344000,-0.066000000000
2.244822301000,-0.054000000000
2.252510258000,-0.056000000000
2.260198215000,-0.059000000000
2.267886172000,-0.051000000000
2.275574129000,-0.047000000000
2.283262158000,-0.059000000000
2.290949767000,-0.071000000000
2.298637376000,-0.024000000000
2.306324985000,0.207000000000
2.314012594000,0.593000000000
2.321700203000,0.672000000000
2.329387812000,0.195000000000
2.337075421000,-0.311000000000
2.344763030000,-0.380000000000
2.352450639000,-0.242000000000
2.360138248000,-0.192000000000
2.367825857000,-0.133000000000
2.375513466000,-0.047000000000
2.383201075000,-0.044000000000
2.390888684000,-0.056000000000
2.398576293000,-0.032000000000
2.406263902000,-0.024000000000
2.413951511000,-0.029000000000
2.421639120000,-0.017000000000
2.429326729000,-0.002000000000
2.437014338000,-0.004000000000
2.444701947000,-0.004000000000
2.452389556000,0.004000000000
2.460077165000,0.009000000000
2.467764774000,0.014000000000
2.475452383000,0.024000000000
2.483139992000,0.029000000000
2.490827601000,0.032000000000
2.498515210000,0.034000000000
2.506202819000,0.042000000000
2.513890428000,0.054000000000
2.521578037000,0.071000000000
2.529265646000,0.086000000000
2.536953255000,0.098000000000
2.544640864000,0.113000000000
2.552328473000,0.121000000000
2.560016082000,0.123000000000
2.567703691000,0.128000000000
2.575391300000,0.128000000000
2.583078909000,0.123000000000
2.590766518000,0.113000000000
2.598454127000,0.101000000000
2.606141736000,0.071000000000
2.613829345000,0.027000000000
2.621516954000,-0.009000000000
2.629204563000,-0.047000000000
2.636892172000,-0.079000000000
2.644579781000,-0.098000000000
2.652267390000,-0.108000000000
2.659954999000,-0.113000000000
2.667642608000,-0.113000000000
2.675330217000,-0.111000000000
2.683017826000,-0.113000000000
2.690705435000,-0.111000000000
2.698393044000,-0.108000000000
2.706080653000,-0.106000000000
2.713768262000,-0.103000000000
2.721455871000,-0.098000000000
2.729143480000,-0.094000000000
2.736831089000,-0.086000000000
2.744518698000,-0.076000000000
2.752206307000,-0.076000000000
2.759893916000,-0.076000000000
2.767581525000,-0.074000000000
2.775269134000,-0.079000000000
2.782956743000,-0.084000000000
2.790644352000,-0.076000000000
2.798331961000,-0.074000000000
2.806019570000,-0.081000000000
2.813707179000,-0.079000000000
2.821394788000,-0.071000000000
2.829082397000,-0.074000000000
2.836770006000,-0.084000000000
2.844457664000,-0.081000000000
2.852145552000,-0.071000000000
2.859833440000,-0.076000000000
2.867521328000,-0.081000000000
2.875209216000,-0.074000000000
2.882897104000,-0.064000000000
2.890584992000,-0.064000000000
2.898272880000,-0.069000000000
2.905960768000,-0.071000000000
2.913648656000,-0.074000000000
2.921336544000,-0.076000000000
2.929024432000,-0.074000000000
2.936712320000,-0.071000000000
2.944400208000,-0.076000000000
2.952088096000,-0.074000000000
2.959775984000,-0.066000000000
2.967463872000,-0.044000000000
2.975151760000,-0.032000000000
2.982839648000,-0.037000000000
2.990527536000,-0.034000000000
2.998215424000,-0.037000000000
3.005903312000,-0.047000000000
3.013591200000,-0.056000000000
3.021279088000,-0.069000000000
3.028966976000,-0.071000000000
3.036654864000,-0.061000000000
3.044342752000,-0.056000000000
3.052030640000,-0.061000000000
3.059718528000,-0.056000000000
3.067406416000,-0.056000000000
3.075094304000,-0.039000000000
3.082782192000,0.128000000000
3.090470080000,0.512000000000
3.098157968000,0.700000000000
3.105845856000,0.279000000000
3.113533744000,-0.304000000000
3.121221632000,-0.435000000000
3.128909520000,-0.277000000000
3.136597408000,-0.225000000000
3.144285296000,-0.197000000000
3.151973184000,-0.086000000000
3.159661072000,-0.037000000000
3.167348960000,-0.061000000000
3.175036848000,-0.054000000000
3.182724736000,-0.027000000000
3.190412624000,-0.022000000000
3.198100512000,-0.022000000000
3.205788400000,-0.017000000000
3.213476288000,-0.014000000000
3.221164176000,-0.007000000000
3.228852064000,-0.002000000000
3.236539952000,0.000000000000
3.244227840000,0.009000000000
3.251915728000,0.014000000000
3.259603616000,0.017000000000
3.267291504000,0.024000000000
3.274979392000,0.039000000000
3.282667280000,0.054000000000
3.290355168000,0.064000000000
3.298043056000,0.071000000000
3.305730944000,0.081000000000
3.313418832000,0.096000000000
3.321106720000,0.113000000000
3.328794608000,0.126000000000
3.336482496000,0.136000000000
3.344170384000,0.141000000000
3.351858272000,0.136000000000
3.359546160000,0.133000000000
3.367234048000,0.131000000000
3.374921936000,0.108000000000
3.382609824000,0.069000000000
3.390297712000,0.032000000000
3.397985600000,0.002000000000
3.405673510000,-0.039000000000
3.413361049000,-0.086000000000
3.421048588000,-0.108000000000
3.428736127000,-0.126000000000
3.436423666000,-0.136000000000
3.444111205000,-0.131000000000
3.451798744000,-0.133000000000
3.459486283000,-0.141000000000
3.467173822000,-0.126000000000
3.474861361000,-0.111000000000
3.482548900000,-0.111000000000
3.490236439000,-0.113000000000
3.497923978000,-0.098000000000
3.505611517000,-0.091000000000
3.513299056000,-0.089000000000
3.520986595000,-0.081000000000
3.528674134000,-0.071000000000
3.536361673000,-0.069000000000
3.544049212000,-0.074000000000
3.551736751000,-0.079000000000
3.559424290000,-0.074000000000
3.567111829000,-0.066000000000
3.574799368000,-0.066000000000
3.582486907000,-0.066000000000
3.590174446000,-0.069000000000
3.597861985000,-0.079000000000
3.605549524000,-0.081000000000
3.613237063000,-0.074000000000
3.620924602000,-0.076000000000
3.628612141000,-0.074000000000
3.636299680000,-0.071000000000
3.643987219000,-0.074000000000
3.651674758000,-0.066000000000
3.659362297000,-0.064000000000
3.667049836000,-0.071000000000
3.674737375000,-0.074000000000
3.682424914000,-0.071000000000
3.690112453000,-0.071000000000
3.697799992000,-0.051000000000
3.705487531000,-0.034000000000
3.713175070000,-0.044000000000
3.720862609000,-0.042000000000
3.728550148000,-0.027000000000
3.736237687000,-0.039000000000
3.743925226000,-0.056000000000
3.751612765000,-0.054000000000
3.759300304000,-0.056000000000
3.766987843000,-0.064000000000
3.774675382000,-0.054000000000
3.782362921000,-0.044000000000
3.790050460000,-0.054000000000
3.797737999000,-0.066000000000
3.805425538000,-0.074000000000
3.813113077000,-0.022000000000
3.820800616000,0.239000000000
3.828488155000,0.640000000000
3.836175694000,0.638000000000
3.843863233000,0.061000000000
3.851550772000,-0.418000000000
3.859238311000,-0.378000000000
3.866925850000,-0.227000000000
3.874613389000,-0.220000000000
3.882300928000,-0.155000000000
3.889988467000,-0.049000000000
3.897676006000,-0.044000000000
3.905363545000,-0.054000000000
3.913051084000,-0.024000000000
3.920738623000,-0.012000000000
3.928426162000,-0.017000000000
3.936113701000,-0.014000000000
3.943801240000,-0.007000000000
3.951488779000,-0.002000000000
3.959176318000,0.004000000000
3.966863925000,0.004000000000
3.974551743000,0.007000000000
3.982239561000,0.014000000000
3.989927379000,0.027000000000
3.997615197000,0.034000000000
4.005303015000,0.037000000000
4.012990833000,0.042000000000
4.020678651000,0.049000000000
4.028366469000,0.061000000000
4.036054287000,0.074000000000
4.043742105000,0.089000000000
4.051429923000,0.103000000000
4.059117741000,0.118000000000
4.066805559000,0.131000000000
4.074493377000,0.138000000000
4.082181195000,0.143000000000
4.089869013000,0.141000000000
4.097556831000,0.131000000000
4.105244649000,0.118000000000
4.112932467000,0.103000000000
4.120620285000,0.066000000000
4.128308103000,0.012000000000
4.135995921000,-0.029000000000
4.143683739000,-0.054000000000
4.151371557000,-0.074000000000
4.159059375000,-0.094000000000
4.166747193000,-0.108000000000
4.174435011000,-0.118000000000
4.182122829000,-0.126000000000
4.189810647000,-0.121000000000
4.197498465000,-0.111000000000
4.205186283000,-0.113000000000
4.212874101000,-0.118000000000
4.220561919000,-0.103000000000
4.228249737000,-0.086000000000
4.235937555000,-0.086000000000
4.243625373000,-0.089000000000
4.251313191000,-0.076000000000
4.259001009000,-0.066000000000
4.266688827000,-0.066000000000
4.274376645000,-0.071000000000
4.282064463000,-0.076000000000
4.289752281000,-0.076000000000
4.297440099000,-0.071000000000
4.305127917000,-0.064000000000
4.312815735000,-0.066000000000
4.320503553000,-0.074000000000
4.328191371000,-0.074000000000
4.335879189000,-0.074000000000
4.343567007000,-0.074000000000
4.351254825000,-0.071000000000
4.358942643000,-0.069000000000
4.366630461000,-0.066000000000
4.374318279000,-0.066000000000
4.382006097000,-0.069000000000
4.389693915000,-0.064000000000
4.397381733000,-0.059000000000
4.405069551000,-0.069000000000
4.412757369000,-0.076000000000
4.420445187000,-0.069000000000
4.428133005000,-0.064000000000
4.435820823000,-0.069000000000
4.443508641000,-0.069000000000
4.451196459000,-0.064000000000
4.458884277000,-0.054000000000
4.466572095000,-0.032000000000
4.474259913000,-0.019000000000
4.481947731000,-0.019000000000
4.489635549000,-0.022000000000
4.497323367000,-0.029000000000
4.505011185000,-0.044000000000
4.512699003000,-0.049000000000
4.520386821000,-0.042000000000
4.528074688000,-0.037000000000
4.535762367000,-0.039000000000
4.543450046000,-0.039000000000
4.551137725000,-0.034000000000
4.558825404000,-0.039000000000
4.566513083000,-0.051000000000
4.574200762000,-0.009000000000
4.581888441000,0.239000000000
4.589576120000,0.638000000000
4.597263799000,0.690000000000
4.604951478000,0.180000000000
4.612639157000,-0.333000000000
4.620326836000,-0.380000000000
4.628014515000,-0.220000000000
4.635702194000,-0.173000000000
4.643389873000,-0.126000000000
4.651077552000,-0.047000000000
4.658765231000,-0.042000000000
4.666452910000,-0.056000000000
4.674140589000,-0.032000000000
4.681828268000,-0.019000000000
4.689515947000,-0.019000000000
4.697203626000,-0.014000000000
4.704891305000,-0.012000000000
4.712578984000,-0.009000000000
4.720266663000,0.004000000000
4.727954342000,0.009000000000
4.735642021000,0.009000000000
4.743329700000,0.019000000000
4.751017379000,0.027000000000
4.758705058000,0.027000000000
4.766392737000,0.034000000000
4.774080416000,0.039000000000
4.781768095000,0.049000000000
4.789455774000,0.071000000000
4.797143453000,0.089000000000
4.804831132000,0.094000000000
4.812518811000,0.106000000000
4.820206490000,0.121000000000
4.827894169000,0.126000000000
4.835581848000,0.128000000000
4.843269527000,0.133000000000
4.850957206000,0.136000000000
4.858644885000,0.131000000000
4.866332564000,0.126000000000
4.874020243000,0.108000000000
4.881707922000,0.079000000000
4.889395601000,0.044000000000
4.897083280000,0.002000000000
4.904770959000,-0.039000000000
4.912458638000,-0.064000000000
4.920146317000,-0.076000000000
4.927833996000,-0.089000000000
4.935521675000,-0.103000000000
4.943209354000,-0.106000000000
4.950897033000,-0.101000000000
4.958584712000,-0.098000000000
4.966272391000,-0.098000000000
4.973960070000,-0.096000000000
4.981647749000,-0.091000000000
4.989335428000,-0.081000000000
4.997023107000,-0.071000000000
5.004710786000,-0.074000000000
5.012398465000,-0.074000000000
5.020086144000,-0.064000000000
5.027773823000,-0.066000000000
5.035461502000,-0.071000000000
5.043149181000,-0.066000000000
5.050836860000,-0.064000000000
5.058524539000,-0.066000000000
5.066212218000,-0.061000000000
5.073899897000,-0.061000000000
5.081587576000,-0.066000000000
5.089275273000,-0.066000000000
5.096963231000,-0.064000000000
5.104651189000,-0.061000000000
5.112339147000,-0.064000000000
5.120027105000,-0.066000000000
5.127715063000,-0.064000000000
5.135403021000,-0.061000000000
5.143090979000,-0.054000000000
5.150778937000,-0.049000000000
5.158466895000,-0.056000000000
5.166154853000,-0.056000000000
5.173842811000,-0.047000000000
5.181530769000,-0.044000000000
5.189218727000,-0.054000000000
5.196906685000,-0.061000000000
5.204594643000,-0.061000000000
5.212282601000,-0.051000000000
5.219970559000,-0.032000000000
5.227658517000,-0.027000000000
5.235346475000,-0.027000000000
5.243034433000,-0.012000000000
5.250722391000,-0.014000000000
5.258410349000,-0.037000000000
5.266098307000,-0.044000000000
5.273786265000,-0.042000000000
5.281474223000,-0.047000000000
5.289162181000,-0.049000000000
5.296850139000,-0.044000000000
5.304538097000,-0.037000000000
5.312226055000,-0.034000000000
5.319914013000,-0.047000000000
5.327601971000,-0.059000000000
5.335289929000,0.002000000000
5.342977887000,0.282000000000
5.350665845000,0.660000000000
5.358353803000,0.635000000000
5.366041761000,0.084000000000
5.373729719000,-0.373000000000
5.381417677000,-0.356000000000
5.389105635000,-0.210000000000
5.396793593000,-0.180000000000
5.404481551000,-0.113000000000
5.412169509000,-0.032000000000
5.419857467000,-0.039000000000
5.427545425000,-0.049000000000
5.435233383000,-0.019000000000
5.442921341000,-0.009000000000
5.450609299000,-0.014000000000
5.458297257000,0.000000000000
5.465985215000,0.007000000000
5.473673173000,0.002000000000
5.481361131000,0.002000000000
5.489049089000,0.014000000000
5.496737047000,0.019000000000
5.504425005000,0.027000000000
5.512112963000,0.029000000000
5.519800921000,0.027000000000
5.527488879000,0.037000000000
5.535176837000,0.051000000000
5.542864795000,0.056000000000
5.550552753000,0.069000000000
5.558240711000,0.086000000000
5.565928669000,0.098000000000
5.573616627000,0.108000000000
5.581304585000,0.123000000000
5.588992543000,0.133000000000
5.596680501000,0.131000000000
5.604368459000,0.131000000000
5.612056417000,0.138000000000
5.619744375000,0.133000000000
5.627432333000,0.123000000000
5.635120291000,0.108000000000
5.642808249000,0.079000000000
5.650496210000,0.029000000000
5.658183819000,-0.012000000000
5.665871428000,-0.039000000000
5.673559037000,-0.071000000000
5.681246646000,-0.096000000000
5.688934255000,-0.108000000000
5.696621864000,-0.116000000000
5.704309473000,-0.116000000000
5.711997082000,-0.106000000000
5.719684691000,-0.098000000000
5.727372300000,-0.098000000000
5.735059909000,-0.101000000000
5.742747518000,-0.101000000000
5.750435127000,-0.094000000000
5.758122736000,-0.084000000000
5.765810345000,-0.081000000000
5.773497954000,-0.081000000000
5.781185563000,-0.076000000000
5.788873172000,-0.074000000000
5.796560781000,-0.084000000000
5.804248390000,-0.086000000000
5.811935999000,-0.076000000000
5.819623608000,-0.071000000000
5.827311217000,-0.079000000000
5.834998826000,-0.074000000000
5.842686435000,-0.069000000000
5.850374044000,-0.069000000000
5.858061653000,-0.064000000000
5.865749262000,-0.064000000000
5.873436871000,-0.076000000000
5.881124480000,-0.079000000000
5.888812089000,-0.076000000000
5.896499698000,-0.079000000000
5.904187307000,-0.079000000000
5.911874916000,-0.066000000000
5.919562525000,-0.061000000000
5.927250134000,-0.071000000000
5.934937743000,-0.064000000000
5.942625352000,-0.054000000000
5.950312961000,-0.071000000000
5.958000570000,-0.094000000000
5.965688179000,-0.084000000000
5.973375788000,-0.061000000000
5.981063397000,-0.042000000000
5.988751006000,-0.029000000000
5.996438615000,-0.037000000000
6.004126224000,-0.037000000000
6.011813833000,-0.032000000000
6.019501442000,-0.039000000000
6.027189051000,-0.054000000000
6.034876660000,-0.064000000000
6.042564269000,-0.066000000000
6.050251878000,-0.064000000000
6.057939487000,-0.054000000000
6.065627096000,-0.044000000000
6.073314705000,-0.056000000000
6.081002314000,-0.079000000000
6.088689923000,-0.059000000000
6.096377532000,0.101000000000
6.104065141000,0.475000000000
6.111752750000,0.707000000000
6.119440359000,0.376000000000
6.127127968000,-0.207000000000
6.134815577000,-0.408000000000
6.142503186000,-0.269000000000
6.150190795000,-0.190000000000
6.157878404000,-0.155000000000
6.165566013000,-0.064000000000
6.173253622000,-0.037000000000
6.180941231000,-0.059000000000
6.188628840000,-0.044000000000
6.196316449000,-0.027000000000
6.204004058000,-0.029000000000
6.211691712000,-0.017000000000
6.219379600000,-0.007000000000
6.227067488000,-0.009000000000
6.234755376000,-0.007000000000
6.242443264000,0.004000000000
6.250131152000,0.004000000000
6.257819040000,0.000000000000
6.265506928000,0.007000000000
6.273194816000,0.022000000000
6.280882704000,0.029000000000
6.288570592000,0.034000000000
6.296258480000,0.039000000000
6.303946368000,0.051000000000
6.311634256000,0.061000000000
6.319322144000,0.069000000000
6.327010032000,0.086000000000
6.334697920000,0.101000000000
6.342385808000,0.106000000000
6.350073696000,0.106000000000
6.357761584000,0.111000000000
6.365449472000,0.118000000000
6.373137360000,0.118000000000
6.380825248000,0.118000000000
6.388513136000,0.103000000000
6.396201024000,0.071000000000
6.403888912000,0.044000000000
6.411576800000,0.009000000000
6.419264688000,-0.044000000000
6.426952576000,-0.076000000000
6.434640464000,-0.086000000000
6.442328352000,-0.108000000000
6.450016240000,-0.118000000000
6.457704128000,-0.108000000000
6.465392016000,-0.111000000000
6.473079904000,-0.116000000000
6.480767792000,-0.106000000000
6.488455680000,-0.098000000000
6.496143568000,-0.096000000000
6.503831456000,-0.098000000000
6.511519344000,-0.098000000000
6.519207232000,-0.094000000000
6.526895120000,-0.081000000000
6.534583008000,-0.081000000000
6.542270896000,-0.094000000000
6.549958784000,-0.091000000000
6.557646672000,-0.079000000000
6.565334560000,-0.079000000000
6.573022448000,-0.084000000000
6.580710336000,-0.076000000000
6.588398224000,-0.076000000000
6.596086112000,-0.086000000000
6.603774000000,-0.086000000000
6.611461888000,-0.084000000000
6.619149776000,-0.091000000000
6.626837664000,-0.089000000000
6.634525552000,-0.081000000000
6.642213440000,-0.084000000000
6.649901328000,-0.086000000000
6.657589216000,-0.081000000000
6.665277104000,-0.079000000000
6.672964992000,-0.074000000000
6.680652880000,-0.074000000000
6.688340768000,-0.081000000000
6.696028656000,-0.091000000000
6.703716544000,-0.086000000000
6.711404432000,-0.079000000000
6.719092320000,-0.071000000000
6.726780208000,-0.054000000000
6.734468096000,-0.034000000000
6.742155984000,-0.037000000000
6.749843872000,-0.042000000000
6.757531760000,-0.032000000000
6.765219648000,-0.039000000000
6.772907558000,-0.066000000000
6.780595306000,-0.076000000000
6.788283054000,-0.064000000000
6.795970802000,-0.059000000000
6.803658550000,-0.059000000000
6.811346298000,-0.056000000000
6.819034046000,-0.064000000000
6.826721794000,-0.071000000000
6.834409542000,-0.071000000000
6.842097290000,-0.002000000000
6.849785038000,0.282000000000
6.857472786000,0.633000000000
6.865160534000,0.549000000000
6.872848282000,-0.002000000000
6.880536030000,-0.390000000000
6.888223778000,-0.338000000000
6.895911526000,-0.207000000000
6.903599274000,-0.185000000000
6.911287022000,-0.126000000000
6.918974770000,-0.059000000000
6.926662518000,-0.064000000000
6.934350266000,-0.064000000000
6.942038014000,-0.037000000000
6.949725762000,-0.034000000000
6.957413510000,-0.037000000000
6.965101258000,-0.019000000000
6.972789006000,-0.007000000000
6.980476754000,-0.007000000000
6.988164502000,-0.009000000000
6.995852250000,-0.004000000000
7.003539998000,-0.004000000000
7.011227746000,-0.002000000000
7.018915494000,0.007000000000
7.026603242000,0.014000000000
7.034290990000,0.027000000000
7.041978738000,0.037000000000
7.049666486000,0.034000000000
7.057354234000,0.047000000000
7.065041982000,0.071000000000
7.072729730000,0.086000000000
7.080417478000,0.086000000000
7.088105226000,0.094000000000
7.095792974000,0.106000000000
7.103480722000,0.113000000000
7.111168470000,0.118000000000
7.118856218000,0.106000000000
7.126543966000,0.096000000000
7.134231714000,0.098000000000
7.141919462000,0.079000000000
7.149607210000,0.034000000000
7.157294958000,0.002000000000
7.164982706000,-0.019000000000
7.172670454000,-0.054000000000
7.180358202000,-0.094000000000
7.188045950000,-0.108000000000
7.195733698000,-0.113000000000
7.203421446000,-0.123000000000
7.211109194000,-0.121000000000
7.218796942000,-0.113000000000
7.226484690000,-0.116000000000
7.234172438000,-0.121000000000
7.241860186000,-0.111000000000
7.249547934000,-0.101000000000
7.257235682000,-0.098000000000
7.264923430000,-0.096000000000
7.272611178000,-0.094000000000
7.280298926000,-0.086000000000
7.287986674000,-0.084000000000
7.295674422000,-0.086000000000
7.303362170000,-0.089000000000
7.311049918000,-0.091000000000
7.318737666000,-0.096000000000
7.326425414000,-0.094000000000
7.334113234000,-0.084000000000
7.341800982000,-0.084000000000
7.349488730000,-0.094000000000
7.357176478000,-0.101000000000
7.364864226000,-0.094000000000
7.372551974000,-0.084000000000
7.380239722000,-0.086000000000
7.387927470000,-0.096000000000
7.395615218000,-0.091000000000
7.403302966000,-0.076000000000
7.410990714000,-0.086000000000
7.418678462000,-0.098000000000
7.426366210000,-0.094000000000
7.434053958000,-0.101000000000
7.441741706000,-0.094000000000
7.449429454000,-0.064000000000
7.457117202000,-0.054000000000
7.464804950000,-0.056000000000
7.472492698000,-0.044000000000
7.480180446000,-0.039000000000
7.487868194000,-0.059000000000
7.495555942000,-0.071000000000
7.503243690000,-0.071000000000
7.510931438000,-0.064000000000
7.518619186000,-0.069000000000
7.526306934000,-0.079000000000
7.533994682000,-0.079000000000
7.541682430000,-0.064000000000
7.549370178000,-0.069000000000
7.557057926000,-0.081000000000
7.564745674000,-0.019000000000
7.572433422000,0.244000000000
7.580121170000,0.601000000000
7.587808918000,0.551000000000
7.595496666000,0.002000000000
7.603184414000,-0.413000000000
7.610872162000,-0.366000000000
7.618559910000,-0.230000000000
7.626247658000,-0.212000000000
7.633935406000,-0.141000000000
7.641623154000,-0.044000000000
7.649310902000,-0.051000000000
7.656998650000,-0.079000000000
7.664686398000,-0.051000000000
7.672374146000,-0.024000000000
7.680061894000,-0.027000000000
7.687749642000,-0.024000000000
7.695437390000,-0.017000000000
7.703125138000,-0.014000000000
7.710812886000,-0.017000000000
7.718500634000,-0.014000000000
7.726188382000,-0.007000000000
7.733876130000,0.009000000000
7.741563878000,0.017000000000
7.749251626000,0.012000000000
7.756939374000,0.019000000000
7.764627122000,0.032000000000
7.772314870000,0.037000000000
7.780002618000,0.044000000000
7.787690366000,0.056000000000
7.795378114000,0.061000000000
7.803065862000,0.071000000000
7.810753610000,0.091000000000
7.818441358000,0.103000000000
7.826129106000,0.096000000000
7.833816854000,0.091000000000
7.841504602000,0.096000000000
7.849192350000,0.094000000000
7.856880098000,0.081000000000
7.864567846000,0.064000000000
7.872255594000,0.034000000000
7.879943342000,-0.002000000000
7.887631090000,-0.037000000000
7.895318906000,-0.071000000000
7.903006794000,-0.101000000000
7.910694682000,-0.118000000000
7.918382570000,-0.128000000000
7.926070458000,-0.133000000000
7.933758346000,-0.136000000000
7.941446234000,-0.128000000000
7.949134122000,-0.123000000000
7.956822010000,-0.123000000000
7.964509898000,-0.118000000000
7.972197786000,-0.108000000000
7.979885674000,-0.106000000000
7.987573562000,-0.113000000000
7.995261450000,-0.111000000000
8.002949338000,-0.098000000000
8.010637226000,-0.094000000000
8.018325114000,-0.096000000000
8.026013002000,-0.096000000000
8.033700890000,-0.096000000000
8.041388778000,-0.091000000000
8.049076666000,-0.094000000000
8.056764554000,-0.103000000000
8.064452442000,-0.108000000000
8.072140330000,-0.098000000000
8.079828218000,-0.094000000000
8.087516106000,-0.096000000000
8.095203994000,-0.096000000000
8.102891882000,-0.084000000000
8.110579770000,-0.084000000000
8.118267658000,-0.101000000000
8.125955546000,-0.116000000000
8.133643434000,-0.108000000000
8.141331322000,-0.096000000000
8.149019210000,-0.086000000000
8.156707098000,-0.064000000000
8.164394986000,-0.049000000000
8.172082874000,-0.054000000000
8.179770762000,-0.056000000000
8.187458650000,-0.064000000000
8.195146538000,-0.081000000000
8.202834426000,-0.084000000000
8.210522314000,-0.081000000000
8.218210202000,-0.081000000000
8.225898090000,-0.076000000000
8.233585978000,-0.074000000000
8.241273866000,-0.081000000000
8.248961754000,-0.089000000000
8.256649642000,-0.081000000000
8.264337530000,-0.037000000000
8.272025418000,0.155000000000
8.279713306000,0.502000000000
8.287401194000,0.593000000000
8.295089082000,0.138000000000
8.302776970000,-0.368000000000
8.310464858000,-0.430000000000
8.318152746000,-0.277000000000
8.325840634000,-0.225000000000
8.333528522000,-0.163000000000
8.341216410000,-0.064000000000
8.348904298000,-0.054000000000
8.356592186000,-0.074000000000
8.364280074000,-0.051000000000
8.371967962000,-0.032000000000
8.379655850000,-0.027000000000
8.387343738000,-0.017000000000
8.395031626000,-0.014000000000
8.402719514000,-0.024000000000
8.410407402000,-0.027000000000
8.418095290000,-0.012000000000
8.425783178000,-0.002000000000
8.433471066000,0.002000000000
8.441158954000,0.009000000000
8.448846842000,0.014000000000
8.456534756000,0.029000000000
8.464222365000,0.049000000000
8.471909974000,0.042000000000
8.479597583000,0.039000000000
8.487285192000,0.056000000000
8.494972801000,0.079000000000
8.502660410000,0.091000000000
8.510348019000,0.096000000000
8.518035628000,0.103000000000
8.525723237000,0.118000000000
8.533410846000,0.118000000000
8.541098455000,0.101000000000
8.548786064000,0.096000000000
8.556473673000,0.094000000000
8.564161282000,0.069000000000
8.571848891000,0.034000000000
8.579536500000,0.000000000000
8.587224109000,-0.039000000000
8.594911718000,-0.079000000000
8.602599327000,-0.098000000000
8.610286936000,-0.116000000000
8.617974545000,-0.143000000000
8.625662154000,-0.148000000000
8.633349763000,-0.141000000000
8.641037372000,-0.143000000000
8.648724981000,-0.145000000000
8.656412590000,-0.131000000000
8.664100199000,-0.121000000000
8.671787808000,-0.118000000000
8.679475417000,-0.111000000000
8.687163026000,-0.106000000000
8.694850635000,-0.111000000000
8.702538244000,-0.116000000000
8.710225853000,-0.108000000000
8.717913462000,-0.106000000000
8.725601071000,-0.106000000000
8.733288680000,-0.101000000000
8.740976289000,-0.111000000000
8.748663898000,-0.121000000000
8.756351507000,-0.108000000000
8.764039116000,-0.098000000000
8.771726725000,-0.103000000000
8.779414334000,-0.111000000000
8.787101943000,-0.111000000000
8.794789552000,-0.111000000000
8.802477161000,-0.111000000000
8.810164770000,-0.103000000000
8.817852379000,-0.111000000000
8.825539988000,-0.116000000000
8.833227597000,-0.091000000000
8.840915206000,-0.064000000000
8.848602815000,-0.071000000000
8.856290424000,-0.084000000000
8.863978033000,-0.079000000000
8.871665642000,-0.086000000000
8.879353251000,-0.094000000000
8.887040860000,-0.089000000000
8.894728469000,-0.091000000000
8.902416078000,-0.098000000000
8.910103687000,-0.106000000000
8.917791296000,-0.106000000000
8.925478905000,-0.096000000000
8.933166514000,-0.086000000000
8.940854123000,-0.064000000000
8.948541732000,0.101000000000
8.956229341000,0.487000000000
8.963916950000,0.667000000000
8.971604559000,0.207000000000
8.979292168000,-0.403000000000
8.986979777000,-0.502000000000
8.994667386000,-0.319000000000
9.002354995000,-0.274000000000
9.010042604000,-0.235000000000
9.017730258000,-0.098000000000
9.025417867000,-0.044000000000
9.033105476000,-0.079000000000
9.040793085000,-0.069000000000
9.048480694000,-0.037000000000
9.056168303000,-0.037000000000
9.063855912000,-0.042000000000
9.071543521000,-0.039000000000
9.079231130000,-0.034000000000
9.086918739000,-0.024000000000
9.094606348000,-0.009000000000
9.102293957000,-0.002000000000
9.109981566000,-0.002000000000
9.117669175000,0.002000000000
9.125356784000,0.014000000000
9.133044393000,0.017000000000
9.140732002000,0.019000000000
9.148419611000,0.042000000000
9.156107220000,0.061000000000
9.163794829000,0.064000000000
9.171482438000,0.069000000000
9.179170047000,0.089000000000
9.186857656000,0.103000000000
9.194545265000,0.113000000000
9.202232874000,0.116000000000
9.209920483000,0.118000000000
9.217608092000,0.116000000000
9.225295701000,0.113000000000
9.232983310000,0.098000000000
9.240670919000,0.079000000000
9.248358528000,0.056000000000
9.256046137000,0.002000000000
9.263733746000,-0.056000000000
9.271421355000,-0.076000000000
9.279108964000,-0.098000000000
9.286796573000,-0.143000000000
9.294484182000,-0.153000000000
9.302171791000,-0.145000000000
9.309859400000,-0.155000000000
9.317547009000,-0.150000000000
9.325234618000,-0.136000000000
9.332922227000,-0.141000000000
9.340609836000,-0.143000000000
9.348297445000,-0.128000000000
9.355985054000,-0.111000000000
9.363672663000,-0.103000000000
9.371360272000,-0.111000000000
9.379047881000,-0.108000000000
9.386735490000,-0.101000000000
9.394423099000,-0.103000000000
9.402110708000,-0.096000000000
9.409798317000,-0.091000000000
9.417485926000,-0.101000000000
9.425173535000,-0.108000000000
9.432861144000,-0.101000000000
9.440548753000,-0.098000000000
9.448236362000,-0.106000000000
9.455923971000,-0.111000000000
9.463611580000,-0.103000000000
9.471299189000,-0.098000000000
9.478986798000,-0.108000000000
9.486674407000,-0.111000000000
9.494362016000,-0.111000000000
9.502049625000,-0.108000000000
9.509737234000,-0.091000000000
9.517424843000,-0.071000000000
9.525112452000,-0.066000000000
9.532800061000,-0.064000000000
9.540487670000,-0.069000000000
9.548175279000,-0.086000000000
9.555862888000,-0.094000000000
9.563550497000,-0.094000000000
9.571238106000,-0.094000000000
9.578925760000,-0.086000000000
9.586613648000,-0.081000000000
9.594301536000,-0.086000000000
9.601989424000,-0.084000000000
9.609677312000,-0.091000000000
9.617365200000,-0.049000000000
9.625053088000,0.200000000000
9.632740976000,0.591000000000
9.640428864000,0.618000000000
9.648116752000,0.089000000000
9.655804640000,-0.413000000000
9.663492528000,-0.423000000000
9.671180416000,-0.249000000000
9.678868304000,-0.205000000000
9.686556192000,-0.153000000000
9.694244080000,-0.064000000000
9.701931968000,-0.066000000000
9.709619856000,-0.086000000000
9.717307744000,-0.056000000000
9.724995632000,-0.037000000000
9.732683520000,-0.037000000000
9.740371408000,-0.029000000000
9.748059296000,-0.027000000000
9.755747184000,-0.024000000000
9.763435072000,-0.012000000000
9.771122960000,-0.007000000000
9.778810848000,-0.012000000000
9.786498736000,-0.002000000000
9.794186624000,0.009000000000
9.801874512000,0.004000000000
9.809562400000,0.004000000000
9.817250288000,0.027000000000
9.824938176000,0.044000000000
9.832626064000,0.049000000000
9.840313952000,0.054000000000
9.848001840000,0.064000000000
9.855689728000,0.084000000000
9.863377616000,0.091000000000
9.871065504000,0.089000000000
9.878753392000,0.101000000000
9.886441280000,0.113000000000
9.894129168000,0.098000000000
9.901817056000,0.086000000000
9.909504944000,0.084000000000
9.917192832000,0.061000000000
9.924880720000,0.029000000000
9.932568608000,-0.004000000000
9.940256496000,-0.044000000000
9.947944384000,-0.081000000000
9.955632272000,-0.113000000000
9.963320160000,-0.131000000000
9.971008048000,-0.138000000000
9.978695936000,-0.136000000000
9.986383824000,-0.133000000000
9.994071712000,-0.128000000000
10.001759600000,-0.116000000000
10.009447488000,-0.108000000000
10.017135376000,-0.131000000000
10.024823264000,-0.136000000000
10.032511152000,-0.108000000000
10.040199040000,-0.094000000000
10.047886928000,-0.108000000000
10.055574816000,-0.108000000000
10.063262704000,-0.094000000000
10.070950592000,-0.096000000000
10.078638480000,-0.101000000000
10.086326368000,-0.096000000000
10.094014256000,-0.094000000000
10.101702144000,-0.098000000000
10.109390032000,-0.098000000000
10.117077920000,-0.094000000000
10.124765808000,-0.098000000000
10.132453696000,-0.098000000000
10.140141606000,-0.096000000000
10.147829354000,-0.098000000000
10.155517102000,-0.101000000000
10.163204850000,-0.098000000000
10.170892598000,-0.106000000000
10.178580346000,-0.111000000000
10.186268094000,-0.094000000000
10.193955842000,-0.064000000000
10.201643590000,-0.054000000000
10.209331338000,-0.054000000000
10.217019086000,-0.054000000000
10.224706834000,-0.054000000000
10.232394582000,-0.069000000000
10.240082330000,-0.094000000000
10.247770078000,-0.101000000000
10.255457826000,-0.086000000000
10.263145574000,-0.074000000000
10.270833322000,-0.081000000000
10.278521070000,-0.089000000000
10.286208818000,-0.079000000000
10.293896566000,-0.079000000000
10.301584314000,-0.089000000000
10.309272062000,-0.017000000000
10.316959810000,0.289000000000
10.324647558000,0.648000000000
10.332335306000,0.529000000000
10.340023054000,-0.051000000000
10.347710802000,-0.420000000000
10.355398550000,-0.356000000000
10.363086298000,-0.242000000000
10.370774046000,-0.210000000000
10.378461794000,-0.123000000000
10.386149542000,-0.059000000000
10.393837290000,-0.074000000000
10.401525038000,-0.069000000000
10.409212786000,-0.047000000000
10.416900534000,-0.044000000000
10.424588282000,-0.039000000000
10.432276030000,-0.032000000000
10.439963778000,-0.029000000000
10.447651526000,-0.019000000000
10.455339274000,-0.012000000000
10.463027022000,-0.012000000000
10.470714770000,-0.009000000000
10.478402518000,-0.004000000000
10.486090266000,0.002000000000
10.493778014000,0.012000000000
10.501465762000,0.022000000000
10.509153510000,0.027000000000
10.516841258000,0.032000000000
10.524529006000,0.044000000000
10.532216754000,0.066000000000
10.539904502000,0.081000000000
10.547592250000,0.084000000000
10.555279998000,0.096000000000
10.562967746000,0.106000000000
10.570655494000,0.103000000000
10.578343242000,0.103000000000
10.586030990000,0.101000000000
10.593718738000,0.094000000000
10.601406486000,0.084000000000
10.609094234000,0.061000000000
10.616781982000,0.017000000000
10.624469730000,-0.024000000000
10.632157478000,-0.051000000000
10.639845226000,-0.074000000000
10.647532974000,-0.108000000000
10.655220722000,-0.136000000000
10.662908470000,-0.136000000000
10.670596218000,-0.128000000000
10.678283966000,-0.136000000000
10.685971714000,-0.133000000000
10.693659462000,-0.121000000000
10.701347282000,-0.123000000000
10.709035030000,-0.123000000000
10.716722778000,-0.116000000000
10.724410526000,-0.116000000000
10.732098274000,-0.118000000000
10.739786022000,-0.108000000000
10.747473770000,-0.101000000000
10.755161518000,-0.103000000000
10.762849266000,-0.096000000000
10.770537014000,-0.091000000000
10.778224762000,-0.103000000000
10.785912510000,-0.106000000000
10.793600258000,-0.096000000000
10.801288006000,-0.098000000000
10.808975754000,-0.106000000000
10.816663502000,-0.096000000000
10.824351250000,-0.094000000000
10.832038998000,-0.111000000000
10.839726746000,-0.113000000000
10.847414494000,-0.098000000000
10.855102242000,-0.096000000000
10.862789990000,-0.094000000000
10.870477738000,-0.091000000000
10.878165486000,-0.103000000000
10.885853234000,-0.108000000000
10.893540982000,-0.096000000000
10.901228730000,-0.098000000000
10.908916478000,-0.098000000000
10.916604226000,-0.071000000000
10.924291974000,-0.047000000000
10.931979722000,-0.056000000000
10.939667470000,-0.061000000000
10.947355218000,-0.051000000000
10.955042966000,-0.069000000000
10.962730714000,-0.089000000000
10.970418462000,-0.081000000000
10.978106210000,-0.079000000000
10.985793958000,-0.079000000000
10.993481706000,-0.074000000000
11.001169454000,-0.076000000000
11.008857202000,-0.081000000000
11.016544950000,-0.081000000000
11.024232698000,-0.076000000000
11.031920446000,0.024000000000
11.039608194000,0.358000000000
11.047295942000,0.667000000000
11.054983690000,0.435000000000
11.062671438000,-0.178000000000
11.070359186000,-0.465000000000
11.078046934000,-0.336000000000
11.085734682000,-0.237000000000
11.093422430000,-0.217000000000
11.101110178000,-0.121000000000
11.108797926000,-0.054000000000
11.116485674000,-0.066000000000
11.124173422000,-0.059000000000
11.131861170000,-0.042000000000
11.139548918000,-0.039000000000
11.147236666000,-0.032000000000
11.154924414000,-0.022000000000
11.162612162000,-0.017000000000
11.170299910000,-0.007000000000
11.177987658000,-0.004000000000
11.185675406000,-0.002000000000
11.193363154000,0.009000000000
11.201050902000,0.017000000000
11.208738650000,0.009000000000
11.216426398000,0.012000000000
11.224114146000,0.029000000000
11.231801894000,0.049000000000
11.239489642000,0.054000000000
11.247177390000,0.059000000000
11.254865138000,0.076000000000
11.262552954000,0.098000000000
11.270240842000,0.111000000000
11.277928730000,0.116000000000
11.285616618000,0.126000000000
11.293304506000,0.128000000000
11.300992394000,0.128000000000
11.308680282000,0.121000000000
11.316368170000,0.113000000000
11.324056058000,0.103000000000
11.331743946000,0.071000000000
11.339431834000,0.019000000000
11.347119722000,-0.019000000000
11.354807610000,-0.047000000000
11.362495498000,-0.081000000000
11.370183386000,-0.113000000000
11.377871274000,-0.126000000000
11.385559162000,-0.141000000000
11.393247050000,-0.150000000000
11.400934938000,-0.143000000000
11.408622826000,-0.133000000000
11.416310714000,-0.136000000000
11.423998602000,-0.133000000000
11.431686490000,-0.123000000000
11.439374378000,-0.111000000000
11.447062266000,-0.098000000000
11.454750154000,-0.096000000000
11.462438042000,-0.098000000000
11.470125930000,-0.098000000000
11.477813818000,-0.101000000000
11.485501706000,-0.096000000000
11.493189594000,-0.089000000000
11.500877482000,-0.091000000000
11.508565370000,-0.091000000000
11.516253258000,-0.086000000000
11.523941146000,-0.086000000000
11.531629034000,-0.094000000000
11.539316922000,-0.094000000000
11.547004810000,-0.086000000000
11.554692698000,-0.086000000000
11.562380586000,-0.091000000000
11.570068474000,-0.094000000000
11.577756362000,-0.086000000000
11.585444250000,-0.094000000000
11.593132138000,-0.106000000000
11.600820026000,-0.096000000000
11.608507914000,-0.089000000000
11.616195802000,-0.094000000000
11.623883690000,-0.076000000000
11.631571578000,-0.054000000000
11.639259466000,-0.059000000000
11.646947354000,-0.051000000000
11.654635242000,-0.037000000000
11.662323130000,-0.061000000000
11.670011018000,-0.089000000000
11.677698906000,-0.079000000000
11.685386794000,-0.061000000000
11.693074682000,-0.069000000000
11.700762570000,-0.076000000000
11.708450458000,-0.069000000000
11.716138346000,-0.061000000000
11.723826234000,-0.066000000000
11.731514122000,-0.076000000000
11.739202010000,-0.014000000000
11.746889898000,0.272000000000
11.754577786000,0.648000000000
11.762265674000,0.571000000000
11.769953562000,-0.019000000000
11.777641450000,-0.447000000000
11.785329338000,-0.385000000000
11.793017226000,-0.237000000000
11.800705114000,-0.202000000000
11.808393002000,-0.126000000000
11.816080890000,-0.039000000000
11.823768804000,-0.047000000000
11.831456413000,-0.059000000000
11.839144022000,-0.032000000000
11.846831631000,-0.017000000000
11.854519240000,-0.024000000000
11.862206849000,-0.012000000000
11.869894458000,0.000000000000
11.877582067000,-0.004000000000
11.885269676000,0.000000000000
11.892957285000,0.014000000000
11.900644894000,0.017000000000
11.908332503000,0.017000000000
11.916020112000,0.022000000000
11.923707721000,0.029000000000
11.931395330000,0.044000000000
11.939082939000,0.056000000000
11.946770548000,0.064000000000
11.954458157000,0.069000000000
11.962145766000,0.079000000000
11.969833375000,0.096000000000
11.977520984000,0.113000000000
11.985208593000,0.121000000000
11.992896202000,0.126000000000
12.000583811000,0.141000000000
12.008271420000,0.141000000000
12.015959029000,0.121000000000
12.023646638000,0.113000000000
12.031334247000,0.108000000000
12.039021856000,0.081000000000
12.046709465000,0.042000000000
12.054397074000,0.000000000000
12.062084683000,-0.037000000000
12.069772292000,-0.069000000000
12.077459901000,-0.091000000000
12.085147510000,-0.113000000000
12.092835119000,-0.131000000000
12.100522728000,-0.131000000000
12.108210337000,-0.126000000000
12.115897946000,-0.128000000000
12.123585555000,-0.123000000000
12.131273164000,-0.116000000000
12.138960773000,-0.113000000000
12.146648382000,-0.111000000000
12.154335991000,-0.101000000000
12.162023600000,-0.096000000000
12.169711209000,-0.101000000000
12.177398818000,-0.091000000000
12.185086427000,-0.079000000000
12.192774036000,-0.084000000000
12.200461645000,-0.089000000000
12.208149254000,-0.076000000000
12.215836863000,-0.076000000000
12.223524472000,-0.091000000000
12.231212081000,-0.094000000000
12.238899690000,-0.084000000000
12.246587299000,-0.086000000000
12.254274908000,-0.089000000000
12.261962517000,-0.081000000000
12.269650126000,-0.081000000000
12.277337735000,-0.089000000000
12.285025344000,-0.084000000000
12.292712953000,-0.069000000000
12.300400562000,-0.071000000000
12.308088171000,-0.089000000000
12.315775780000,-0.094000000000
12.323463389000,-0.079000000000
12.331150998000,-0.074000000000
12.338838607000,-0.081000000000
12.346526216000,-0.071000000000
12.354213825000,-0.059000000000
12.361901434000,-0.059000000000
12.369589043000,-0.071000000000
12.377276652000,-0.074000000000
12.384964302000,-0.074000000000
12.392652260000,-0.074000000000
12.400340218000,-0.076000000000
12.408028176000,-0.071000000000
12.415716134000,-0.059000000000
12.423404092000,-0.042000000000
12.431092050000,-0.037000000000
12.438780008000,-0.037000000000
12.446467966000,-0.032000000000
12.454155924000,-0.032000000000
12.461843882000,-0.054000000000
12.469531840000,-0.069000000000
12.477219798000,-0.059000000000
12.484907756000,-0.059000000000
12.492595714000,-0.066000000000
12.500283672000,-0.061000000000
12.507971630000,-0.051000000000
12.515659588000,-0.044000000000
12.523347546000,-0.056000000000
12.531035504000,-0.071000000000
12.538723462000,0.064000000000
12.546411420000,0.432000000000
12.554099378000,0.700000000000
12.561787336000,0.432000000000
12.569475294000,-0.143000000000
12.577163252000,-0.418000000000
12.584851210000,-0.301000000000
12.592539168000,-0.195000000000
12.600227126000,-0.160000000000
12.607915084000,-0.076000000000
12.615603042000,-0.042000000000
12.623291000000,-0.069000000000
12.630978958000,-0.054000000000
12.638666916000,-0.027000000000
12.646354874000,-0.027000000000
12.654042832000,-0.019000000000
12.661730790000,-0.009000000000
12.669418748000,-0.004000000000
12.677106706000,-0.002000000000
12.684794664000,-0.004000000000
12.692482622000,0.002000000000
12.700170580000,0.017000000000
12.707858538000,0.014000000000
12.715546496000,0.009000000000
12.723234454000,0.024000000000
12.730922412000,0.042000000000
12.738610370000,0.049000000000
12.746298328000,0.054000000000
12.753986286000,0.064000000000
12.761674244000,0.079000000000
12.769362202000,0.086000000000
12.777050160000,0.094000000000
12.784738118000,0.103000000000
12.792426076000,0.118000000000
12.800114034000,0.121000000000
12.807801992000,0.118000000000
12.815489950000,0.116000000000
12.823177908000,0.106000000000
12.830865866000,0.096000000000
12.838553824000,0.089000000000
12.846241782000,0.061000000000
12.853929740000,0.012000000000
12.861617698000,-0.029000000000
12.869305656000,-0.047000000000
12.876993614000,-0.066000000000
12.884681572000,-0.103000000000
12.892369530000,-0.126000000000
12.900057488000,-0.116000000000
12.907745446000,-0.111000000000
12.915433404000,-0.108000000000
12.923121362000,-0.108000000000
12.930809320000,-0.108000000000
12.938497278000,-0.101000000000
12.946185239000,-0.094000000000
12.953872918000,-0.101000000000
12.961560597000,-0.103000000000
12.969248276000,-0.091000000000
12.976935955000,-0.079000000000
12.984623634000,-0.079000000000
12.992311313000,-0.084000000000
12.999998992000,-0.079000000000
13.007686671000,-0.069000000000
13.015374350000,-0.081000000000
13.023062029000,-0.089000000000
13.030749708000,-0.081000000000
13.038437387000,-0.081000000000
13.046125066000,-0.084000000000
13.053812745000,-0.084000000000
13.061500424000,-0.084000000000
13.069188103000,-0.081000000000
13.076875782000,-0.074000000000
13.084563461000,-0.074000000000
13.092251140000,-0.081000000000
13.099938819000,-0.079000000000
13.107626498000,-0.074000000000
13.115314177000,-0.079000000000
13.123001856000,-0.079000000000
13.130689535000,-0.074000000000
13.138377214000,-0.069000000000
13.146064893000,-0.066000000000
13.153752572000,-0.066000000000
13.161440251000,-0.074000000000
13.169127930000,-0.071000000000
13.176815609000,-0.064000000000
13.184503288000,-0.059000000000
13.192190967000,-0.056000000000
13.199878646000,-0.061000000000
13.207566325000,-0.071000000000
13.215254004000,-0.069000000000
13.222941683000,-0.061000000000
13.230629362000,-0.064000000000
13.238317041000,-0.066000000000
13.246004720000,-0.047000000000
13.253692399000,-0.027000000000
13.261380078000,-0.027000000000
13.269067757000,-0.027000000000
13.276755436000,-0.032000000000
13.284443115000,-0.054000000000
13.292130794000,-0.066000000000
13.299818473000,-0.054000000000
13.307506152000,-0.051000000000
13.315193831000,-0.061000000000
13.322881510000,-0.061000000000
13.330569189000,-0.049000000000
13.338256868000,-0.054000000000
13.345944547000,-0.066000000000
13.353632226000,-0.061000000000
13.361319905000,0.037000000000
13.369007584000,0.346000000000
13.376695263000,0.655000000000
13.384382942000,0.479000000000
13.392070621000,-0.089000000000
13.399758300000,-0.408000000000
13.407445979000,-0.319000000000
13.415133658000,-0.205000000000
13.422821337000,-0.175000000000
13.430509016000,-0.091000000000
13.438196695000,-0.039000000000
13.445884374000,-0.061000000000
13.453572053000,-0.066000000000
13.461259732000,-0.034000000000
13.468947411000,-0.019000000000
13.476635090000,-0.022000000000
13.484322769000,-0.019000000000
13.492010448000,-0.012000000000
13.499698127000,-0.012000000000
13.507385828000,-0.012000000000
13.515073646000,-0.002000000000
13.522761464000,0.002000000000
13.530449282000,0.004000000000
13.538137100000,0.012000000000
13.545824918000,0.019000000000
13.553512736000,0.027000000000
13.561200554000,0.037000000000
13.568888372000,0.047000000000
13.576576190000,0.059000000000
13.584264008000,0.066000000000
13.591951826000,0.071000000000
13.599639644000,0.086000000000
13.607327462000,0.098000000000
13.615015280000,0.098000000000
13.622703098000,0.098000000000
13.630390916000,0.101000000000
13.638078734000,0.106000000000
13.645766552000,0.103000000000
13.653454370000,0.081000000000
13.661142188000,0.059000000000
13.668830006000,0.044000000000
13.676517824000,0.014000000000
13.684205642000,-0.022000000000
13.691893460000,-0.054000000000
13.699581278000,-0.084000000000
13.707269096000,-0.108000000000
13.714956914000,-0.123000000000
13.722644732000,-0.126000000000
13.730332550000,-0.131000000000
13.738020368000,-0.131000000000
13.745708186000,-0.116000000000
13.753396004000,-0.111000000000
13.761083822000,-0.118000000000
13.768771640000,-0.118000000000
13.776459458000,-0.106000000000
13.784147276000,-0.101000000000
13.791835094000,-0.101000000000
13.799522912000,-0.094000000000
13.807210730000,-0.084000000000
13.814898548000,-0.081000000000
13.822586366000,-0.086000000000
13.830274184000,-0.089000000000
13.837962002000,-0.081000000000
13.845649820000,-0.084000000000
13.853337638000,-0.094000000000
13.861025456000,-0.091000000000
13.868713274000,-0.084000000000
13.876401092000,-0.086000000000
13.884088910000,-0.094000000000
13.891776728000,-0.096000000000
13.899464546000,-0.089000000000
13.907152364000,-0.086000000000
13.914840182000,-0.086000000000
13.922528000000,-0.079000000000
13.930215818000,-0.084000000000
13.937903636000,-0.091000000000
13.945591454000,-0.076000000000
13.953279272000,-0.069000000000
13.960967090000,-0.084000000000
13.968654908000,-0.091000000000
13.976342726000,-0.079000000000
13.984030544000,-0.069000000000
13.991718362000,-0.061000000000
13.999406180000,-0.069000000000
14.007093998000,-0.081000000000
14.014781816000,-0.076000000000
14.022469634000,-0.069000000000
14.030157452000,-0.071000000000
14.037845270000,-0.074000000000
14.045533088000,-0.079000000000
14.053220906000,-0.079000000000
14.060908724000,-0.064000000000
14.068596587000,-0.051000000000
14.076284405000,-0.047000000000
14.083972223000,-0.039000000000
14.091660041000,-0.029000000000
14.099347859000,-0.034000000000
14.107035677000,-0.051000000000
14.114723495000,-0.061000000000
14.122411313000,-0.059000000000
14.130099131000,-0.061000000000
14.137786949000,-0.071000000000
14.145474767000,-0.071000000000
14.153162585000,-0.061000000000
14.160850403000,-0.059000000000
14.168538221000,-0.069000000000
14.176226039000,-0.064000000000
14.183913857000,0.037000000000
14.191601675000,0.348000000000
14.199289493000,0.658000000000
14.206977311000,0.465000000000
14.214665129000,-0.128000000000
14.222352947000,-0.455000000000
14.230040765000,-0.353000000000
14.237728583000,-0.232000000000
14.245416401000,-0.205000000000
14.253104219000,-0.121000000000
14.260792037000,-0.051000000000
14.268479855000,-0.056000000000
14.276167673000,-0.051000000000
14.283855491000,-0.029000000000
14.291543309000,-0.027000000000
14.299231127000,-0.029000000000
14.306918945000,-0.032000000000
14.314606763000,-0.024000000000
14.322294581000,-0.007000000000
14.329982399000,-0.004000000000
14.337670217000,-0.009000000000
14.345358035000,-0.004000000000
14.353045853000,0.000000000000
14.360733671000,0.007000000000
14.368421489000,0.019000000000
14.376109307000,0.024000000000
14.383797125000,0.022000000000
14.391484943000,0.032000000000
14.399172761000,0.051000000000
14.406860579000,0.066000000000
14.414548397000,0.079000000000
14.422236215000,0.098000000000
14.429924033000,0.116000000000
14.437611851000,0.118000000000
14.445299669000,0.116000000000
14.452987487000,0.113000000000
14.460675305000,0.118000000000
14.468363123000,0.121000000000
14.476050941000,0.101000000000
14.483738759000,0.071000000000
14.491426577000,0.047000000000
14.499114395000,0.000000000000
14.506802213000,-0.049000000000
14.514490031000,-0.076000000000
14.522177849000,-0.098000000000
14.529865667000,-0.121000000000
14.537553485000,-0.141000000000
14.545241303000,-0.145000000000
14.552929121000,-0.145000000000
14.560616939000,-0.143000000000
14.568304757000,-0.141000000000
14.575992575000,-0.131000000000
14.583680393000,-0.128000000000
14.591368211000,-0.131000000000
14.599056029000,-0.123000000000
14.606743847000,-0.113000000000
14.614431665000,-0.103000000000
14.622119483000,-0.096000000000
14.629807350000,-0.094000000000
14.637494959000,-0.094000000000
14.645182568000,-0.091000000000
14.652870177000,-0.084000000000
14.660557786000,-0.089000000000
14.668245395000,-0.091000000000
14.675933004000,-0.091000000000
14.683620613000,-0.094000000000
14.691308222000,-0.094000000000
14.698995831000,-0.096000000000
14.706683440000,-0.094000000000
14.714371049000,-0.089000000000
14.722058658000,-0.089000000000
14.729746267000,-0.096000000000
14.737433876000,-0.094000000000
14.745121485000,-0.081000000000
14.752809094000,-0.081000000000
14.760496703000,-0.086000000000
14.768184312000,-0.081000000000
14.775871921000,-0.086000000000
14.783559530000,-0.089000000000
14.791247139000,-0.081000000000
14.798934748000,-0.081000000000
14.806622357000,-0.084000000000
14.814309966000,-0.086000000000
14.821997575000,-0.081000000000
14.829685184000,-0.056000000000
14.837372793000,-0.039000000000
14.845060402000,-0.044000000000
14.852748011000,-0.037000000000
14.860435620000,-0.029000000000
14.868123229000,-0.054000000000
14.875810838000,-0.079000000000
14.883498447000,-0.074000000000
14.891186056000,-0.069000000000
14.898873665000,-0.061000000000
14.906561274000,-0.051000000000
14.914248883000,-0.066000000000
14.921936492000,-0.076000000000
14.929624101000,-0.059000000000
14.937311710000,-0.037000000000
14.944999319000,0.101000000000
14.952686928000,0.465000000000
14.960374537000,0.700000000000
14.968062146000,0.331000000000
14.975749755000,-0.291000000000
14.983437364000,-0.470000000000
14.991124973000,-0.291000000000
14.998812582000,-0.227000000000
15.006500191000,-0.205000000000
15.014187800000,-0.084000000000
15.021875409000,-0.037000000000
15.029563018000,-0.054000000000
15.037250627000,-0.027000000000
15.044938236000,-0.009000000000
15.052625845000,-0.024000000000
15.060313454000,-0.009000000000
15.068001063000,0.009000000000
15.075688672000,0.002000000000
15.083376281000,0.007000000000
15.091063890000,0.032000000000
15.098751499000,0.032000000000
15.106439108000,0.022000000000
15.114126717000,0.032000000000
15.121814326000,0.044000000000
15.129501935000,0.049000000000
15.137189544000,0.064000000000
15.144877153000,0.079000000000
15.152564762000,0.081000000000
15.160252371000,0.086000000000
15.167939980000,0.108000000000
15.175627589000,0.128000000000
15.183315198000,0.136000000000
15.191002852000,0.153000000000
15.198690461000,0.170000000000
15.206378070000,0.170000000000
15.214065679000,0.155000000000
15.221753288000,0.143000000000
15.229440897000,0.145000000000
15.237128506000,0.141000000000
15.244816115000,0.106000000000
15.252503724000,0.056000000000
15.260191333000,0.012000000000
15.267878942000,-0.024000000000
15.275566551000,-0.054000000000
15.283254160000,-0.081000000000
15.290941769000,-0.108000000000
15.298629378000,-0.123000000000
15.306316987000,-0.123000000000
15.314004596000,-0.118000000000
15.321692205000,-0.121000000000
15.329379814000,-0.116000000000
15.337067423000,-0.111000000000
15.344755032000,-0.106000000000
15.352442641000,-0.101000000000
15.360130250000,-0.086000000000
15.367817859000,-0.076000000000
15.375505468000,-0.074000000000
15.383193077000,-0.069000000000
15.390880686000,-0.066000000000
15.398568295000,-0.066000000000
15.406255904000,-0.056000000000
15.413943513000,-0.054000000000
15.421631122000,-0.066000000000
15.429318731000,-0.066000000000
15.437006340000,-0.059000000000
15.444693949000,-0.064000000000
15.452381558000,-0.071000000000
15.460069167000,-0.064000000000
15.467756776000,-0.056000000000
15.475444385000,-0.071000000000
15.483131994000,-0.076000000000
15.490819603000,-0.066000000000
15.498507212000,-0.061000000000
15.506194821000,-0.061000000000
15.513882430000,-0.064000000000
15.521570039000,-0.064000000000
15.529257648000,-0.064000000000
15.536945257000,-0.051000000000
15.544632866000,-0.054000000000
15.552320475000,-0.066000000000
15.560008084000,-0.059000000000
15.567695693000,-0.049000000000
15.575383302000,-0.056000000000
15.583070911000,-0.061000000000
15.590758520000,-0.059000000000
15.598446129000,-0.064000000000
15.606133738000,-0.061000000000
15.613821347000,-0.051000000000
15.621508956000,-0.039000000000
15.629196565000,-0.029000000000
15.636884174000,-0.024000000000
15.644571783000,-0.019000000000
15.652259392000,-0.019000000000
15.659947001000,-0.037000000000
15.667634610000,-0.051000000000
15.675322219000,-0.051000000000
15.683009828000,-0.049000000000
15.690697437000,-0.044000000000
15.698385046000,-0.044000000000
15.706072655000,-0.054000000000
15.713760264000,-0.054000000000
15.721447873000,-0.049000000000
15.729135482000,-0.034000000000
15.736823091000,0.128000000000
15.744510700000,0.509000000000
15.752198350000,0.722000000000
15.759886308000,0.376000000000
15.767574266000,-0.207000000000
15.775262224000,-0.418000000000
15.782950182000,-0.277000000000
15.790638140000,-0.190000000000
15.798326098000,-0.160000000000
15.806014056000,-0.074000000000
15.813702014000,-0.047000000000
15.821389972000,-0.071000000000
15.829077930000,-0.054000000000
15.836765888000,-0.029000000000
15.844453846000,-0.024000000000
15.852141804000,-0.019000000000
15.859829762000,-0.017000000000
15.867517720000,-0.019000000000
15.875205678000,-0.002000000000
15.882893636000,0.002000000000
15.890581594000,-0.012000000000
15.898269552000,-0.002000000000
15.905957510000,0.014000000000
15.913645468000,0.017000000000
15.921333426000,0.024000000000
15.929021384000,0.034000000000
15.936709342000,0.034000000000
15.944397300000,0.039000000000
15.952085258000,0.054000000000
15.959773216000,0.069000000000
15.967461174000,0.086000000000
15.975149132000,0.106000000000
15.982837090000,0.121000000000
15.990525048000,0.126000000000
15.998213006000,0.121000000000
16.005900964000,0.116000000000
16.013588922000,0.113000000000
16.021276880000,0.111000000000
16.028964838000,0.101000000000
16.036652796000,0.084000000000
16.044340754000,0.051000000000
16.052028712000,0.004000000000
16.059716670000,-0.044000000000
16.067404628000,-0.071000000000
16.075092586000,-0.089000000000
16.082780544000,-0.106000000000
16.090468502000,-0.118000000000
16.098156460000,-0.131000000000
16.105844418000,-0.133000000000
16.113532376000,-0.126000000000
16.121220334000,-0.131000000000
16.128908292000,-0.133000000000
16.136596250000,-0.116000000000
16.144284208000,-0.108000000000
16.151972166000,-0.108000000000
16.159660124000,-0.101000000000
16.167348082000,-0.089000000000
16.175036040000,-0.089000000000
16.182723998000,-0.098000000000
16.190411956000,-0.096000000000
16.198099914000,-0.086000000000
16.205787872000,-0.086000000000
16.213475830000,-0.091000000000
16.221163788000,-0.089000000000
16.228851746000,-0.084000000000
16.236539704000,-0.086000000000
16.244227662000,-0.094000000000
16.251915620000,-0.096000000000
16.259603578000,-0.091000000000
16.267291536000,-0.084000000000
16.274979494000,-0.089000000000
16.282667452000,-0.094000000000
16.290355410000,-0.086000000000
16.298043368000,-0.081000000000
16.305731326000,-0.089000000000
16.313419287000,-0.089000000000
16.321106966000,-0.074000000000
16.328794645000,-0.071000000000
16.336482324000,-0.084000000000
16.344170003000,-0.089000000000
16.351857682000,-0.086000000000
16.359545361000,-0.079000000000
16.367233040000,-0.069000000000
16.374920719000,-0.064000000000
16.382608398000,-0.071000000000
16.390296077000,-0.081000000000
16.397983756000,-0.081000000000
16.405671435000,-0.076000000000
16.413359114000,-0.071000000000
16.421046793000,-0.054000000000
16.428734472000,-0.039000000000
16.436422151000,-0.049000000000
16.444109830000,-0.056000000000
16.451797509000,-0.037000000000
16.459485188000,-0.032000000000
16.467172867000,-0.064000000000
16.474860546000,-0.081000000000
16.482548225000,-0.069000000000
16.490235904000,-0.066000000000
16.497923583000,-0.069000000000
16.505611262000,-0.071000000000
16.513298941000,-0.069000000000
16.520986620000,-0.064000000000
16.528674299000,-0.069000000000
16.536361978000,-0.024000000000
16.544049657000,0.215000000000
16.551737336000,0.581000000000
16.559425015000,0.623000000000
16.567112694000,0.145000000000
16.574800373000,-0.343000000000
16.582488052000,-0.405000000000
16.590175731000,-0.254000000000
16.597863410000,-0.192000000000
16.605551089000,-0.141000000000
16.613238768000,-0.066000000000
16.620926447000,-0.054000000000
16.628614126000,-0.059000000000
16.636301805000,-0.047000000000
16.643989484000,-0.037000000000
16.651677163000,-0.027000000000
16.659364842000,-0.022000000000
16.667052521000,-0.022000000000
16.674740200000,-0.019000000000
16.682427879000,-0.009000000000
16.690115558000,-0.004000000000
16.697803237000,-0.004000000000
16.705490916000,0.000000000000
16.713178595000,0.009000000000
16.720866274000,0.009000000000
16.728553953000,0.017000000000
16.736241632000,0.034000000000
16.743929311000,0.042000000000
16.751616990000,0.044000000000
16.759304669000,0.051000000000
16.766992348000,0.069000000000
16.774680027000,0.086000000000
16.782367706000,0.091000000000
16.790055385000,0.101000000000
16.797743064000,0.111000000000
16.805430743000,0.116000000000
16.813118422000,0.121000000000
16.820806101000,0.118000000000
16.828493780000,0.106000000000
16.836181459000,0.091000000000
16.843869138000,0.069000000000
16.851556817000,0.034000000000
16.859244496000,-0.014000000000
16.866932175000,-0.054000000000
16.874619876000,-0.081000000000
16.882307694000,-0.106000000000
16.889995512000,-0.116000000000
16.897683330000,-0.118000000000
16.905371148000,-0.128000000000
16.913058966000,-0.131000000000
16.920746784000,-0.126000000000
16.928434602000,-0.123000000000
16.936122420000,-0.121000000000
16.943810238000,-0.113000000000
16.951498056000,-0.108000000000
16.959185874000,-0.108000000000
16.966873692000,-0.103000000000
16.974561510000,-0.094000000000
16.982249328000,-0.086000000000
16.989937146000,-0.086000000000
16.997624964000,-0.086000000000
17.005312782000,-0.086000000000
17.013000600000,-0.089000000000
17.020688418000,-0.086000000000
17.028376236000,-0.079000000000
17.036064054000,-0.074000000000
17.043751872000,-0.079000000000
17.051439690000,-0.081000000000
17.059127508000,-0.079000000000
17.066815326000,-0.079000000000
17.074503144000,-0.086000000000
17.082190962000,-0.094000000000
17.089878780000,-0.086000000000
17.097566598000,-0.076000000000
17.105254416000,-0.081000000000
17.112942234000,-0.079000000000
17.120630052000,-0.069000000000
17.128317870000,-0.076000000000
17.136005688000,-0.084000000000
17.143693506000,-0.076000000000
17.151381324000,-0.071000000000
17.159069142000,-0.074000000000
17.166756960000,-0.071000000000
17.174444778000,-0.064000000000
17.182132596000,-0.061000000000
17.189820414000,-0.061000000000
17.197508232000,-0.064000000000
17.205196050000,-0.064000000000
17.212883868000,-0.061000000000
17.220571686000,-0.061000000000
17.228259504000,-0.066000000000
17.235947322000,-0.069000000000
17.243635140000,-0.069000000000
17.251322958000,-0.066000000000
17.259010776000,-0.059000000000
17.266698594000,-0.042000000000
17.274386412000,-0.019000000000
17.282074230000,-0.024000000000
17.289762048000,-0.039000000000
17.297449866000,-0.034000000000
17.305137684000,-0.032000000000
17.312825502000,-0.051000000000
17.320513320000,-0.066000000000
17.328201138000,-0.064000000000
17.335888956000,-0.054000000000
17.343576774000,-0.051000000000
17.351264592000,-0.056000000000
17.358952410000,-0.059000000000
17.366640228000,-0.054000000000
17.374328046000,-0.049000000000
17.382015864000,0.024000000000
17.389703682000,0.304000000000
17.397391500000,0.633000000000
17.405079318000,0.529000000000
17.412767136000,-0.022000000000
17.420454954000,-0.400000000000
17.428142772000,-0.343000000000
17.435830635000,-0.217000000000
17.443518035000,-0.190000000000
17.451205435000,-0.118000000000
17.458892835000,-0.042000000000
17.466580235000,-0.047000000000
17.474267635000,-0.054000000000
17.481955035000,-0.039000000000
17.489642435000,-0.029000000000
17.497329835000,-0.017000000000
17.505017235000,-0.014000000000
17.512704635000,-0.034000000000
17.520392035000,-0.029000000000
17.528079435000,-0.007000000000
17.535766835000,-0.002000000000
17.543454235000,-0.004000000000
17.551141635000,0.009000000000
17.558829035000,0.014000000000
17.566516435000,0.009000000000
17.574203835000,0.024000000000
17.581891235000,0.042000000000
17.589578635000,0.039000000000
17.597266035000,0.042000000000
17.604953435000,0.059000000000
17.612640835000,0.071000000000
17.620328235000,0.084000000000
17.628015635000,0.096000000000
17.635703035000,0.106000000000
17.643390435000,0.108000000000
17.651077835000,0.111000000000
17.658765235000,0.118000000000
17.666452635000,0.118000000000
17.674140035000,0.106000000000
17.681827435000,0.084000000000
17.689514835000,0.054000000000
17.697202235000,0.022000000000
17.704889635000,-0.012000000000
17.712577035000,-0.047000000000
17.720264435000,-0.076000000000
17.727951835000,-0.101000000000
17.735639235000,-0.121000000000
17.743326635000,-0.133000000000
17.751014035000,-0.138000000000
17.758701435000,-0.131000000000
17.766388835000,-0.123000000000
17.774076235000,-0.121000000000
17.781763635000,-0.121000000000
17.789451035000,-0.126000000000
17.797138435000,-0.123000000000
17.804825835000,-0.106000000000
17.812513235000,-0.098000000000
17.820200635000,-0.101000000000
17.827888035000,-0.103000000000
17.835575435000,-0.098000000000
17.843262835000,-0.091000000000
17.850950235000,-0.089000000000
17.858637635000,-0.089000000000
17.866325035000,-0.089000000000
17.874012435000,-0.094000000000
17.881699835000,-0.098000000000
17.889387235000,-0.106000000000
17.897074635000,-0.106000000000
17.904762035000,-0.096000000000
17.912449435000,-0.091000000000
17.920136835000,-0.086000000000
17.927824235000,-0.091000000000
17.935511635000,-0.101000000000
17.943199035000,-0.098000000000
17.950886435000,-0.084000000000
17.958573835000,-0.079000000000
17.966261235000,-0.091000000000
17.973948635000,-0.091000000000
17.981636035000,-0.084000000000
17.989323435000,-0.086000000000
17.997010880000,-0.086000000000
18.004698907000,-0.071000000000
18.012386934000,-0.071000000000
18.020074961000,-0.086000000000
18.027762988000,-0.086000000000
18.035451015000,-0.084000000000
18.043139042000,-0.084000000000
18.050827069000,-0.069000000000
18.058515096000,-0.051000000000
18.066203123000,-0.047000000000
18.073891150000,-0.047000000000
18.081579177000,-0.039000000000
18.089267204000,-0.042000000000
18.096955231000,-0.059000000000
18.104643258000,-0.066000000000
18.112331285000,-0.074000000000
18.120019312000,-0.079000000000
18.127707339000,-0.074000000000
18.135395366000,-0.076000000000
18.143083393000,-0.084000000000
18.150771420000,-0.069000000000
18.158459447000,-0.059000000000
18.166147474000,-0.032000000000
18.173835501000,0.160000000000
18.181523528000,0.539000000000
18.189211555000,0.658000000000
18.196899582000,0.178000000000
18.204587609000,-0.383000000000
18.212275636000,-0.460000000000
18.219963663000,-0.296000000000
18.227651690000,-0.257000000000
18.235339717000,-0.210000000000
18.243027744000,-0.086000000000
18.250715771000,-0.047000000000
18.258403798000,-0.064000000000
18.266091825000,-0.044000000000
18.273779852000,-0.027000000000
18.281467879000,-0.032000000000
18.289155906000,-0.024000000000
18.296843933000,-0.009000000000
18.304531960000,-0.014000000000
18.312219987000,-0.012000000000
18.319908014000,0.004000000000
18.327596041000,0.009000000000
18.335284068000,0.007000000000
18.342972095000,0.017000000000
18.350660122000,0.027000000000
18.358348149000,0.034000000000
18.366036176000,0.042000000000
18.373724203000,0.044000000000
18.381412230000,0.059000000000
18.389100257000,0.079000000000
18.396788284000,0.086000000000
18.404476311000,0.101000000000
18.412164338000,0.123000000000
18.419852365000,0.131000000000
18.427540392000,0.138000000000
18.435228419000,0.145000000000
18.442916446000,0.143000000000
18.450604473000,0.141000000000
18.458292500000,0.138000000000
18.465980527000,0.116000000000
18.473668554000,0.079000000000
18.481356581000,0.042000000000
18.489044608000,0.000000000000
18.496732635000,-0.049000000000
18.504420662000,-0.084000000000
18.512108689000,-0.103000000000
18.519796716000,-0.121000000000
18.527484743000,-0.131000000000
18.535172770000,-0.143000000000
18.542860797000,-0.153000000000
18.550548824000,-0.141000000000
18.558236900000,-0.128000000000
18.565924509000,-0.126000000000
18.573612118000,-0.121000000000
18.581299727000,-0.111000000000
18.588987336000,-0.098000000000
18.596674945000,-0.094000000000
18.604362554000,-0.089000000000
18.612050163000,-0.084000000000
18.619737772000,-0.086000000000
18.627425381000,-0.084000000000
18.635112990000,-0.079000000000
18.642800599000,-0.081000000000
18.650488208000,-0.084000000000
18.658175817000,-0.074000000000
18.665863426000,-0.064000000000
18.673551035000,-0.071000000000
18.681238644000,-0.081000000000
18.688926253000,-0.086000000000
18.696613862000,-0.084000000000
18.704301471000,-0.081000000000
18.711989080000,-0.079000000000
18.719676689000,-0.081000000000
18.727364298000,-0.079000000000
18.735051907000,-0.071000000000
18.742739516000,-0.074000000000
18.750427125000,-0.076000000000
18.758114734000,-0.071000000000
18.765802343000,-0.074000000000
18.773489952000,-0.074000000000
18.781177561000,-0.064000000000
18.788865170000,-0.061000000000
18.796552779000,-0.064000000000
18.804240388000,-0.061000000000
18.811927997000,-0.064000000000
18.819615606000,-0.064000000000
18.827303215000,-0.066000000000
18.834990824000,-0.069000000000
18.842678433000,-0.069000000000
18.850366042000,-0.064000000000
18.858053651000,-0.051000000000
18.865741260000,-0.034000000000
18.873428869000,-0.034000000000
18.881116478000,-0.042000000000
18.888804087000,-0.029000000000
18.896491696000,-0.017000000000
18.904179305000,-0.037000000000
18.911866914000,-0.054000000000
18.919554523000,-0.047000000000
18.927242132000,-0.047000000000
18.934929741000,-0.059000000000
18.942617350000,-0.054000000000
18.950304959000,-0.047000000000
18.957992568000,-0.051000000000
18.965680177000,-0.051000000000
18.973367786000,-0.049000000000
18.981055395000,0.076000000000
18.988743004000,0.447000000000
18.996430613000,0.732000000000
19.004118222000,0.455000000000
19.011805831000,-0.148000000000
19.019493440000,-0.427000000000
19.027181049000,-0.309000000000
19.034868658000,-0.202000000000
19.042556267000,-0.168000000000
19.050243876000,-0.079000000000
19.057931485000,-0.029000000000
19.065619094000,-0.044000000000
19.073306703000,-0.039000000000
19.080994312000,-0.024000000000
19.088681921000,-0.027000000000
19.096369530000,-0.017000000000
19.104057139000,-0.002000000000
19.111744748000,-0.002000000000
19.119432402000,0.000000000000
19.127120011000,0.007000000000
19.134807620000,0.012000000000
19.142495229000,0.017000000000
19.150182838000,0.019000000000
19.157870447000,0.019000000000
19.165558056000,0.029000000000
19.173245665000,0.042000000000
19.180933274000,0.047000000000
19.188620883000,0.056000000000
19.196308492000,0.069000000000
19.203996101000,0.066000000000
19.211683710000,0.079000000000
19.219371319000,0.106000000000
19.227058928000,0.118000000000
19.234746537000,0.123000000000
19.242434146000,0.131000000000
19.250121755000,0.133000000000
19.257809364000,0.133000000000
19.265496973000,0.131000000000
19.273184582000,0.121000000000
19.280872191000,0.094000000000
19.288559800000,0.061000000000
19.296247409000,0.022000000000
19.303935018000,-0.022000000000
19.311622627000,-0.051000000000
19.319310236000,-0.064000000000
19.326997845000,-0.084000000000
19.334685454000,-0.113000000000
19.342373063000,-0.123000000000
19.350060672000,-0.123000000000
19.357748281000,-0.121000000000
19.365435890000,-0.118000000000
19.373123499000,-0.113000000000
19.380811108000,-0.106000000000
19.388498717000,-0.103000000000
19.396186326000,-0.098000000000
19.403873935000,-0.091000000000
19.411561544000,-0.089000000000
19.419249153000,-0.089000000000
19.426936762000,-0.086000000000
19.434624371000,-0.081000000000
19.442311980000,-0.079000000000
19.449999589000,-0.079000000000
19.457687198000,-0.079000000000
19.465374807000,-0.079000000000
19.473062416000,-0.069000000000
19.480750025000,-0.069000000000
19.488437634000,-0.076000000000
19.496125243000,-0.079000000000
19.503812852000,-0.079000000000
19.511500461000,-0.079000000000
19.519188070000,-0.076000000000
19.526875679000,-0.076000000000
19.534563288000,-0.071000000000
19.542250897000,-0.071000000000
19.549938506000,-0.071000000000
19.557626115000,-0.069000000000
19.565313724000,-0.069000000000
19.573001333000,-0.071000000000
19.580688942000,-0.069000000000
19.588376551000,-0.066000000000
19.596064160000,-0.059000000000
19.603751769000,-0.056000000000
19.611439378000,-0.059000000000
19.619126987000,-0.061000000000
19.626814596000,-0.059000000000
19.634502205000,-0.054000000000
19.642189814000,-0.059000000000
19.649877423000,-0.061000000000
19.657565032000,-0.054000000000
19.665252641000,-0.051000000000
19.672940250000,-0.059000000000
19.680627904000,-0.074000000000
19.688315792000,-0.071000000000
19.696003680000,-0.049000000000
19.703691568000,-0.034000000000
19.711379456000,-0.029000000000
19.719067344000,-0.029000000000
19.726755232000,-0.027000000000
19.734443120000,-0.024000000000
19.742131008000,-0.039000000000
19.749818896000,-0.059000000000
19.757506784000,-0.054000000000
19.765194672000,-0.044000000000
19.772882560000,-0.049000000000
19.780570448000,-0.051000000000
19.788258336000,-0.049000000000
19.795946224000,-0.049000000000
19.803634112000,-0.051000000000
19.811322000000,-0.047000000000
19.819009888000,0.066000000000
19.826697776000,0.403000000000
19.834385664000,0.700000000000
19.842073552000,0.494000000000
19.849761440000,-0.076000000000
19.857449328000,-0.398000000000
19.865137216000,-0.316000000000
19.872825104000,-0.200000000000
19.880512992000,-0.168000000000
19.888200880000,-0.089000000000
19.895888768000,-0.039000000000
19.903576656000,-0.054000000000
19.911264544000,-0.054000000000
19.918952432000,-0.032000000000
19.926640320000,-0.027000000000
19.934328208000,-0.019000000000
19.942016096000,-0.007000000000
19.949703984000,-0.004000000000
19.957391872000,-0.007000000000
19.965079760000,-0.004000000000
19.972767648000,0.004000000000
19.980455536000,0.004000000000
19.988143424000,0.004000000000
19.995831312000,0.017000000000
20.003519200000,0.027000000000
20.011207088000,0.029000000000
20.018894976000,0.037000000000
20.026582864000,0.049000000000
20.034270752000,0.056000000000
20.041958640000,0.069000000000
20.049646528000,0.081000000000
20.057334416000,0.094000000000
20.065022304000,0.103000000000
20.072710192000,0.116000000000
20.080398080000,0.123000000000
20.088085968000,0.123000000000
20.095773856000,0.121000000000
20.103461744000,0.123000000000
20.111149632000,0.113000000000
20.118837520000,0.091000000000
20.126525408000,0.061000000000
20.134213296000,0.027000000000
20.141901184000,-0.012000000000
20.149589072000,-0.049000000000
20.157276960000,-0.081000000000
20.164964848000,-0.096000000000
20.172652736000,-0.106000000000
20.180340624000,-0.118000000000
20.188028512000,-0.128000000000
20.195716400000,-0.128000000000
20.203404288000,-0.121000000000
20.211092176000,-0.113000000000
20.218780064000,-0.113000000000
20.226467952000,-0.106000000000
20.234155840000,-0.098000000000
20.241843750000,-0.101000000000
20.249531498000,-0.098000000000
20.257219246000,-0.084000000000
20.264906994000,-0.081000000000
20.272594742000,-0.084000000000
20.280282490000,-0.081000000000
20.287970238000,-0.076000000000
20.295657986000,-0.076000000000
20.303345734000,-0.079000000000
20.311033482000,-0.079000000000
20.318721230000,-0.079000000000
20.326408978000,-0.074000000000
20.334096726000,-0.071000000000
20.341784474000,-0.076000000000
20.349472222000,-0.079000000000
20.357159970000,-0.081000000000
20.364847718000,-0.081000000000
20.372535466000,-0.074000000000
20.380223214000,-0.066000000000
20.387910962000,-0.076000000000
20.395598710000,-0.079000000000
20.403286458000,-0.069000000000
20.410974206000,-0.066000000000
20.418661954000,-0.066000000000
20.426349702000,-0.054000000000
20.434037450000,-0.056000000000
20.441725198000,-0.079000000000
20.449412946000,-0.079000000000
20.457100694000,-0.061000000000
20.464788442000,-0.051000000000
20.472476190000,-0.051000000000
20.480163938000,-0.064000000000
20.487851686000,-0.069000000000
20.495539434000,-0.051000000000
20.503227182000,-0.044000000000
20.510914930000,-0.056000000000
20.518602678000,-0.064000000000
20.526290426000,-0.064000000000
20.533978174000,-0.066000000000
20.541665922000,-0.061000000000
20.549353670000,-0.047000000000
20.557041418000,-0.029000000000
20.564729166000,-0.022000000000
20.572416914000,-0.024000000000
20.580104662000,-0.029000000000
20.587792410000,-0.029000000000
20.595480158000,-0.042000000000
20.603167906000,-0.056000000000
20.610855654000,-0.051000000000
20.618543402000,-0.049000000000
20.626231150000,-0.051000000000
20.633918898000,-0.049000000000
20.641606646000,-0.047000000000
20.649294394000,-0.054000000000
20.656982142000,-0.061000000000
20.664669890000,-0.051000000000
20.672357638000,0.074000000000
20.680045386000,0.405000000000
20.687733134000,0.670000000000
20.695420882000,0.435000000000
20.703108630000,-0.128000000000
20.710796378000,-0.408000000000
20.718484126000,-0.304000000000
20.726171874000,-0.197000000000
20.733859622000,-0.163000000000
20.741547370000,-0.084000000000
20.749235118000,-0.039000000000
20.756922866000,-0.056000000000
20.764610614000,-0.049000000000
20.772298362000,-0.024000000000
20.779986110000,-0.022000000000
20.787673858000,-0.019000000000
20.795361606000,-0.007000000000
20.803049426000,-0.004000000000
20.810737174000,-0.009000000000
20.818424922000,-0.002000000000
20.826112670000,0.007000000000
20.833800418000,0.007000000000
20.841488166000,0.009000000000
20.849175914000,0.017000000000
20.856863662000,0.017000000000
20.864551410000,0.027000000000
20.872239158000,0.042000000000
20.879926906000,0.047000000000
20.887614654000,0.051000000000
20.895302402000,0.066000000000
20.902990150000,0.081000000000
20.910677898000,0.091000000000
20.918365646000,0.108000000000
20.926053394000,0.126000000000
20.933741142000,0.131000000000
20.941428890000,0.123000000000
20.949116638000,0.108000000000
20.956804386000,0.106000000000
20.964492134000,0.108000000000
20.972179882000,0.091000000000
20.979867630000,0.061000000000
20.987555378000,0.029000000000
20.995243126000,-0.007000000000
21.002930874000,-0.049000000000
21.010618622000,-0.089000000000
21.018306370000,-0.116000000000
21.025994118000,-0.126000000000
21.033681866000,-0.133000000000
21.041369614000,-0.138000000000
21.049057362000,-0.128000000000
21.056745110000,-0.121000000000
21.064432858000,-0.126000000000
21.072120606000,-0.126000000000
21.079808354000,-0.121000000000
21.087496102000,-0.113000000000
21.095183850000,-0.106000000000
21.102871598000,-0.101000000000
21.110559346000,-0.101000000000
21.118247094000,-0.101000000000
21.125934842000,-0.098000000000
21.133622590000,-0.089000000000
21.141310338000,-0.086000000000
21.148998086000,-0.096000000000
21.156685834000,-0.096000000000
21.164373582000,-0.091000000000
21.172061330000,-0.086000000000
21.179749078000,-0.084000000000
21.187436826000,-0.086000000000
21.195124574000,-0.086000000000
21.202812322000,-0.091000000000
21.210500070000,-0.098000000000
21.218187818000,-0.098000000000
21.225875566000,-0.091000000000
21.233563314000,-0.084000000000
21.241251062000,-0.081000000000
21.248938810000,-0.081000000000
21.256626558000,-0.084000000000
21.264314306000,-0.089000000000
21.272002054000,-0.091000000000
21.279689802000,-0.081000000000
21.287377550000,-0.076000000000
21.295065298000,-0.081000000000
21.302753046000,-0.084000000000
21.310440794000,-0.081000000000
21.318128542000,-0.081000000000
21.325816290000,-0.079000000000
21.333504038000,-0.074000000000
21.341191786000,-0.071000000000
21.348879534000,-0.076000000000
21.356567282000,-0.079000000000
21.364255098000,-0.079000000000
21.371942637000,-0.066000000000
21.379630176000,-0.051000000000
21.387317715000,-0.039000000000
21.395005254000,-0.044000000000
21.402692793000,-0.044000000000
21.410380332000,-0.037000000000
21.418067871000,-0.049000000000
21.425755410000,-0.071000000000
21.433442949000,-0.071000000000
21.441130488000,-0.064000000000
21.448818027000,-0.074000000000
21.456505566000,-0.081000000000
21.464193105000,-0.071000000000
21.471880644000,-0.071000000000
21.479568183000,-0.071000000000
21.487255722000,-0.032000000000
21.494943261000,0.153000000000
21.502630800000,0.529000000000
21.510318339000,0.685000000000
21.518005878000,0.225000000000
21.525693417000,-0.363000000000
21.533380956000,-0.450000000000
21.541068495000,-0.277000000000
21.548756034000,-0.242000000000
21.556443573000,-0.207000000000
21.564131112000,-0.084000000000
21.571818651000,-0.039000000000
21.579506190000,-0.061000000000
21.587193729000,-0.047000000000
21.594881268000,-0.024000000000
21.602568807000,-0.029000000000
21.610256346000,-0.029000000000
21.617943885000,-0.014000000000
21.625631424000,-0.007000000000
21.633318963000,-0.002000000000
21.641006502000,0.007000000000
21.648694041000,0.009000000000
21.656381580000,0.000000000000
21.664069119000,0.004000000000
21.671756658000,0.022000000000
21.679444197000,0.029000000000
21.687131736000,0.034000000000
21.694819275000,0.047000000000
21.702506814000,0.059000000000
21.710194353000,0.076000000000
21.717881892000,0.089000000000
21.725569431000,0.098000000000
21.733256970000,0.111000000000
21.740944509000,0.131000000000
21.748632048000,0.148000000000
21.756319587000,0.153000000000
21.764007126000,0.148000000000
21.771694665000,0.153000000000
21.779382204000,0.148000000000
21.787069743000,0.118000000000
21.794757282000,0.094000000000
21.802444821000,0.064000000000
21.810132360000,0.007000000000
21.817819899000,-0.044000000000
21.825507438000,-0.071000000000
21.833194977000,-0.094000000000
21.840882516000,-0.118000000000
21.848570055000,-0.136000000000
21.856257594000,-0.138000000000
21.863945133000,-0.143000000000
21.871632672000,-0.143000000000
21.879320211000,-0.136000000000
21.887007750000,-0.126000000000
21.894695289000,-0.118000000000
21.902382828000,-0.111000000000
21.910070367000,-0.108000000000
21.917757906000,-0.106000000000
21.925445513000,-0.096000000000
21.933133052000,-0.081000000000
21.940820591000,-0.071000000000
21.948508130000,-0.074000000000
21.956195669000,-0.081000000000
21.963883208000,-0.081000000000
21.971570747000,-0.079000000000
21.979258286000,-0.076000000000
21.986945825000,-0.081000000000
21.994633364000,-0.086000000000
22.002320903000,-0.084000000000
22.010008442000,-0.079000000000
22.017695981000,-0.084000000000
22.025383520000,-0.089000000000
22.033071059000,-0.084000000000
22.040758598000,-0.076000000000
22.048446137000,-0.081000000000
22.056133676000,-0.086000000000
22.063821215000,-0.081000000000
22.071508754000,-0.076000000000
22.079196293000,-0.074000000000
22.086883832000,-0.069000000000
22.094571371000,-0.069000000000
22.102258910000,-0.064000000000
22.109946449000,-0.061000000000
22.117633988000,-0.066000000000
22.125321527000,-0.066000000000
22.133009066000,-0.059000000000
22.140696605000,-0.059000000000
22.148384144000,-0.066000000000
22.156071683000,-0.066000000000
22.163759222000,-0.056000000000
22.171446761000,-0.039000000000
22.179134300000,-0.027000000000
22.186821839000,-0.029000000000
22.194509378000,-0.032000000000
22.202196917000,-0.022000000000
22.209884456000,-0.034000000000
22.217571995000,-0.059000000000
22.225259534000,-0.059000000000
22.232947073000,-0.044000000000
22.240634612000,-0.047000000000
22.248322151000,-0.054000000000
22.256009690000,-0.051000000000
22.263697229000,-0.049000000000
22.271384768000,-0.051000000000
22.279072307000,-0.049000000000
22.286759846000,0.051000000000
22.294447385000,0.368000000000
22.302134924000,0.700000000000
22.309822463000,0.544000000000
22.317510002000,-0.064000000000
22.325197541000,-0.435000000000
22.332885080000,-0.346000000000
22.340572619000,-0.212000000000
22.348260158000,-0.188000000000
22.355947697000,-0.103000000000
22.363635236000,-0.029000000000
22.371322775000,-0.037000000000
22.379010314000,-0.042000000000
22.386697853000,-0.027000000000
22.394385392000,-0.019000000000
22.402072931000,-0.012000000000
22.409760470000,-0.002000000000
22.417448009000,0.002000000000
22.425135548000,0.004000000000
22.432823087000,0.004000000000
22.440510626000,0.009000000000
22.448198165000,0.024000000000
22.455885704000,0.024000000000
22.463573243000,0.019000000000
22.471260782000,0.027000000000
22.478948321000,0.042000000000
22.486635928000,0.056000000000
22.494323886000,0.074000000000
22.502011844000,0.081000000000
22.509699802000,0.081000000000
22.517387760000,0.091000000000
22.525075718000,0.111000000000
22.532763676000,0.123000000000
22.540451634000,0.136000000000
22.548139592000,0.145000000000
22.555827550000,0.148000000000
22.563515508000,0.150000000000
22.571203466000,0.153000000000
22.578891424000,0.141000000000
22.586579382000,0.113000000000
22.594267340000,0.084000000000
22.601955298000,0.049000000000
22.609643256000,-0.004000000000
22.617331214000,-0.051000000000
22.625019172000,-0.079000000000
22.632707130000,-0.096000000000
22.640395088000,-0.106000000000
22.648083046000,-0.118000000000
22.655771004000,-0.126000000000
22.663458962000,-0.121000000000
22.671146920000,-0.121000000000
22.678834878000,-0.131000000000
22.686522836000,-0.123000000000
22.694210794000,-0.103000000000
22.701898752000,-0.096000000000
22.709586710000,-0.096000000000
22.717274668000,-0.094000000000
22.724962626000,-0.084000000000
22.732650584000,-0.079000000000
22.740338542000,-0.076000000000
22.748026500000,-0.074000000000
22.755714458000,-0.071000000000
22.763402416000,-0.069000000000
22.771090374000,-0.069000000000
22.778778332000,-0.076000000000
22.786466290000,-0.076000000000
22.794154248000,-0.069000000000
22.801842206000,-0.066000000000
22.809530164000,-0.071000000000
22.817218122000,-0.074000000000
22.824906080000,-0.066000000000
22.832594038000,-0.066000000000
22.840281996000,-0.074000000000
22.847969954000,-0.069000000000
22.855657912000,-0.069000000000
22.863345870000,-0.079000000000
22.871033828000,-0.076000000000
22.878721786000,-0.069000000000
22.886409744000,-0.064000000000
22.894097702000,-0.061000000000
22.901785660000,-0.069000000000
22.909473618000,-0.064000000000
22.917161576000,-0.054000000000
22.924849534000,-0.054000000000
22.932537492000,-0.061000000000
22.940225450000,-0.061000000000
22.947913408000,-0.064000000000
22.955601366000,-0.061000000000
22.963289324000,-0.051000000000
22.970977282000,-0.042000000000
22.978665240000,-0.051000000000
22.986353198000,-0.064000000000
22.994041156000,-0.051000000000
23.001729114000,-0.042000000000
23.009417072000,-0.059000000000
23.017105030000,-0.074000000000
23.024792988000,-0.064000000000
23.032480946000,-0.054000000000
23.040168904000,-0.044000000000
23.047856865000,-0.029000000000
23.055544544000,-0.019000000000
23.063232223000,-0.024000000000
23.070919902000,-0.019000000000
23.078607581000,-0.017000000000
23.086295260000,-0.037000000000
23.093982939000,-0.059000000000
23.101670618000,-0.054000000000
23.109358297000,-0.042000000000
23.117045976000,-0.039000000000
23.124733655000,-0.044000000000
23.132421334000,-0.051000000000
23.140109013000,-0.049000000000
23.147796692000,-0.047000000000
23.155484371000,-0.047000000000
23.163172050000,0.081000000000
23.170859729000,0.452000000000
23.178547408000,0.732000000000
23.186235087000,0.475000000000
23.193922766000,-0.108000000000
23.201610445000,-0.405000000000
23.209298124000,-0.306000000000
23.216985803000,-0.188000000000
23.224673482000,-0.153000000000
23.232361161000,-0.084000000000
23.240048840000,-0.051000000000
23.247736519000,-0.064000000000
23.255424198000,-0.049000000000
23.263111877000,-0.034000000000
23.270799556000,-0.029000000000
23.278487235000,-0.014000000000
23.286174914000,-0.014000000000
23.293862593000,-0.027000000000
23.301550272000,-0.014000000000
23.309237951000,0.000000000000
23.316925630000,-0.004000000000
23.324613309000,0.000000000000
23.332300988000,0.009000000000
23.339988667000,0.009000000000
23.347676346000,0.017000000000
23.355364025000,0.024000000000
23.363051704000,0.027000000000
23.370739383000,0.042000000000
23.378427062000,0.056000000000
23.386114741000,0.056000000000
23.393802420000,0.064000000000
23.401490099000,0.084000000000
23.409177778000,0.101000000000
23.416865457000,0.116000000000
23.424553136000,0.128000000000
23.432240815000,0.128000000000
23.439928494000,0.121000000000
23.447616173000,0.116000000000
23.455303852000,0.123000000000
23.462991531000,0.108000000000
23.470679210000,0.061000000000
23.478366889000,0.027000000000
23.486054568000,0.000000000000
23.493742247000,-0.039000000000
23.501429926000,-0.074000000000
23.509117605000,-0.094000000000
23.516805284000,-0.116000000000
23.524492963000,-0.123000000000
23.532180642000,-0.118000000000
23.539868321000,-0.121000000000
23.547556000000,-0.126000000000
23.555243679000,-0.118000000000
23.562931358000,-0.111000000000
23.570619037000,-0.106000000000
23.578306716000,-0.101000000000
23.585994395000,-0.098000000000
23.593682074000,-0.098000000000
23.601369753000,-0.091000000000
23.609057454000,-0.086000000000
23.616745063000,-0.084000000000
23.624432672000,-0.079000000000
23.632120281000,-0.079000000000
23.639807890000,-0.079000000000
23.647495499000,-0.079000000000
23.655183108000,-0.084000000000
23.662870717000,-0.086000000000
23.670558326000,-0.084000000000
23.678245935000,-0.081000000000
23.685933544000,-0.074000000000
23.693621153000,-0.079000000000
23.701308762000,-0.094000000000
23.708996371000,-0.086000000000
23.716683980000,-0.074000000000
23.724371589000,-0.081000000000
23.732059198000,-0.084000000000
23.739746807000,-0.076000000000
23.747434416000,-0.076000000000
23.755122025000,-0.084000000000
23.762809634000,-0.081000000000
23.770497243000,-0.071000000000
23.778184852000,-0.071000000000
23.785872461000,-0.074000000000
23.793560070000,-0.066000000000
23.801247679000,-0.061000000000
23.808935288000,-0.066000000000
23.816622897000,-0.066000000000
23.824310506000,-0.064000000000
23.831998115000,-0.066000000000
23.839685724000,-0.066000000000
23.847373333000,-0.059000000000
23.855060942000,-0.054000000000
23.862748551000,-0.056000000000
23.870436160000,-0.059000000000
23.878123769000,-0.056000000000
23.885811378000,-0.054000000000
23.893498987000,-0.054000000000
23.901186596000,-0.056000000000
23.908874205000,-0.054000000000
23.916561814000,-0.054000000000
23.924249423000,-0.064000000000
23.931937032000,-0.061000000000
23.939624641000,-0.054000000000
23.947312250000,-0.061000000000
23.954999859000,-0.054000000000
23.962687468000,-0.027000000000
23.970375077000,-0.019000000000
23.978062686000,-0.037000000000
23.985750295000,-0.037000000000
23.993437904000,-0.022000000000
24.001125513000,-0.027000000000
24.008813122000,-0.044000000000
24.016500731000,-0.051000000000
24.024188340000,-0.047000000000
24.031875949000,-0.042000000000
24.039563558000,-0.044000000000
24.047251167000,-0.056000000000
24.054938776000,-0.049000000000
24.062626385000,-0.039000000000
24.070313994000,-0.049000000000
24.078001603000,-0.007000000000
24.085689212000,0.242000000000
24.093376821000,0.618000000000
24.101064430000,0.648000000000
24.108752039000,0.158000000000
24.116439648000,-0.314000000000
24.124127257000,-0.361000000000
24.131814866000,-0.222000000000
24.139502475000,-0.175000000000
24.147190084000,-0.126000000000
24.154877693000,-0.049000000000
24.162565302000,-0.051000000000
24.170252956000,-0.064000000000
24.177940704000,-0.039000000000
24.185628452000,-0.032000000000
24.193316200000,-0.029000000000
24.201003948000,-0.009000000000
24.208691696000,0.000000000000
24.216379444000,-0.009000000000
24.224067192000,-0.012000000000
24.231754940000,-0.002000000000
24.239442688000,-0.002000000000
24.247130436000,-0.004000000000
24.254818184000,0.012000000000
24.262505932000,0.014000000000
24.270193680000,0.009000000000
24.277881428000,0.027000000000
24.285569176000,0.042000000000
24.293256924000,0.044000000000
24.300944672000,0.044000000000
24.308632420000,0.059000000000
24.316320168000,0.074000000000
24.324007916000,0.084000000000
24.331695664000,0.094000000000
24.339383412000,0.103000000000
24.347071160000,0.113000000000
24.354758908000,0.118000000000
24.362446656000,0.118000000000
24.370134404000,0.121000000000
24.377822152000,0.103000000000
24.385509900000,0.071000000000
24.393197648000,0.044000000000
24.400885396000,0.014000000000
24.408573144000,-0.024000000000
24.416260892000,-0.056000000000
24.423948640000,-0.076000000000
24.431636388000,-0.096000000000
24.439324136000,-0.116000000000
24.447011884000,-0.123000000000
24.454699632000,-0.116000000000
24.462387380000,-0.118000000000
24.470075128000,-0.128000000000
24.477762876000,-0.121000000000
24.485450624000,-0.111000000000
24.493138372000,-0.111000000000
24.500826120000,-0.103000000000
24.508513868000,-0.086000000000
24.516201616000,-0.089000000000
24.523889364000,-0.103000000000
24.531577112000,-0.103000000000
24.539264860000,-0.089000000000
24.546952608000,-0.079000000000
24.554640356000,-0.079000000000
24.562328104000,-0.084000000000
24.570015852000,-0.084000000000
24.577703600000,-0.084000000000
24.585391348000,-0.081000000000
24.593079096000,-0.079000000000
24.600766844000,-0.076000000000
24.608454592000,-0.079000000000
24.616142340000,-0.086000000000
24.623830088000,-0.091000000000
24.631517836000,-0.086000000000
24.639205584000,-0.086000000000
24.646893332000,-0.086000000000
24.654581080000,-0.081000000000
24.662268828000,-0.076000000000
24.669956576000,-0.076000000000
24.677644324000,-0.081000000000
24.685332072000,-0.081000000000
24.693019820000,-0.076000000000
24.700707568000,-0.071000000000
24.708395316000,-0.076000000000
24.716083064000,-0.079000000000
24.723770812000,-0.076000000000
24.731458628000,-0.071000000000
24.739146516000,-0.071000000000
24.746834404000,-0.069000000000
24.754522292000,-0.064000000000
24.762210180000,-0.061000000000
24.769898068000,-0.066000000000
24.777585956000,-0.069000000000
24.785273844000,-0.069000000000
24.792961732000,-0.064000000000
24.800649620000,-0.066000000000
24.808337508000,-0.069000000000
24.816025396000,-0.071000000000
24.823713284000,-0.079000000000
24.831401172000,-0.071000000000
24.839089060000,-0.042000000000
24.846776948000,-0.027000000000
24.854464836000,-0.039000000000
24.862152724000,-0.042000000000
24.869840612000,-0.034000000000
24.877528500000,-0.051000000000
24.885216388000,-0.074000000000
24.892904276000,-0.066000000000
24.900592164000,-0.059000000000
24.908280052000,-0.066000000000
24.915967940000,-0.069000000000
24.923655828000,-0.064000000000
24.931343716000,-0.056000000000
24.939031604000,-0.054000000000
24.946719492000,-0.061000000000
24.954407380000,0.012000000000
24.962095268000,0.314000000000
24.969783156000,0.655000000000
24.977471044000,0.519000000000
24.985158932000,-0.051000000000
24.992846820000,-0.413000000000
25.000534708000,-0.348000000000
25.008222596000,-0.225000000000
25.015910484000,-0.195000000000
25.023598372000,-0.126000000000
25.031286260000,-0.059000000000
25.038974148000,-0.059000000000
25.046662036000,-0.066000000000
25.054349924000,-0.059000000000
25.062037812000,-0.047000000000
25.069725700000,-0.029000000000
25.077413588000,-0.019000000000
25.085101476000,-0.024000000000
25.092789364000,-0.024000000000
25.100477252000,-0.012000000000
25.108165140000,0.000000000000
25.115853028000,-0.002000000000
25.123540916000,-0.007000000000
25.131228804000,-0.004000000000
25.138916692000,0.007000000000
25.146604580000,0.027000000000
25.154292468000,0.034000000000
25.161980356000,0.032000000000
25.169668244000,0.042000000000
25.177356132000,0.069000000000
25.185044020000,0.081000000000
25.192731908000,0.081000000000
25.200419796000,0.089000000000
25.208107684000,0.113000000000
25.215795572000,0.131000000000
25.223483460000,0.131000000000
25.231171348000,0.131000000000
25.238859236000,0.138000000000
25.246547124000,0.133000000000
25.254235012000,0.118000000000
25.261922900000,0.081000000000
25.269610788000,0.012000000000
25.277298676000,-0.039000000000
25.284986564000,-0.059000000000
25.292674478000,-0.086000000000
25.300361669000,-0.121000000000
25.308048860000,-0.136000000000
25.315736051000,-0.141000000000
25.323423242000,-0.145000000000
25.331110433000,-0.150000000000
25.338797624000,-0.150000000000
25.346484815000,-0.145000000000
25.354172006000,-0.145000000000
25.361859197000,-0.141000000000
25.369546388000,-0.123000000000
25.377233579000,-0.113000000000
25.384920770000,-0.111000000000
25.392607961000,-0.106000000000
25.400295152000,-0.103000000000
25.407982343000,-0.101000000000
25.415669534000,-0.094000000000
25.423356725000,-0.096000000000
25.431043916000,-0.106000000000
25.438731107000,-0.106000000000
25.446418298000,-0.094000000000
25.454105489000,-0.086000000000
25.461792680000,-0.096000000000
25.469479871000,-0.098000000000
25.477167062000,-0.086000000000
25.484854253000,-0.081000000000
25.492541444000,-0.098000000000
25.500228635000,-0.103000000000
25.507915826000,-0.098000000000
25.515603017000,-0.103000000000
25.523290208000,-0.096000000000
25.530977399000,-0.081000000000
25.538664590000,-0.079000000000
25.546351781000,-0.079000000000
25.554038972000,-0.076000000000
25.561726163000,-0.081000000000
25.569413354000,-0.079000000000
25.577100545000,-0.066000000000
25.584787736000,-0.081000000000
25.592474927000,-0.096000000000
25.600162118000,-0.079000000000
25.607849309000,-0.076000000000
25.615536500000,-0.089000000000
25.623223691000,-0.076000000000
25.630910882000,-0.064000000000
25.638598073000,-0.074000000000
25.646285264000,-0.059000000000
25.653972455000,-0.029000000000
25.661659646000,-0.039000000000
25.669346837000,-0.051000000000
25.677034028000,-0.042000000000
25.684721219000,-0.051000000000
25.692408410000,-0.066000000000
25.700095601000,-0.064000000000
25.707782792000,-0.061000000000
25.715469983000,-0.066000000000
25.723157174000,-0.071000000000
25.730844365000,-0.069000000000
25.738531556000,-0.064000000000
25.746218747000,-0.064000000000
25.753905938000,-0.034000000000
25.761593129000,0.155000000000
25.769280320000,0.551000000000
25.776967511000,0.705000000000
25.784654702000,0.230000000000
25.792341893000,-0.356000000000
25.800029084000,-0.447000000000
25.807716275000,-0.282000000000
25.815403466000,-0.237000000000
25.823090657000,-0.195000000000
25.830777848000,-0.079000000000
25.838465039000,-0.044000000000
25.846152230000,-0.061000000000
25.853839460000,-0.039000000000
25.861527487000,-0.019000000000
25.869215514000,-0.027000000000
25.876903541000,-0.019000000000
25.884591568000,-0.004000000000
25.892279595000,-0.014000000000
25.899967622000,-0.017000000000
25.907655649000,0.004000000000
25.915343676000,0.014000000000
25.923031703000,0.012000000000
25.930719730000,0.022000000000
25.938407757000,0.027000000000
25.946095784000,0.027000000000
25.953783811000,0.037000000000
25.961471838000,0.049000000000
25.969159865000,0.059000000000
25.976847892000,0.076000000000
25.984535919000,0.091000000000
25.992223946000,0.103000000000
25.999911973000,0.126000000000
26.007600000000,0.141000000000
26.015288027000,0.141000000000
26.022976054000,0.148000000000
26.030664081000,0.163000000000
26.038352108000,0.163000000000
26.046040135000,0.148000000000
26.053728162000,0.128000000000
26.061416189000,0.101000000000
26.069104216000,0.064000000000
26.076792243000,0.014000000000
26.084480270000,-0.032000000000
26.092168297000,-0.066000000000
26.099856324000,-0.096000000000
26.107544351000,-0.116000000000
26.115232378000,-0.128000000000
26.122920405000,-0.138000000000
26.130608432000,-0.141000000000
26.138296459000,-0.136000000000
26.145984486000,-0.133000000000
26.153672513000,-0.128000000000
26.161360540000,-0.121000000000
26.169048567000,-0.118000000000
26.176736594000,-0.111000000000
26.184424621000,-0.103000000000
26.192112648000,-0.096000000000
26.199800675000,-0.084000000000
26.207488702000,-0.081000000000
26.215176729000,-0.089000000000
26.222864756000,-0.091000000000
26.230552783000,-0.079000000000
26.238240810000,-0.071000000000
26.245928837000,-0.076000000000
26.253616864000,-0.089000000000
26.261304891000,-0.091000000000
26.268992918000,-0.086000000000
26.276680945000,-0.081000000000
26.284368972000,-0.079000000000
26.292056999000,-0.081000000000
26.299745026000,-0.086000000000
26.307433053000,-0.086000000000
26.315121080000,-0.084000000000
26.322809107000,-0.084000000000
26.330497134000,-0.076000000000
26.338185161000,-0.074000000000
26.345873188000,-0.081000000000
26.353561215000,-0.076000000000
26.361249242000,-0.071000000000
26.368937269000,-0.076000000000
26.376625296000,-0.074000000000
26.384313323000,-0.064000000000
26.392001350000,-0.064000000000
26.399689377000,-0.071000000000
26.407377404000,-0.071000000000
26.415065482000,-0.066000000000
26.422753370000,-0.076000000000
26.430441258000,-0.079000000000
26.438129146000,-0.059000000000
26.445817034000,-0.042000000000
26.453504922000,-0.037000000000
26.461192810000,-0.037000000000
26.468880698000,-0.034000000000
26.476568586000,-0.034000000000
26.484256474000,-0.044000000000
26.491944362000,-0.054000000000
26.499632250000,-0.054000000000
26.507320138000,-0.056000000000
26.515008026000,-0.066000000000
26.522695914000,-0.059000000000
26.530383802000,-0.047000000000
26.538071690000,-0.049000000000
26.545759578000,-0.064000000000
26.553447466000,-0.074000000000
26.561135354000,0.000000000000
26.568823242000,0.296000000000
26.576511130000,0.667000000000
26.584199018000,0.601000000000
26.591886906000,0.039000000000
26.599574794000,-0.390000000000
26.607262682000,-0.368000000000
26.614950570000,-0.227000000000
26.622638458000,-0.185000000000
26.630326346000,-0.116000000000
26.638014234000,-0.044000000000
26.645702122000,-0.049000000000
26.653390010000,-0.061000000000
26.661077898000,-0.047000000000
26.668765786000,-0.039000000000
26.676453674000,-0.029000000000
26.684141562000,-0.014000000000
26.691829450000,-0.012000000000
26.699517338000,-0.009000000000
26.707205226000,0.000000000000
26.714893114000,-0.009000000000
26.722581002000,-0.017000000000
26.730268890000,-0.004000000000
26.737956778000,0.009000000000
26.745644666000,0.019000000000
26.753332554000,0.027000000000
26.761020442000,0.034000000000
26.768708330000,0.044000000000
26.776396218000,0.047000000000
26.784084106000,0.051000000000
26.791771994000,0.069000000000
26.799459882000,0.094000000000
26.807147770000,0.106000000000
26.814835658000,0.116000000000
26.822523546000,0.128000000000
26.830211434000,0.131000000000
26.837899322000,0.131000000000
26.845587210000,0.128000000000
26.853275098000,0.111000000000
26.860962986000,0.094000000000
26.868650874000,0.076000000000
26.876338762000,0.047000000000
26.884026650000,0.000000000000
26.891714538000,-0.047000000000
26.899402426000,-0.084000000000
26.907090314000,-0.106000000000
26.914778202000,-0.121000000000
26.922466090000,-0.138000000000
26.930153978000,-0.143000000000
26.937841866000,-0.136000000000
26.945529754000,-0.136000000000
26.953217642000,-0.138000000000
26.960905530000,-0.128000000000
26.968593418000,-0.116000000000
26.976281328000,-0.111000000000
26.983969076000,-0.108000000000
26.991656824000,-0.108000000000
26.999344572000,-0.111000000000
27.007032320000,-0.106000000000
27.014720068000,-0.101000000000
27.022407816000,-0.096000000000
27.030095564000,-0.091000000000
27.037783312000,-0.086000000000
27.045471060000,-0.084000000000
27.053158808000,-0.086000000000
27.060846556000,-0.096000000000
27.068534304000,-0.096000000000
27.076222052000,-0.086000000000
27.083909800000,-0.081000000000
27.091597548000,-0.089000000000
27.099285296000,-0.098000000000
27.106973044000,-0.091000000000
27.114660792000,-0.081000000000
27.122348540000,-0.089000000000
27.130036288000,-0.091000000000
27.137724036000,-0.081000000000
27.145411784000,-0.084000000000
27.153099532000,-0.086000000000
27.160787280000,-0.074000000000
27.168475028000,-0.071000000000
27.176162776000,-0.079000000000
27.183850524000,-0.079000000000
27.191538272000,-0.074000000000
27.199226020000,-0.076000000000
27.206913768000,-0.071000000000
27.214601516000,-0.071000000000
27.222289264000,-0.081000000000
27.229977012000,-0.084000000000
27.237664760000,-0.076000000000
27.245352508000,-0.066000000000
27.253040256000,-0.047000000000
27.260728004000,-0.032000000000
27.268415752000,-0.034000000000
27.276103500000,-0.039000000000
27.283791248000,-0.047000000000
27.291478996000,-0.064000000000
27.299166744000,-0.069000000000
27.306854492000,-0.064000000000
27.314542240000,-0.061000000000
27.322229988000,-0.054000000000
27.329917736000,-0.056000000000
27.337605484000,-0.069000000000
27.345293232000,-0.069000000000
27.352980980000,-0.059000000000
27.360668728000,-0.032000000000
27.368356476000,0.145000000000
27.376044224000,0.522000000000
27.383731972000,0.690000000000
27.391419720000,0.296000000000
27.399107468000,-0.262000000000
27.406795216000,-0.427000000000
27.414482964000,-0.279000000000
27.422170712000,-0.195000000000
27.429858460000,-0.150000000000
27.437546208000,-0.061000000000
27.445233956000,-0.044000000000
27.452921704000,-0.069000000000
27.460609452000,-0.049000000000
27.468297200000,-0.027000000000
27.475984948000,-0.024000000000
27.483672696000,-0.022000000000
27.491360444000,-0.019000000000
27.499048192000,-0.017000000000
27.506735940000,-0.012000000000
27.514423688000,-0.002000000000
27.522111436000,0.007000000000
27.529799184000,0.009000000000
27.537487004000,0.012000000000
27.545174752000,0.017000000000
27.552862500000,0.019000000000
27.560550248000,0.032000000000
27.568237996000,0.039000000000
27.575925744000,0.047000000000
27.583613492000,0.066000000000
27.591301240000,0.084000000000
27.598988988000,0.086000000000
27.606676736000,0.098000000000
27.614364484000,0.128000000000
27.622052232000,0.133000000000
27.629739980000,0.121000000000
27.637427728000,0.128000000000
27.645115476000,0.138000000000
27.652803224000,0.136000000000
27.660490972000,0.118000000000
27.668178720000,0.084000000000
27.675866468000,0.049000000000
27.683554216000,0.019000000000
27.691241964000,-0.014000000000
27.698929712000,-0.056000000000
27.706617460000,-0.086000000000
27.714305208000,-0.103000000000
27.721992956000,-0.123000000000
27.729680704000,-0.141000000000
27.737368452000,-0.138000000000
27.745056200000,-0.123000000000
27.752743948000,-0.116000000000
27.760431696000,-0.121000000000
27.768119444000,-0.113000000000
27.775807192000,-0.101000000000
27.783494940000,-0.098000000000
27.791182688000,-0.101000000000
27.798870436000,-0.101000000000
27.806558184000,-0.103000000000
27.814245932000,-0.101000000000
27.821933680000,-0.091000000000
27.829621428000,-0.094000000000
27.837309176000,-0.096000000000
27.844996924000,-0.086000000000
27.852684672000,-0.079000000000
27.860372420000,-0.076000000000
27.868060168000,-0.081000000000
27.875747916000,-0.086000000000
27.883435664000,-0.081000000000
27.891123412000,-0.071000000000
27.898811160000,-0.079000000000
27.906498908000,-0.098000000000
27.914186656000,-0.094000000000
27.921874404000,-0.076000000000
27.929562152000,-0.079000000000
27.937249900000,-0.089000000000
27.944937648000,-0.079000000000
27.952625396000,-0.069000000000
27.960313144000,-0.074000000000
27.968000892000,-0.076000000000
27.975688640000,-0.069000000000
27.983376388000,-0.061000000000
27.991064136000,-0.069000000000
27.998751884000,-0.076000000000
28.006439632000,-0.084000000000
28.014127380000,-0.081000000000
28.021815128000,-0.074000000000
28.029502876000,-0.074000000000
28.037190624000,-0.069000000000
28.044878372000,-0.047000000000
28.052566120000,-0.029000000000
28.060253868000,-0.032000000000
28.067941616000,-0.039000000000
28.075629364000,-0.042000000000
28.083317112000,-0.051000000000
28.091004860000,-0.071000000000
28.098692676000,-0.079000000000
28.106380215000,-0.074000000000
28.114067754000,-0.066000000000
28.121755293000,-0.064000000000
28.129442832000,-0.066000000000
28.137130371000,-0.066000000000
28.144817910000,-0.066000000000
28.152505449000,-0.056000000000
28.160192988000,0.066000000000
28.167880527000,0.405000000000
28.175568066000,0.672000000000
28.183255605000,0.403000000000
28.190943144000,-0.183000000000
28.198630683000,-0.440000000000
28.206318222000,-0.324000000000
28.214005761000,-0.227000000000
28.221693300000,-0.178000000000
28.229380839000,-0.081000000000
28.237068378000,-0.056000000000
28.244755917000,-0.079000000000
28.252443456000,-0.061000000000
28.260130995000,-0.051000000000
28.267818534000,-0.056000000000
28.275506073000,-0.039000000000
28.283193612000,-0.029000000000
28.290881151000,-0.034000000000
28.298568690000,-0.019000000000
28.306256229000,-0.007000000000
28.313943768000,-0.012000000000
28.321631307000,-0.012000000000
28.329318846000,0.000000000000
28.337006385000,0.004000000000
28.344693924000,0.004000000000
28.352381463000,0.014000000000
28.360069002000,0.024000000000
28.367756541000,0.037000000000
28.375444080000,0.047000000000
28.383131619000,0.056000000000
28.390819158000,0.069000000000
28.398506697000,0.089000000000
28.406194236000,0.101000000000
28.413881775000,0.103000000000
28.421569314000,0.108000000000
28.429256853000,0.121000000000
28.436944392000,0.123000000000
28.444631931000,0.111000000000
28.452319470000,0.096000000000
28.460007009000,0.074000000000
28.467694548000,0.047000000000
28.475382087000,0.012000000000
28.483069626000,-0.032000000000
28.490757165000,-0.071000000000
28.498444704000,-0.096000000000
28.506132243000,-0.118000000000
28.513819782000,-0.136000000000
28.521507321000,-0.145000000000
28.529194860000,-0.150000000000
28.536882399000,-0.148000000000
28.544569938000,-0.138000000000
28.552257477000,-0.133000000000
28.559945016000,-0.133000000000
28.567632555000,-0.136000000000
28.575320094000,-0.131000000000
28.583007633000,-0.123000000000
28.590695172000,-0.121000000000
28.598382711000,-0.111000000000
28.606070250000,-0.098000000000
28.613757789000,-0.101000000000
28.621445328000,-0.111000000000
28.629132867000,-0.111000000000
28.636820406000,-0.101000000000
28.644507945000,-0.101000000000
28.652195484000,-0.098000000000
28.659883091000,-0.091000000000
28.667571049000,-0.101000000000
28.675259007000,-0.111000000000
28.682946965000,-0.103000000000
28.690634923000,-0.101000000000
28.698322881000,-0.108000000000
28.706010839000,-0.101000000000
28.713698797000,-0.091000000000
28.721386755000,-0.094000000000
28.729074713000,-0.098000000000
28.736762671000,-0.096000000000
28.744450629000,-0.094000000000
28.752138587000,-0.094000000000
28.759826545000,-0.091000000000
28.767514503000,-0.089000000000
28.775202461000,-0.094000000000
28.782890419000,-0.091000000000
28.790578377000,-0.084000000000
28.798266335000,-0.089000000000
28.805954293000,-0.096000000000
28.813642251000,-0.091000000000
28.821330209000,-0.089000000000
28.829018167000,-0.089000000000
28.836706125000,-0.074000000000
28.844394083000,-0.061000000000
28.852082041000,-0.059000000000
28.859769999000,-0.051000000000
28.867457957000,-0.051000000000
28.875145915000,-0.079000000000
28.882833873000,-0.091000000000
28.890521831000,-0.081000000000
28.898209789000,-0.076000000000
28.905897747000,-0.076000000000
28.913585705000,-0.084000000000
28.921273663000,-0.084000000000
28.928961621000,-0.079000000000
28.936649579000,-0.081000000000
28.944337537000,-0.074000000000
28.952025495000,0.039000000000
28.959713453000,0.361000000000
28.967401411000,0.645000000000
28.975089369000,0.437000000000
28.982777327000,-0.145000000000
28.990465285000,-0.465000000000
28.998153243000,-0.361000000000
29.005841201000,-0.235000000000
29.013529159000,-0.195000000000
29.021217117000,-0.116000000000
29.028905075000,-0.064000000000
29.036593033000,-0.071000000000
29.044280991000,-0.061000000000
29.051968949000,-0.049000000000
29.059656907000,-0.051000000000
29.067344865000,-0.044000000000
29.075032823000,-0.032000000000
29.082720781000,-0.029000000000
29.090408739000,-0.027000000000
29.098096697000,-0.024000000000
29.105784655000,-0.014000000000
29.113472613000,-0.007000000000
29.121160571000,-0.004000000000
29.128848529000,0.000000000000
29.136536487000,0.014000000000
29.144224445000,0.019000000000
29.151912403000,0.017000000000
29.159600361000,0.027000000000
29.167288319000,0.051000000000
29.174976277000,0.064000000000
29.182664235000,0.071000000000
29.190352193000,0.089000000000
29.198040151000,0.106000000000
29.205728109000,0.101000000000
29.213416067000,0.098000000000
29.221104028000,0.111000000000
29.228791637000,0.116000000000
29.236479246000,0.111000000000
29.244166855000,0.111000000000
29.251854464000,0.094000000000
29.259542073000,0.054000000000
29.267229682000,0.009000000000
29.274917291000,-0.032000000000
29.282604900000,-0.069000000000
29.290292509000,-0.094000000000
29.297980118000,-0.126000000000
29.305667727000,-0.148000000000
29.313355336000,-0.150000000000
29.321042945000,-0.145000000000
29.328730554000,-0.145000000000
29.336418163000,-0.145000000000
29.344105772000,-0.143000000000
29.351793381000,-0.136000000000
29.359480990000,-0.123000000000
29.367168599000,-0.118000000000
