time,LSB
0.000000000000,0.173000000000
0.007686843000,0.168000000000
0.015373686000,0.156000000000
0.023060529000,0.139000000000
0.030747372000,0.098000000000
0.038434215000,0.043000000000
0.046121058000,-0.004000000000
0.053807901000,-0.050000000000
0.061494744000,-0.091000000000
0.069181587000,-0.117000000000
0.076868430000,-0.127000000000
0.084555273000,-0.137000000000
0.092242116000,-0.144000000000
0.099928959000,-0.139000000000
0.107615802000,-0.132000000000
0.115302645000,-0.144000000000
0.122989488000,-0.151000000000
0.130676331000,-0.141000000000
0.138363174000,-0.139000000000
0.146050017000,-0.149000000000
0.153736860000,-0.144000000000
0.161423703000,-0.129000000000
0.169110546000,-0.137000000000
0.176797389000,-0.161000000000
0.184484232000,-0.163000000000
0.192171075000,-0.156000000000
0.199857918000,-0.158000000000
0.207544761000,-0.165000000000
0.215231604000,-0.168000000000
0.222918447000,-0.156000000000
0.230605290000,-0.132000000000
0.238292133000,-0.127000000000
0.245978976000,-0.141000000000
0.253665819000,-0.127000000000
0.261352662000,-0.098000000000
0.269039505000,-0.105000000000
0.276726348000,-0.132000000000
0.284413191000,-0.144000000000
0.292100034000,-0.141000000000
0.299786877000,-0.132000000000
0.307473720000,-0.127000000000
0.315160563000,-0.129000000000
0.322847406000,-0.156000000000
0.330534249000,-0.189000000000
0.338221092000,-0.031000000000
0.345907935000,0.428000000000
0.353594778000,0.692000000000
0.361281621000,0.240000000000
0.368968464000,-0.464000000000
0.376655307000,-0.613000000000
0.384342150000,-0.343000000000
0.392028993000,-0.242000000000
0.399715836000,-0.230000000000
0.407402679000,-0.120000000000
0.415089522000,-0.074000000000
0.422776365000,-0.091000000000
0.430463208000,-0.072000000000
0.438150051000,-0.069000000000
0.445836894000,-0.088000000000
0.453523737000,-0.069000000000
0.461210580000,-0.043000000000
0.468897423000,-0.043000000000
0.476584266000,-0.045000000000
0.484271109000,-0.033000000000
0.491957952000,-0.021000000000
0.499644795000,-0.012000000000
0.507331638000,0.000000000000
0.515018481000,0.012000000000
0.522705324000,0.021000000000
0.530392167000,0.031000000000
0.538079010000,0.043000000000
0.545765853000,0.060000000000
0.553452696000,0.076000000000
0.561139549000,0.093000000000
0.568826670000,0.110000000000
0.576513791000,0.127000000000
0.584200912000,0.139000000000
0.591888033000,0.141000000000
0.599575154000,0.125000000000
0.607262275000,0.091000000000
0.614949396000,0.048000000000
0.622636517000,0.000000000000
0.630323638000,-0.055000000000
0.638010759000,-0.096000000000
0.645697880000,-0.117000000000
0.653385001000,-0.132000000000
0.661072122000,-0.141000000000
0.668759243000,-0.144000000000
0.676446364000,-0.144000000000
0.684133485000,-0.146000000000
0.691820606000,-0.146000000000
0.699507727000,-0.139000000000
0.707194848000,-0.137000000000
0.714881969000,-0.139000000000
0.722569090000,-0.139000000000
0.730256211000,-0.139000000000
0.737943332000,-0.137000000000
0.745630453000,-0.139000000000
0.753317574000,-0.141000000000
0.761004695000,-0.144000000000
0.768691816000,-0.149000000000
0.776378937000,-0.156000000000
0.784066058000,-0.161000000000
0.791753179000,-0.161000000000
0.799440300000,-0.156000000000
0.807127421000,-0.146000000000
0.814814542000,-0.137000000000
0.822501663000,-0.122000000000
0.830188784000,-0.093000000000
0.837875905000,-0.086000000000
0.845563026000,-0.113000000000
0.853250147000,-0.129000000000
0.860937268000,-0.129000000000
0.868624389000,-0.134000000000
0.876311510000,-0.129000000000
0.883998631000,-0.120000000000
0.891685752000,-0.129000000000
0.899372873000,-0.175000000000
0.907059994000,-0.199000000000
0.914747115000,0.009000000000
0.922434236000,0.483000000000
0.930121357000,0.675000000000
0.937808478000,0.175000000000
0.945495599000,-0.471000000000
0.953182720000,-0.543000000000
0.960869841000,-0.290000000000
0.968556962000,-0.223000000000
0.976244083000,-0.204000000000
0.983931204000,-0.101000000000
0.991618325000,-0.084000000000
0.999305446000,-0.110000000000
1.006992567000,-0.086000000000
1.014679688000,-0.062000000000
1.022366809000,-0.067000000000
1.030053930000,-0.062000000000
1.037741051000,-0.050000000000
1.045428172000,-0.045000000000
1.053115293000,-0.043000000000
1.060802414000,-0.036000000000
1.068489535000,-0.026000000000
1.076176656000,-0.019000000000
1.083863777000,-0.012000000000
1.091550898000,-0.004000000000
1.099238019000,0.002000000000
1.106925140000,0.012000000000
1.114612261000,0.024000000000
1.122299446000,0.031000000000
1.129986985000,0.040000000000
1.137674524000,0.052000000000
1.145362063000,0.064000000000
1.153049602000,0.081000000000
1.160737141000,0.096000000000
1.168424680000,0.096000000000
1.176112219000,0.081000000000
1.183799758000,0.052000000000
1.191487297000,0.012000000000
1.199174836000,-0.026000000000
1.206862375000,-0.064000000000
1.214549914000,-0.096000000000
1.222237453000,-0.113000000000
1.229924992000,-0.125000000000
1.237612531000,-0.134000000000
1.245300070000,-0.139000000000
1.252987609000,-0.134000000000
1.260675148000,-0.134000000000
1.268362687000,-0.129000000000
1.276050226000,-0.120000000000
1.283737765000,-0.129000000000
1.291425304000,-0.141000000000
1.299112843000,-0.144000000000
1.306800382000,-0.139000000000
1.314487921000,-0.139000000000
1.322175460000,-0.137000000000
1.329862999000,-0.137000000000
1.337550538000,-0.141000000000
1.345238077000,-0.153000000000
1.352925616000,-0.158000000000
1.360613155000,-0.158000000000
1.368300694000,-0.151000000000
1.375988233000,-0.139000000000
1.383675772000,-0.134000000000
1.391363311000,-0.120000000000
1.399050850000,-0.093000000000
1.406738389000,-0.088000000000
1.414425928000,-0.115000000000
1.422113467000,-0.125000000000
1.429801006000,-0.117000000000
1.437488545000,-0.122000000000
1.445176084000,-0.125000000000
1.452863623000,-0.115000000000
1.460551162000,-0.122000000000
1.468238701000,-0.175000000000
1.475926240000,-0.211000000000
1.483613779000,-0.014000000000
1.491301318000,0.454000000000
1.498988857000,0.663000000000
1.506676396000,0.187000000000
1.514363935000,-0.459000000000
1.522051474000,-0.543000000000
1.529739013000,-0.286000000000
1.537426552000,-0.214000000000
1.545114091000,-0.202000000000
1.552801630000,-0.101000000000
1.560489169000,-0.076000000000
1.568176708000,-0.103000000000
1.575864247000,-0.076000000000
1.583551786000,-0.055000000000
1.591239325000,-0.067000000000
1.598926864000,-0.057000000000
1.606614403000,-0.045000000000
1.614301942000,-0.045000000000
1.621989481000,-0.040000000000
1.629677020000,-0.026000000000
1.637364559000,-0.019000000000
1.645052098000,-0.012000000000
1.652739637000,0.000000000000
1.660427176000,0.009000000000
1.668114715000,0.019000000000
1.675802254000,0.028000000000
1.683489865000,0.038000000000
1.691176986000,0.050000000000
1.698864107000,0.060000000000
1.706551228000,0.067000000000
1.714238349000,0.079000000000
1.721925470000,0.096000000000
1.729612591000,0.103000000000
1.737299712000,0.101000000000
1.744986833000,0.093000000000
1.752673954000,0.064000000000
1.760361075000,0.019000000000
1.768048196000,-0.021000000000
1.775735317000,-0.052000000000
1.783422438000,-0.088000000000
1.791109559000,-0.115000000000
1.798796680000,-0.122000000000
1.806483801000,-0.122000000000
1.814170922000,-0.127000000000
1.821858043000,-0.129000000000
1.829545164000,-0.129000000000
1.837232285000,-0.125000000000
1.844919406000,-0.122000000000
1.852606527000,-0.122000000000
1.860293648000,-0.125000000000
1.867980769000,-0.125000000000
1.875667890000,-0.122000000000
1.883355011000,-0.127000000000
1.891042132000,-0.127000000000
1.898729253000,-0.125000000000
1.906416374000,-0.129000000000
1.914103495000,-0.141000000000
1.921790616000,-0.149000000000
1.929477737000,-0.146000000000
1.937164858000,-0.139000000000
1.944851979000,-0.132000000000
1.952539100000,-0.122000000000
1.960226221000,-0.105000000000
1.967913342000,-0.084000000000
1.975600463000,-0.086000000000
1.983287584000,-0.105000000000
1.990974705000,-0.113000000000
1.998661826000,-0.115000000000
2.006348947000,-0.117000000000
2.014036068000,-0.115000000000
2.021723189000,-0.113000000000
2.029410310000,-0.120000000000
2.037097431000,-0.165000000000
2.044784552000,-0.202000000000
2.052471673000,-0.002000000000
2.060158794000,0.473000000000
2.067845915000,0.670000000000
2.075533036000,0.170000000000
2.083220157000,-0.464000000000
2.090907278000,-0.529000000000
2.098594399000,-0.281000000000
2.106281520000,-0.223000000000
2.113968641000,-0.206000000000
2.121655762000,-0.098000000000
2.129342883000,-0.074000000000
2.137030004000,-0.103000000000
2.144717125000,-0.081000000000
2.152404246000,-0.060000000000
2.160091367000,-0.060000000000
2.167778488000,-0.055000000000
2.175465609000,-0.045000000000
2.183152730000,-0.040000000000
2.190839851000,-0.038000000000
2.198526972000,-0.028000000000
2.206214093000,-0.021000000000
2.213901214000,-0.014000000000
2.221588335000,-0.004000000000
2.229275456000,0.000000000000
2.236962577000,0.004000000000
2.244649762000,0.016000000000
2.252336883000,0.031000000000
2.260024004000,0.038000000000
2.267711125000,0.045000000000
2.275398246000,0.060000000000
2.283085367000,0.076000000000
2.290772488000,0.093000000000
2.298459609000,0.096000000000
2.306146730000,0.091000000000
2.313833851000,0.079000000000
2.321520972000,0.052000000000
2.329208093000,0.004000000000
2.336895214000,-0.040000000000
2.344582335000,-0.076000000000
2.352269456000,-0.108000000000
2.359956577000,-0.127000000000
2.367643698000,-0.134000000000
2.375330819000,-0.141000000000
2.383017940000,-0.156000000000
2.390705061000,-0.153000000000
2.398392182000,-0.141000000000
2.406079303000,-0.141000000000
2.413766424000,-0.146000000000
2.421453545000,-0.139000000000
2.429140666000,-0.137000000000
2.436827787000,-0.144000000000
2.444514908000,-0.141000000000
2.452202029000,-0.134000000000
2.459889150000,-0.139000000000
2.467576271000,-0.144000000000
2.475263392000,-0.146000000000
2.482950513000,-0.156000000000
2.490637634000,-0.165000000000
2.498324755000,-0.161000000000
2.506011876000,-0.151000000000
2.513698997000,-0.144000000000
2.521386118000,-0.134000000000
2.529073239000,-0.115000000000
2.536760360000,-0.091000000000
2.544447481000,-0.098000000000
2.552134602000,-0.129000000000
2.559821723000,-0.141000000000
2.567508844000,-0.134000000000
2.575195965000,-0.129000000000
2.582883086000,-0.127000000000
2.590570207000,-0.125000000000
2.598257328000,-0.144000000000
2.605944449000,-0.202000000000
2.613631570000,-0.185000000000
2.621318691000,0.137000000000
2.629005812000,0.603000000000
2.636692933000,0.569000000000
2.644380054000,-0.084000000000
2.652067175000,-0.565000000000
2.659754296000,-0.440000000000
2.667441417000,-0.235000000000
2.675128538000,-0.233000000000
2.682815659000,-0.173000000000
2.690502780000,-0.084000000000
2.698189901000,-0.096000000000
2.705877022000,-0.105000000000
2.713564143000,-0.074000000000
2.721251264000,-0.069000000000
2.728938385000,-0.072000000000
2.736625506000,-0.052000000000
2.744312627000,-0.043000000000
2.751999748000,-0.045000000000
2.759686869000,-0.040000000000
2.767373990000,-0.028000000000
2.775061111000,-0.024000000000
2.782748232000,-0.019000000000
2.790435353000,-0.007000000000
2.798122474000,0.004000000000
2.805809659000,0.012000000000
2.813496780000,0.019000000000
2.821183901000,0.036000000000
2.828871022000,0.048000000000
2.836558143000,0.057000000000
2.844245264000,0.069000000000
2.851932385000,0.084000000000
2.859619506000,0.093000000000
2.867306627000,0.101000000000
2.874993748000,0.098000000000
2.882680869000,0.076000000000
2.890367990000,0.038000000000
2.898055111000,-0.004000000000
2.905742232000,-0.048000000000
2.913429353000,-0.086000000000
2.921116474000,-0.110000000000
2.928803595000,-0.125000000000
2.936490716000,-0.137000000000
2.944177837000,-0.144000000000
2.951864958000,-0.141000000000
2.959552079000,-0.139000000000
2.967239200000,-0.139000000000
2.974926321000,-0.137000000000
2.982613442000,-0.137000000000
2.990300563000,-0.134000000000
2.997987684000,-0.134000000000
3.005674805000,-0.134000000000
3.013361926000,-0.137000000000
3.021049047000,-0.139000000000
3.028736168000,-0.139000000000
3.036423289000,-0.139000000000
3.044110410000,-0.149000000000
3.051797531000,-0.158000000000
3.059484652000,-0.161000000000
3.067171773000,-0.158000000000
3.074858894000,-0.146000000000
3.082546015000,-0.134000000000
3.090233136000,-0.127000000000
3.097920257000,-0.108000000000
3.105607378000,-0.091000000000
3.113294499000,-0.110000000000
3.120981620000,-0.134000000000
3.128668741000,-0.132000000000
3.136355862000,-0.132000000000
3.144042983000,-0.137000000000
3.151730104000,-0.134000000000
3.159417225000,-0.129000000000
3.167104346000,-0.158000000000
3.174791467000,-0.221000000000
3.182478588000,-0.149000000000
3.190165709000,0.259000000000
3.197852830000,0.666000000000
3.205539951000,0.447000000000
3.213227072000,-0.252000000000
3.220914193000,-0.598000000000
3.228601314000,-0.399000000000
3.236288435000,-0.240000000000
3.243975556000,-0.247000000000
3.251662677000,-0.168000000000
3.259349798000,-0.093000000000
3.267036919000,-0.115000000000
3.274724040000,-0.117000000000
3.282411161000,-0.088000000000
3.290098282000,-0.081000000000
3.297785403000,-0.076000000000
3.305472524000,-0.067000000000
3.313159645000,-0.064000000000
3.320846766000,-0.062000000000
3.328533887000,-0.048000000000
3.336221008000,-0.040000000000
3.343908129000,-0.038000000000
3.351595250000,-0.024000000000
3.359282371000,-0.007000000000
3.366969556000,0.000000000000
3.374656677000,0.007000000000
3.382343798000,0.021000000000
3.390030919000,0.031000000000
3.397718040000,0.036000000000
3.405405161000,0.050000000000
3.413092282000,0.064000000000
3.420779403000,0.076000000000
3.428466524000,0.088000000000
3.436153645000,0.096000000000
3.443840766000,0.086000000000
3.451527887000,0.057000000000
3.459215008000,0.016000000000
3.466902129000,-0.028000000000
3.474589250000,-0.072000000000
3.482276371000,-0.105000000000
3.489963492000,-0.134000000000
3.497650613000,-0.153000000000
3.505337734000,-0.153000000000
3.513024855000,-0.153000000000
3.520711976000,-0.158000000000
3.528399097000,-0.158000000000
3.536086218000,-0.156000000000
3.543773339000,-0.156000000000
3.551460460000,-0.156000000000
3.559147581000,-0.158000000000
3.566834702000,-0.158000000000
3.574521823000,-0.156000000000
3.582208944000,-0.156000000000
3.589896065000,-0.156000000000
3.597583186000,-0.156000000000
3.605270307000,-0.163000000000
3.612957428000,-0.170000000000
3.620644549000,-0.175000000000
3.628331670000,-0.180000000000
3.636018791000,-0.177000000000
3.643705912000,-0.170000000000
3.651393033000,-0.163000000000
3.659080154000,-0.156000000000
3.666767275000,-0.134000000000
3.674454396000,-0.120000000000
3.682141517000,-0.137000000000
3.689828638000,-0.153000000000
3.697515759000,-0.156000000000
3.705202880000,-0.156000000000
3.712890001000,-0.149000000000
3.720577122000,-0.139000000000
3.728264243000,-0.151000000000
3.735951364000,-0.189000000000
3.743638485000,-0.209000000000
3.751325606000,-0.033000000000
3.759012727000,0.435000000000
3.766699848000,0.692000000000
3.774386969000,0.197000000000
3.782074090000,-0.526000000000
3.789761211000,-0.649000000000
3.797448332000,-0.375000000000
3.805135453000,-0.288000000000
3.812822574000,-0.276000000000
3.820509695000,-0.153000000000
3.828196816000,-0.096000000000
3.835883937000,-0.122000000000
3.843571058000,-0.105000000000
3.851258179000,-0.074000000000
3.858945300000,-0.076000000000
3.866632421000,-0.072000000000
3.874319542000,-0.060000000000
3.882006663000,-0.060000000000
3.889693784000,-0.055000000000
3.897380905000,-0.031000000000
3.905068026000,-0.016000000000
3.912755147000,-0.016000000000
3.920442268000,-0.007000000000
3.928129453000,0.009000000000
3.935816574000,0.024000000000
3.943503695000,0.036000000000
3.951190816000,0.055000000000
3.958877937000,0.072000000000
3.966565058000,0.086000000000
3.974252179000,0.103000000000
3.981939300000,0.117000000000
3.989626421000,0.134000000000
3.997313542000,0.149000000000
4.005000663000,0.149000000000
4.012687784000,0.132000000000
4.020374905000,0.098000000000
4.028062026000,0.043000000000
4.035749147000,-0.019000000000
4.043436268000,-0.072000000000
4.051123389000,-0.113000000000
4.058810510000,-0.144000000000
4.066497631000,-0.158000000000
4.074184752000,-0.168000000000
4.081871873000,-0.168000000000
4.089558994000,-0.163000000000
4.097246115000,-0.161000000000
4.104933236000,-0.161000000000
4.112620357000,-0.153000000000
4.120307478000,-0.149000000000
4.127994599000,-0.153000000000
4.135681720000,-0.156000000000
4.143368841000,-0.153000000000
4.151055962000,-0.151000000000
4.158743083000,-0.149000000000
4.166430204000,-0.156000000000
4.174117325000,-0.173000000000
4.181804446000,-0.177000000000
4.189491567000,-0.173000000000
4.197178688000,-0.170000000000
4.204865809000,-0.168000000000
4.212552930000,-0.161000000000
4.220240051000,-0.156000000000
4.227927172000,-0.139000000000
4.235614293000,-0.117000000000
4.243301414000,-0.120000000000
4.250988535000,-0.137000000000
4.258675656000,-0.144000000000
4.266362777000,-0.141000000000
4.274049898000,-0.141000000000
4.281737019000,-0.139000000000
4.289424140000,-0.132000000000
4.297111261000,-0.144000000000
4.304798382000,-0.187000000000
4.312485503000,-0.175000000000
4.320172624000,0.129000000000
4.327859745000,0.618000000000
4.335546866000,0.613000000000
4.343233987000,-0.091000000000
4.350921108000,-0.661000000000
4.358608229000,-0.545000000000
4.366295350000,-0.286000000000
4.373982471000,-0.266000000000
4.381669592000,-0.209000000000
4.389356713000,-0.081000000000
4.397043834000,-0.069000000000
4.404730955000,-0.088000000000
4.412418076000,-0.055000000000
4.420105197000,-0.038000000000
4.427792318000,-0.048000000000
4.435479439000,-0.038000000000
4.443166560000,-0.028000000000
4.450853681000,-0.024000000000
4.458540802000,-0.014000000000
4.466227923000,-0.002000000000
4.473915044000,0.002000000000
4.481602165000,0.012000000000
4.489289350000,0.026000000000
4.496976471000,0.033000000000
4.504663592000,0.043000000000
4.512350713000,0.062000000000
4.520037834000,0.072000000000
4.527724955000,0.076000000000
4.535412076000,0.086000000000
4.543099197000,0.103000000000
4.550786318000,0.115000000000
4.558473439000,0.127000000000
4.566160560000,0.139000000000
4.573847681000,0.139000000000
4.581534802000,0.127000000000
4.589221923000,0.091000000000
4.596909044000,0.036000000000
4.604596165000,-0.016000000000
4.612283286000,-0.060000000000
4.619970407000,-0.093000000000
4.627657528000,-0.117000000000
4.635344649000,-0.127000000000
4.643031770000,-0.129000000000
4.650718891000,-0.132000000000
4.658406012000,-0.132000000000
4.666093133000,-0.125000000000
4.673780254000,-0.117000000000
4.681467375000,-0.120000000000
4.689154496000,-0.132000000000
4.696841617000,-0.127000000000
4.704528738000,-0.115000000000
4.712215859000,-0.120000000000
4.719902980000,-0.125000000000
4.727590101000,-0.122000000000
4.735277222000,-0.122000000000
4.742964343000,-0.134000000000
4.750651464000,-0.144000000000
4.758338585000,-0.149000000000
4.766025706000,-0.151000000000
4.773712827000,-0.146000000000
4.781399948000,-0.134000000000
4.789087069000,-0.129000000000
4.796774190000,-0.122000000000
4.804461311000,-0.093000000000
4.812148432000,-0.081000000000
4.819835553000,-0.110000000000
4.827522674000,-0.129000000000
4.835209795000,-0.120000000000
4.842896916000,-0.115000000000
4.850584037000,-0.120000000000
4.858271158000,-0.115000000000
4.865958279000,-0.115000000000
4.873645400000,-0.161000000000
4.881332521000,-0.228000000000
4.889019642000,-0.105000000000
4.896706763000,0.370000000000
4.904393884000,0.800000000000
4.912081005000,0.574000000000
4.919768126000,-0.134000000000
4.927455247000,-0.485000000000
4.935142368000,-0.298000000000
4.942829489000,-0.180000000000
4.950516610000,-0.214000000000
4.958203731000,-0.139000000000
4.965890852000,-0.086000000000
4.973577973000,-0.115000000000
4.981265094000,-0.101000000000
4.988952215000,-0.067000000000
4.996639336000,-0.072000000000
5.004326457000,-0.076000000000
5.012013578000,-0.060000000000
5.019700699000,-0.050000000000
5.027387820000,-0.050000000000
5.035074941000,-0.040000000000
5.042762062000,-0.028000000000
5.050449251000,-0.028000000000
5.058136512000,-0.028000000000
5.065823773000,-0.016000000000
5.073511034000,-0.009000000000
5.081198295000,-0.012000000000
5.088885556000,-0.007000000000
5.096572817000,0.004000000000
5.104260078000,0.004000000000
5.111947339000,-0.004000000000
5.119634600000,-0.007000000000
5.127321861000,0.000000000000
5.135009122000,0.000000000000
5.142696383000,0.002000000000
5.150383644000,0.007000000000
5.158070905000,0.007000000000
5.165758166000,-0.009000000000
5.173445427000,-0.031000000000
5.181132688000,-0.050000000000
5.188819949000,-0.076000000000
5.196507210000,-0.091000000000
5.204194471000,-0.096000000000
5.211881732000,-0.103000000000
5.219568993000,-0.105000000000
5.227256254000,-0.098000000000
5.234943515000,-0.098000000000
5.242630776000,-0.103000000000
5.250318037000,-0.098000000000
5.258005298000,-0.101000000000
5.265692559000,-0.103000000000
5.273379820000,-0.101000000000
5.281067081000,-0.105000000000
5.288754342000,-0.108000000000
5.296441603000,-0.101000000000
5.304128864000,-0.101000000000
5.311816125000,-0.105000000000
5.319503386000,-0.108000000000
5.327190647000,-0.108000000000
5.334877908000,-0.115000000000
5.342565169000,-0.122000000000
5.350252430000,-0.127000000000
5.357939691000,-0.132000000000
5.365626952000,-0.132000000000
5.373314213000,-0.120000000000
5.381001474000,-0.108000000000
5.388688735000,-0.098000000000
5.396375996000,-0.076000000000
5.404063257000,-0.064000000000
5.411750518000,-0.084000000000
5.419437779000,-0.105000000000
5.427125040000,-0.103000000000
5.434812301000,-0.101000000000
5.442499562000,-0.103000000000
5.450186823000,-0.101000000000
5.457874084000,-0.101000000000
5.465561345000,-0.122000000000
5.473248606000,-0.185000000000
5.480935867000,-0.153000000000
5.488623128000,0.211000000000
5.496310389000,0.728000000000
5.503997650000,0.733000000000
5.511684911000,0.086000000000
5.519372172000,-0.459000000000
5.527059433000,-0.411000000000
5.534746694000,-0.223000000000
5.542433955000,-0.221000000000
5.550121216000,-0.175000000000
5.557808477000,-0.096000000000
5.565495738000,-0.103000000000
5.573182999000,-0.110000000000
5.580870260000,-0.084000000000
5.588557521000,-0.076000000000
5.596244782000,-0.074000000000
5.603932043000,-0.064000000000
5.611619322000,-0.060000000000
5.619306513000,-0.052000000000
5.626993704000,-0.045000000000
5.634680895000,-0.040000000000
5.642368086000,-0.033000000000
5.650055277000,-0.021000000000
5.657742468000,-0.012000000000
5.665429659000,-0.007000000000
5.673116850000,0.000000000000
5.680804041000,0.007000000000
5.688491232000,0.009000000000
5.696178423000,0.016000000000
5.703865614000,0.016000000000
5.711552805000,0.012000000000
5.719239996000,0.012000000000
5.726927187000,0.021000000000
5.734614378000,0.028000000000
5.742301569000,0.024000000000
5.749988760000,0.021000000000
5.757675951000,0.016000000000
5.765363142000,-0.009000000000
5.773050333000,-0.043000000000
5.780737524000,-0.069000000000
5.788424715000,-0.088000000000
5.796111906000,-0.101000000000
5.803799097000,-0.115000000000
5.811486288000,-0.125000000000
5.819173479000,-0.125000000000
5.826860670000,-0.120000000000
5.834547861000,-0.115000000000
5.842235052000,-0.113000000000
5.849922243000,-0.117000000000
5.857609434000,-0.117000000000
5.865296625000,-0.113000000000
5.872983816000,-0.110000000000
5.880671007000,-0.117000000000
5.888358198000,-0.122000000000
5.896045389000,-0.120000000000
5.903732580000,-0.120000000000
5.911419771000,-0.122000000000
5.919106962000,-0.120000000000
5.926794153000,-0.127000000000
5.934481344000,-0.134000000000
5.942168535000,-0.129000000000
5.949855726000,-0.132000000000
5.957542917000,-0.137000000000
5.965230108000,-0.132000000000
5.972917299000,-0.137000000000
5.980604490000,-0.153000000000
5.988291681000,-0.149000000000
5.995978872000,-0.139000000000
6.003666063000,-0.134000000000
6.011353254000,-0.125000000000
6.019040445000,-0.113000000000
6.026727636000,-0.096000000000
6.034414827000,-0.081000000000
6.042102018000,-0.093000000000
6.049789209000,-0.113000000000
6.057476400000,-0.115000000000
6.065163591000,-0.117000000000
6.072850782000,-0.122000000000
6.080537973000,-0.113000000000
6.088225164000,-0.108000000000
6.095912355000,-0.129000000000
6.103599546000,-0.165000000000
6.111286737000,-0.093000000000
6.118973928000,0.300000000000
6.126661119000,0.781000000000
6.134348310000,0.661000000000
6.142035501000,-0.093000000000
6.149722692000,-0.596000000000
6.157409883000,-0.456000000000
6.165097074000,-0.269000000000
6.172784306000,-0.283000000000
6.180471218000,-0.211000000000
6.188158130000,-0.108000000000
6.195845042000,-0.120000000000
6.203531954000,-0.129000000000
6.211218866000,-0.096000000000
6.218905778000,-0.079000000000
6.226592690000,-0.076000000000
6.234279602000,-0.069000000000
6.241966514000,-0.064000000000
6.249653426000,-0.057000000000
6.257340338000,-0.043000000000
6.265027250000,-0.033000000000
6.272714162000,-0.024000000000
6.280401074000,-0.014000000000
6.288087986000,-0.004000000000
6.295774898000,0.012000000000
6.303461810000,0.026000000000
6.311148722000,0.031000000000
6.318835634000,0.040000000000
6.326522546000,0.055000000000
6.334209458000,0.064000000000
6.341896370000,0.079000000000
6.349583282000,0.093000000000
6.357270194000,0.105000000000
6.364957106000,0.110000000000
6.372644018000,0.115000000000
6.380330930000,0.110000000000
6.388017842000,0.072000000000
6.395704754000,0.026000000000
6.403391666000,-0.019000000000
6.411078578000,-0.067000000000
6.418765490000,-0.105000000000
6.426452402000,-0.125000000000
6.434139314000,-0.139000000000
6.441826226000,-0.151000000000
6.449513138000,-0.158000000000
6.457200050000,-0.156000000000
6.464886962000,-0.146000000000
6.472573874000,-0.144000000000
6.480260786000,-0.146000000000
6.487947698000,-0.146000000000
6.495634610000,-0.141000000000
6.503321522000,-0.137000000000
6.511008434000,-0.132000000000
6.518695346000,-0.139000000000
6.526382258000,-0.149000000000
6.534069170000,-0.149000000000
6.541756082000,-0.146000000000
6.549442994000,-0.146000000000
6.557129906000,-0.149000000000
6.564816818000,-0.153000000000
6.572503730000,-0.153000000000
6.580190642000,-0.149000000000
6.587877554000,-0.149000000000
6.595564466000,-0.158000000000
6.603251378000,-0.161000000000
6.610938290000,-0.158000000000
6.618625202000,-0.158000000000
6.626312114000,-0.163000000000
6.633999026000,-0.156000000000
6.641685938000,-0.141000000000
6.649372850000,-0.134000000000
6.657059762000,-0.115000000000
6.664746674000,-0.093000000000
6.672433586000,-0.105000000000
6.680120498000,-0.125000000000
6.687807410000,-0.122000000000
6.695494322000,-0.120000000000
6.703181234000,-0.125000000000
6.710868146000,-0.120000000000
6.718555058000,-0.113000000000
6.726241970000,-0.125000000000
6.733928942000,-0.151000000000
6.741616063000,-0.088000000000
6.749303184000,0.271000000000
6.756990305000,0.762000000000
6.764677426000,0.709000000000
6.772364547000,-0.031000000000
6.780051668000,-0.603000000000
6.787738789000,-0.500000000000
6.795425910000,-0.276000000000
6.803113031000,-0.278000000000
6.810800152000,-0.223000000000
6.818487273000,-0.108000000000
6.826174394000,-0.105000000000
6.833861515000,-0.117000000000
6.841548636000,-0.079000000000
6.849235757000,-0.060000000000
6.856922878000,-0.067000000000
6.864609999000,-0.062000000000
6.872297120000,-0.045000000000
6.879984241000,-0.040000000000
6.887671362000,-0.031000000000
6.895358483000,-0.016000000000
6.903045604000,-0.007000000000
6.910732725000,0.000000000000
6.918419846000,0.014000000000
6.926106967000,0.028000000000
6.933794088000,0.036000000000
6.941481209000,0.048000000000
6.949168330000,0.064000000000
6.956855451000,0.072000000000
6.964542572000,0.074000000000
6.972229693000,0.086000000000
6.979916814000,0.098000000000
6.987603935000,0.105000000000
6.995291056000,0.115000000000
7.002978177000,0.122000000000
7.010665298000,0.113000000000
7.018352419000,0.086000000000
7.026039540000,0.048000000000
7.033726661000,-0.004000000000
7.041413782000,-0.052000000000
7.049100903000,-0.086000000000
7.056788024000,-0.110000000000
7.064475145000,-0.125000000000
7.072162266000,-0.127000000000
7.079849387000,-0.129000000000
7.087536508000,-0.134000000000
7.095223629000,-0.132000000000
7.102910750000,-0.122000000000
7.110597871000,-0.125000000000
7.118284992000,-0.129000000000
7.125972113000,-0.127000000000
7.133659234000,-0.122000000000
7.141346355000,-0.127000000000
7.149033476000,-0.127000000000
7.156720597000,-0.125000000000
7.164407718000,-0.127000000000
7.172094839000,-0.134000000000
7.179781960000,-0.137000000000
7.187469081000,-0.134000000000
7.195156202000,-0.137000000000
7.202843323000,-0.139000000000
7.210530444000,-0.137000000000
7.218217565000,-0.137000000000
7.225904686000,-0.137000000000
7.233591807000,-0.137000000000
7.241278928000,-0.134000000000
7.248966049000,-0.137000000000
7.256653170000,-0.144000000000
7.264340291000,-0.149000000000
7.272027412000,-0.149000000000
7.279714533000,-0.149000000000
7.287401654000,-0.137000000000
7.295088839000,-0.127000000000
7.302776378000,-0.117000000000
7.310463917000,-0.093000000000
7.318151456000,-0.076000000000
7.325838995000,-0.096000000000
7.333526534000,-0.120000000000
7.341214073000,-0.117000000000
7.348901612000,-0.115000000000
7.356589151000,-0.115000000000
7.364276690000,-0.110000000000
7.371964229000,-0.108000000000
7.379651768000,-0.122000000000
7.387339307000,-0.158000000000
7.395026846000,-0.093000000000
7.402714385000,0.283000000000
7.410401924000,0.774000000000
7.418089463000,0.750000000000
7.425777002000,0.076000000000
7.433464541000,-0.495000000000
7.441152080000,-0.442000000000
7.448839619000,-0.242000000000
7.456527158000,-0.252000000000
7.464214697000,-0.211000000000
7.471902236000,-0.115000000000
7.479589775000,-0.120000000000
7.487277314000,-0.127000000000
7.494964853000,-0.096000000000
7.502652392000,-0.091000000000
7.510339931000,-0.088000000000
7.518027470000,-0.067000000000
7.525715009000,-0.057000000000
7.533402548000,-0.064000000000
7.541090087000,-0.055000000000
7.548777626000,-0.036000000000
7.556465165000,-0.033000000000
7.564152704000,-0.028000000000
7.571840243000,-0.016000000000
7.579527782000,-0.004000000000
7.587215321000,0.000000000000
7.594902860000,0.007000000000
7.602590399000,0.012000000000
7.610277938000,0.019000000000
7.617965477000,0.021000000000
7.625653016000,0.019000000000
7.633340555000,0.016000000000
7.641028094000,0.019000000000
7.648715633000,0.026000000000
7.656403172000,0.024000000000
7.664090711000,0.019000000000
7.671778250000,0.014000000000
7.679465789000,-0.004000000000
7.687153328000,-0.028000000000
7.694840867000,-0.057000000000
7.702528406000,-0.084000000000
7.710215945000,-0.103000000000
7.717903484000,-0.113000000000
7.725591023000,-0.120000000000
7.733278562000,-0.120000000000
7.740966101000,-0.117000000000
7.748653640000,-0.120000000000
7.756341179000,-0.122000000000
7.764028718000,-0.117000000000
7.771716257000,-0.113000000000
7.779403796000,-0.113000000000
7.787091335000,-0.115000000000
7.794778874000,-0.115000000000
7.802466413000,-0.117000000000
7.810153952000,-0.120000000000
7.817841491000,-0.120000000000
7.825529030000,-0.125000000000
7.833216569000,-0.127000000000
7.840904108000,-0.122000000000
7.848591647000,-0.125000000000
7.856279258000,-0.129000000000
7.863966379000,-0.129000000000
7.871653500000,-0.127000000000
7.879340621000,-0.127000000000
7.887027742000,-0.129000000000
7.894714863000,-0.127000000000
7.902401984000,-0.125000000000
7.910089105000,-0.125000000000
7.917776226000,-0.122000000000
7.925463347000,-0.120000000000
7.933150468000,-0.122000000000
7.940837589000,-0.122000000000
7.948524710000,-0.120000000000
7.956211831000,-0.125000000000
7.963898952000,-0.134000000000
7.971586073000,-0.137000000000
7.979273194000,-0.129000000000
7.986960315000,-0.115000000000
7.994647436000,-0.103000000000
8.002334557000,-0.093000000000
8.010021678000,-0.074000000000
8.017708799000,-0.067000000000
8.025395920000,-0.086000000000
8.033083041000,-0.098000000000
8.040770162000,-0.096000000000
8.048457283000,-0.098000000000
8.056144404000,-0.098000000000
8.063831525000,-0.093000000000
8.071518646000,-0.093000000000
8.079205767000,-0.115000000000
8.086892888000,-0.146000000000
8.094580009000,-0.033000000000
8.102267130000,0.391000000000
8.109954251000,0.822000000000
8.117641372000,0.654000000000
8.125328493000,-0.072000000000
8.133015614000,-0.538000000000
8.140702735000,-0.399000000000
8.148389856000,-0.223000000000
8.156076977000,-0.235000000000
8.163764098000,-0.173000000000
8.171451219000,-0.093000000000
8.179138340000,-0.110000000000
8.186825461000,-0.113000000000
8.194512582000,-0.081000000000
8.202199703000,-0.074000000000
8.209886824000,-0.072000000000
8.217573945000,-0.057000000000
8.225261066000,-0.055000000000
8.232948187000,-0.055000000000
8.240635308000,-0.040000000000
8.248322429000,-0.031000000000
8.256009550000,-0.028000000000
8.263696671000,-0.021000000000
8.271383792000,-0.009000000000
8.279070913000,0.000000000000
8.286758034000,0.007000000000
8.294445155000,0.014000000000
8.302132276000,0.021000000000
8.309819397000,0.019000000000
8.317506518000,0.016000000000
8.325193639000,0.019000000000
8.332880760000,0.019000000000
8.340567881000,0.016000000000
8.348255002000,0.019000000000
8.355942123000,0.026000000000
8.363629244000,0.026000000000
8.371316365000,0.012000000000
8.379003486000,-0.004000000000
8.386690607000,-0.026000000000
8.394377728000,-0.057000000000
8.402064849000,-0.086000000000
8.409751970000,-0.103000000000
8.417439155000,-0.115000000000
8.425126276000,-0.122000000000
8.432813397000,-0.125000000000
8.440500518000,-0.122000000000
8.448187639000,-0.120000000000
8.455874760000,-0.120000000000
8.463561881000,-0.122000000000
8.471249002000,-0.120000000000
8.478936123000,-0.120000000000
8.486623244000,-0.120000000000
8.494310365000,-0.122000000000
8.501997486000,-0.122000000000
8.509684607000,-0.122000000000
8.517371728000,-0.125000000000
8.525058849000,-0.129000000000
8.532745970000,-0.129000000000
8.540433091000,-0.129000000000
8.548120212000,-0.129000000000
8.555807333000,-0.132000000000
8.563494454000,-0.134000000000
8.571181575000,-0.132000000000
8.578868696000,-0.132000000000
8.586555817000,-0.132000000000
8.594242938000,-0.129000000000
8.601930059000,-0.129000000000
8.609617180000,-0.127000000000
8.617304301000,-0.125000000000
8.624991422000,-0.122000000000
8.632678543000,-0.122000000000
8.640365664000,-0.122000000000
8.648052785000,-0.122000000000
8.655739906000,-0.127000000000
8.663427027000,-0.132000000000
8.671114148000,-0.134000000000
8.678801269000,-0.134000000000
8.686488390000,-0.125000000000
8.694175511000,-0.110000000000
8.701862632000,-0.103000000000
8.709549753000,-0.086000000000
8.717236874000,-0.072000000000
8.724923995000,-0.084000000000
8.732611116000,-0.105000000000
8.740298237000,-0.110000000000
8.747985358000,-0.105000000000
8.755672479000,-0.105000000000
8.763359600000,-0.101000000000
8.771046721000,-0.098000000000
8.778733842000,-0.110000000000
8.786420963000,-0.134000000000
8.794108084000,-0.113000000000
8.801795205000,0.153000000000
8.809482326000,0.649000000000
8.817169447000,0.815000000000
8.824856568000,0.276000000000
8.832543689000,-0.408000000000
8.840230810000,-0.517000000000
8.847917931000,-0.288000000000
8.855605052000,-0.230000000000
8.863292173000,-0.211000000000
8.870979294000,-0.117000000000
8.878666415000,-0.103000000000
8.886353536000,-0.122000000000
8.894040657000,-0.093000000000
8.901727778000,-0.072000000000
8.909414899000,-0.074000000000
8.917102020000,-0.069000000000
8.924789141000,-0.057000000000
8.932476262000,-0.055000000000
8.940163383000,-0.050000000000
8.947850504000,-0.043000000000
8.955537625000,-0.036000000000
8.963224746000,-0.031000000000
8.970911867000,-0.021000000000
8.978599052000,-0.007000000000
8.986285964000,0.000000000000
8.993972876000,0.002000000000
9.001659788000,0.009000000000
9.009346700000,0.016000000000
9.017033612000,0.009000000000
9.024720524000,0.007000000000
9.032407436000,0.012000000000
9.040094348000,0.012000000000
9.047781260000,0.014000000000
9.055468172000,0.019000000000
9.063155084000,0.016000000000
9.070841996000,0.009000000000
9.078528908000,0.000000000000
9.086215820000,-0.026000000000
9.093902732000,-0.062000000000
9.101589644000,-0.091000000000
9.109276556000,-0.108000000000
9.116963468000,-0.122000000000
9.124650380000,-0.132000000000
9.132337292000,-0.144000000000
9.140024204000,-0.146000000000
9.147711116000,-0.139000000000
9.155398028000,-0.137000000000
9.163084940000,-0.139000000000
9.170771852000,-0.134000000000
9.178458764000,-0.132000000000
9.186145676000,-0.137000000000
9.193832588000,-0.137000000000
9.201519500000,-0.129000000000
9.209206412000,-0.134000000000
9.216893324000,-0.144000000000
9.224580236000,-0.144000000000
9.232267148000,-0.139000000000
9.239954060000,-0.137000000000
9.247640972000,-0.139000000000
9.255327884000,-0.146000000000
9.263014796000,-0.146000000000
9.270701708000,-0.141000000000
9.278388620000,-0.151000000000
9.286075532000,-0.158000000000
9.293762444000,-0.153000000000
9.301449356000,-0.144000000000
9.309136268000,-0.141000000000
9.316823180000,-0.149000000000
9.324510092000,-0.149000000000
9.332197004000,-0.149000000000
9.339883916000,-0.161000000000
9.347570828000,-0.163000000000
9.355257740000,-0.153000000000
9.362944652000,-0.137000000000
9.370631564000,-0.127000000000
9.378318476000,-0.113000000000
9.386005388000,-0.098000000000
9.393692300000,-0.105000000000
9.401379212000,-0.125000000000
9.409066124000,-0.129000000000
9.416753036000,-0.125000000000
9.424439948000,-0.129000000000
9.432126860000,-0.127000000000
9.439813772000,-0.117000000000
9.447500684000,-0.127000000000
9.455187596000,-0.144000000000
9.462874508000,-0.072000000000
9.470561420000,0.274000000000
9.478248332000,0.740000000000
9.485935244000,0.682000000000
9.493622156000,-0.050000000000
9.501309068000,-0.613000000000
9.508995980000,-0.502000000000
9.516682892000,-0.281000000000
9.524369804000,-0.288000000000
9.532056716000,-0.230000000000
9.539743692000,-0.115000000000
9.547430883000,-0.105000000000
9.555118074000,-0.127000000000
9.562805265000,-0.105000000000
9.570492456000,-0.086000000000
9.578179647000,-0.079000000000
9.585866838000,-0.069000000000
9.593554029000,-0.060000000000
9.601241220000,-0.048000000000
9.608928411000,-0.040000000000
9.616615602000,-0.036000000000
9.624302793000,-0.026000000000
9.631989984000,-0.009000000000
9.639677175000,0.002000000000
9.647364366000,0.014000000000
9.655051557000,0.031000000000
9.662738748000,0.043000000000
9.670425939000,0.052000000000
9.678113130000,0.072000000000
9.685800321000,0.086000000000
9.693487512000,0.093000000000
9.701174703000,0.103000000000
9.708861894000,0.117000000000
9.716549085000,0.127000000000
9.724236276000,0.129000000000
9.731923467000,0.120000000000
9.739610658000,0.091000000000
9.747297849000,0.045000000000
9.754985040000,-0.009000000000
9.762672231000,-0.062000000000
9.770359422000,-0.098000000000
9.778046613000,-0.120000000000
9.785733804000,-0.137000000000
9.793420995000,-0.149000000000
9.801108186000,-0.149000000000
9.808795377000,-0.141000000000
9.816482568000,-0.141000000000
9.824169759000,-0.141000000000
9.831856950000,-0.129000000000
9.839544141000,-0.125000000000
9.847231332000,-0.127000000000
9.854918523000,-0.125000000000
9.862605714000,-0.125000000000
9.870292905000,-0.129000000000
9.877980096000,-0.127000000000
9.885667287000,-0.132000000000
9.893354478000,-0.139000000000
9.901041669000,-0.137000000000
9.908728860000,-0.134000000000
9.916416051000,-0.139000000000
9.924103242000,-0.141000000000
9.931790433000,-0.139000000000
9.939477624000,-0.141000000000
9.947164815000,-0.144000000000
9.954852006000,-0.141000000000
9.962539197000,-0.141000000000
9.970226388000,-0.146000000000
9.977913579000,-0.146000000000
9.985600770000,-0.151000000000
9.993287961000,-0.161000000000
10.000975152000,-0.161000000000
10.008662343000,-0.146000000000
10.016349534000,-0.137000000000
10.024036725000,-0.137000000000
10.031723916000,-0.115000000000
10.039411107000,-0.088000000000
10.047098298000,-0.098000000000
10.054785489000,-0.120000000000
10.062472680000,-0.122000000000
10.070159871000,-0.120000000000
10.077847062000,-0.120000000000
10.085534253000,-0.115000000000
10.093221444000,-0.110000000000
10.100908676000,-0.120000000000
10.108595519000,-0.153000000000
10.116282362000,-0.149000000000
10.123969205000,0.098000000000
10.131656048000,0.613000000000
10.139342891000,0.846000000000
10.147029734000,0.346000000000
10.154716577000,-0.391000000000
10.162403420000,-0.557000000000
10.170090263000,-0.307000000000
10.177777106000,-0.230000000000
10.185463949000,-0.233000000000
10.193150792000,-0.132000000000
10.200837635000,-0.101000000000
10.208524478000,-0.127000000000
10.216211321000,-0.105000000000
10.223898164000,-0.079000000000
10.231585007000,-0.081000000000
10.239271850000,-0.074000000000
10.246958693000,-0.062000000000
10.254645536000,-0.055000000000
10.262332379000,-0.052000000000
10.270019222000,-0.043000000000
10.277706065000,-0.036000000000
10.285392908000,-0.028000000000
10.293079751000,-0.019000000000
10.300766594000,-0.012000000000
10.308453437000,-0.002000000000
10.316140280000,0.007000000000
10.323827123000,0.016000000000
10.331513966000,0.024000000000
10.339200809000,0.031000000000
10.346887652000,0.028000000000
10.354574495000,0.028000000000
10.362261338000,0.033000000000
10.369948181000,0.040000000000
10.377635024000,0.043000000000
10.385321867000,0.043000000000
10.393008710000,0.033000000000
10.400695553000,0.014000000000
10.408382396000,-0.016000000000
10.416069239000,-0.057000000000
10.423756082000,-0.088000000000
10.431442925000,-0.108000000000
10.439129768000,-0.122000000000
10.446816611000,-0.129000000000
10.454503454000,-0.132000000000
10.462190297000,-0.132000000000
10.469877140000,-0.132000000000
10.477563983000,-0.132000000000
10.485250826000,-0.125000000000
10.492937669000,-0.122000000000
10.500624512000,-0.125000000000
10.508311355000,-0.122000000000
10.515998198000,-0.122000000000
10.523685041000,-0.129000000000
10.531371884000,-0.129000000000
10.539058727000,-0.129000000000
10.546745570000,-0.134000000000
10.554432413000,-0.139000000000
10.562119256000,-0.137000000000
10.569806099000,-0.137000000000
10.577492942000,-0.137000000000
10.585179785000,-0.137000000000
10.592866628000,-0.137000000000
10.600553471000,-0.139000000000
10.608240314000,-0.134000000000
10.615927157000,-0.137000000000
10.623614000000,-0.146000000000
10.631300843000,-0.151000000000
10.638987686000,-0.151000000000
10.646674529000,-0.146000000000
10.654361372000,-0.141000000000
10.662048225000,-0.132000000000
10.669735346000,-0.122000000000
10.677422467000,-0.098000000000
10.685109588000,-0.084000000000
10.692796709000,-0.098000000000
10.700483830000,-0.117000000000
10.708170951000,-0.122000000000
10.715858072000,-0.120000000000
10.723545193000,-0.117000000000
10.731232314000,-0.108000000000
10.738919435000,-0.110000000000
10.746606556000,-0.127000000000
10.754293677000,-0.163000000000
10.761980798000,-0.149000000000
10.769667919000,0.137000000000
10.777355040000,0.654000000000
10.785042161000,0.827000000000
10.792729282000,0.293000000000
10.800416403000,-0.372000000000
10.808103524000,-0.473000000000
10.815790645000,-0.269000000000
10.823477766000,-0.233000000000
10.831164887000,-0.216000000000
10.838852008000,-0.132000000000
10.846539129000,-0.117000000000
10.854226250000,-0.132000000000
10.861913371000,-0.110000000000
10.869600492000,-0.093000000000
10.877287613000,-0.096000000000
10.884974734000,-0.086000000000
10.892661855000,-0.072000000000
10.900348976000,-0.064000000000
10.908036097000,-0.060000000000
10.915723218000,-0.052000000000
10.923410339000,-0.048000000000
10.931097460000,-0.038000000000
10.938784581000,-0.031000000000
10.946471702000,-0.026000000000
10.954158823000,-0.016000000000
10.961845944000,-0.007000000000
10.969533065000,0.000000000000
10.977220186000,0.002000000000
10.984907307000,0.002000000000
10.992594428000,0.002000000000
11.000281549000,0.004000000000
11.007968670000,0.004000000000
11.015655791000,0.007000000000
11.023342912000,0.014000000000
11.031030033000,0.014000000000
11.038717154000,0.000000000000
11.046404275000,-0.021000000000
11.054091396000,-0.043000000000
11.061778517000,-0.069000000000
11.069465638000,-0.098000000000
11.077152759000,-0.115000000000
11.084839880000,-0.122000000000
11.092527001000,-0.127000000000
11.100214122000,-0.134000000000
11.107901243000,-0.134000000000
11.115588364000,-0.127000000000
11.123275485000,-0.129000000000
11.130962606000,-0.127000000000
11.138649727000,-0.120000000000
11.146336848000,-0.120000000000
11.154023969000,-0.127000000000
11.161711090000,-0.127000000000
11.169398211000,-0.125000000000
11.177085332000,-0.132000000000
11.184772453000,-0.137000000000
11.192459574000,-0.137000000000
11.200146695000,-0.137000000000
11.207833816000,-0.139000000000
11.215520937000,-0.141000000000
11.223208122000,-0.139000000000
11.230895313000,-0.137000000000
11.238582504000,-0.141000000000
11.246269695000,-0.141000000000
11.253956886000,-0.141000000000
11.261644077000,-0.151000000000
11.269331268000,-0.158000000000
11.277018459000,-0.158000000000
11.284705650000,-0.158000000000
11.292392841000,-0.156000000000
11.300080032000,-0.141000000000
11.307767223000,-0.127000000000
11.315454414000,-0.113000000000
11.323141605000,-0.098000000000
11.330828796000,-0.103000000000
11.338515987000,-0.122000000000
11.346203178000,-0.127000000000
11.353890369000,-0.122000000000
11.361577560000,-0.125000000000
11.369264751000,-0.125000000000
11.376951942000,-0.120000000000
11.384639133000,-0.122000000000
11.392326324000,-0.153000000000
11.400013515000,-0.149000000000
11.407700706000,0.110000000000
11.415387897000,0.627000000000
11.423075088000,0.803000000000
11.430762279000,0.235000000000
11.438449470000,-0.452000000000
11.446136661000,-0.533000000000
11.453823852000,-0.305000000000
11.461511043000,-0.269000000000
11.469198234000,-0.252000000000
11.476885425000,-0.134000000000
11.484572616000,-0.108000000000
11.492259807000,-0.139000000000
11.499946998000,-0.117000000000
11.507634189000,-0.098000000000
11.515321380000,-0.101000000000
11.523008571000,-0.088000000000
11.530695762000,-0.074000000000
11.538382953000,-0.069000000000
11.546070144000,-0.060000000000
11.553757335000,-0.048000000000
11.561444526000,-0.040000000000
11.569131717000,-0.031000000000
11.576818908000,-0.021000000000
11.584506099000,-0.009000000000
11.592193290000,0.000000000000
11.599880481000,0.009000000000
11.607567672000,0.021000000000
11.615254863000,0.038000000000
11.622942054000,0.052000000000
11.630629245000,0.050000000000
11.638316436000,0.055000000000
11.646003627000,0.074000000000
11.653690818000,0.084000000000
11.661378009000,0.091000000000
11.669065200000,0.084000000000
11.676752391000,0.055000000000
11.684439582000,0.014000000000
11.692126773000,-0.026000000000
11.699813964000,-0.069000000000
11.707501155000,-0.117000000000
11.715188346000,-0.149000000000
11.722875537000,-0.161000000000
11.730562728000,-0.170000000000
11.738249919000,-0.173000000000
11.745937110000,-0.168000000000
11.753624301000,-0.165000000000
11.761311492000,-0.170000000000
11.768998683000,-0.163000000000
11.776685874000,-0.153000000000
11.784373110000,-0.153000000000
11.792060162000,-0.156000000000
11.799747214000,-0.151000000000
11.807434266000,-0.151000000000
11.815121318000,-0.153000000000
11.822808370000,-0.161000000000
11.830495422000,-0.161000000000
11.838182474000,-0.151000000000
11.845869526000,-0.156000000000
11.853556578000,-0.165000000000
11.861243630000,-0.161000000000
11.868930682000,-0.156000000000
11.876617734000,-0.161000000000
11.884304786000,-0.165000000000
11.891991838000,-0.168000000000
11.899678890000,-0.165000000000
11.907365942000,-0.165000000000
11.915052994000,-0.163000000000
11.922740046000,-0.156000000000
11.930427098000,-0.144000000000
11.938114150000,-0.120000000000
11.945801202000,-0.105000000000
11.953488254000,-0.113000000000
11.961175306000,-0.132000000000
11.968862358000,-0.129000000000
11.976549410000,-0.122000000000
11.984236462000,-0.127000000000
11.991923514000,-0.127000000000
11.999610566000,-0.120000000000
12.007297618000,-0.132000000000
12.014984670000,-0.158000000000
12.022671722000,-0.098000000000
12.030358774000,0.242000000000
12.038045826000,0.721000000000
12.045732878000,0.682000000000
12.053419930000,-0.057000000000
12.061106982000,-0.630000000000
12.068794034000,-0.514000000000
12.076481086000,-0.286000000000
12.084168138000,-0.283000000000
12.091855190000,-0.216000000000
12.099542242000,-0.101000000000
12.107229294000,-0.098000000000
12.114916346000,-0.113000000000
12.122603398000,-0.076000000000
12.130290450000,-0.057000000000
12.137977502000,-0.062000000000
12.145664554000,-0.060000000000
12.153351606000,-0.052000000000
12.161038658000,-0.040000000000
12.168725710000,-0.031000000000
12.176412762000,-0.026000000000
12.184099814000,-0.014000000000
12.191786866000,0.000000000000
12.199473918000,0.009000000000
12.207160970000,0.021000000000
12.214848022000,0.040000000000
12.222535074000,0.050000000000
12.230222126000,0.060000000000
12.237909178000,0.084000000000
12.245596230000,0.096000000000
12.253283282000,0.093000000000
12.260970334000,0.108000000000
12.268657386000,0.132000000000
12.276344438000,0.139000000000
12.284031490000,0.129000000000
12.291718542000,0.117000000000
12.299405594000,0.086000000000
12.307092646000,0.036000000000
12.314779698000,-0.012000000000
12.322466750000,-0.064000000000
12.330153802000,-0.110000000000
12.337840854000,-0.139000000000
12.345527920000,-0.153000000000
12.353214832000,-0.163000000000
12.360901744000,-0.163000000000
12.368588656000,-0.156000000000
12.376275568000,-0.153000000000
12.383962480000,-0.153000000000
12.391649392000,-0.149000000000
12.399336304000,-0.141000000000
12.407023216000,-0.141000000000
12.414710128000,-0.144000000000
12.422397040000,-0.144000000000
12.430083952000,-0.139000000000
12.437770864000,-0.146000000000
12.445457776000,-0.151000000000
12.453144688000,-0.144000000000
12.460831600000,-0.144000000000
12.468518512000,-0.149000000000
12.476205424000,-0.149000000000
12.483892336000,-0.149000000000
12.491579248000,-0.156000000000
12.499266160000,-0.158000000000
12.506953072000,-0.161000000000
12.514639984000,-0.163000000000
12.522326896000,-0.161000000000
12.530013808000,-0.151000000000
12.537700720000,-0.144000000000
12.545387632000,-0.134000000000
12.553074544000,-0.108000000000
12.560761456000,-0.093000000000
12.568448368000,-0.110000000000
12.576135280000,-0.127000000000
12.583822192000,-0.127000000000
12.591509104000,-0.122000000000
12.599196016000,-0.125000000000
12.606882928000,-0.122000000000
12.614569840000,-0.115000000000
12.622256752000,-0.127000000000
12.629943664000,-0.168000000000
12.637630576000,-0.101000000000
12.645317488000,0.290000000000
12.653004400000,0.779000000000
12.660691312000,0.685000000000
12.668378224000,-0.057000000000
12.676065136000,-0.586000000000
12.683752048000,-0.449000000000
12.691438960000,-0.238000000000
12.699125872000,-0.257000000000
12.706812784000,-0.204000000000
12.714499696000,-0.101000000000
12.722186608000,-0.103000000000
12.729873520000,-0.113000000000
12.737560432000,-0.081000000000
12.745247344000,-0.072000000000
12.752934256000,-0.076000000000
12.760621168000,-0.069000000000
12.768308080000,-0.060000000000
12.775994992000,-0.052000000000
12.783681904000,-0.043000000000
12.791368816000,-0.033000000000
12.799055728000,-0.026000000000
12.806742640000,-0.014000000000
12.814429552000,-0.002000000000
12.822116464000,0.007000000000
12.829803376000,0.014000000000
12.837490288000,0.028000000000
12.845177200000,0.040000000000
12.852864112000,0.048000000000
12.860551024000,0.055000000000
12.868237936000,0.064000000000
12.875924848000,0.072000000000
12.883611760000,0.076000000000
12.891298672000,0.086000000000
12.898985584000,0.091000000000
12.906672560000,0.076000000000
12.914359472000,0.052000000000
12.922046384000,0.014000000000
12.929733296000,-0.036000000000
12.937420208000,-0.079000000000
12.945107120000,-0.108000000000
12.952794032000,-0.132000000000
12.960480944000,-0.146000000000
12.968167856000,-0.149000000000
12.975854768000,-0.149000000000
12.983541680000,-0.149000000000
12.991228592000,-0.151000000000
12.998915504000,-0.146000000000
13.006602416000,-0.139000000000
13.014289328000,-0.141000000000
13.021976240000,-0.141000000000
13.029663152000,-0.134000000000
13.037350064000,-0.134000000000
13.045036976000,-0.139000000000
13.052723888000,-0.134000000000
13.060410800000,-0.132000000000
13.068097712000,-0.139000000000
13.075784624000,-0.141000000000
13.083471536000,-0.137000000000
13.091158448000,-0.137000000000
13.098845360000,-0.144000000000
13.106532272000,-0.149000000000
13.114219184000,-0.158000000000
13.121906096000,-0.156000000000
13.129593008000,-0.144000000000
13.137279920000,-0.132000000000
13.144966832000,-0.127000000000
13.152653744000,-0.108000000000
13.160340656000,-0.088000000000
13.168027568000,-0.096000000000
13.175714480000,-0.115000000000
13.183401392000,-0.122000000000
13.191088304000,-0.122000000000
13.198775216000,-0.122000000000
13.206462128000,-0.117000000000
13.214149040000,-0.117000000000
13.221835952000,-0.125000000000
13.229522864000,-0.163000000000
13.237209776000,-0.192000000000
13.244896688000,0.021000000000
13.252583600000,0.538000000000
13.260270512000,0.839000000000
13.267957424000,0.425000000000
13.275644336000,-0.283000000000
13.283331248000,-0.488000000000
13.291018160000,-0.271000000000
13.298705072000,-0.206000000000
13.306391984000,-0.221000000000
13.314078896000,-0.134000000000
13.321765808000,-0.103000000000
13.329452720000,-0.127000000000
13.337139632000,-0.110000000000
13.344826544000,-0.086000000000
13.352513456000,-0.088000000000
13.360200368000,-0.084000000000
13.367887280000,-0.074000000000
13.375574192000,-0.072000000000
13.383261104000,-0.069000000000
13.390948016000,-0.062000000000
13.398634928000,-0.052000000000
13.406321840000,-0.045000000000
13.414008752000,-0.036000000000
13.421695664000,-0.028000000000
13.429382576000,-0.024000000000
13.437069488000,-0.014000000000
13.444756400000,-0.007000000000
13.452443312000,-0.002000000000
13.460130224000,0.002000000000
13.467817196000,0.000000000000
13.475504317000,-0.007000000000
13.483191438000,-0.004000000000
13.490878559000,0.000000000000
13.498565680000,-0.004000000000
13.506252801000,-0.007000000000
13.513939922000,-0.012000000000
13.521627043000,-0.024000000000
13.529314164000,-0.048000000000
13.537001285000,-0.072000000000
13.544688406000,-0.096000000000
13.552375527000,-0.110000000000
13.560062648000,-0.115000000000
13.567749769000,-0.120000000000
13.575436890000,-0.125000000000
13.583124011000,-0.127000000000
13.590811132000,-0.122000000000
13.598498253000,-0.117000000000
13.606185374000,-0.120000000000
13.613872495000,-0.113000000000
13.621559616000,-0.108000000000
13.629246737000,-0.117000000000
13.636933858000,-0.127000000000
13.644620979000,-0.125000000000
13.652308100000,-0.120000000000
13.659995221000,-0.122000000000
13.667682342000,-0.127000000000
13.675369463000,-0.132000000000
13.683056584000,-0.137000000000
13.690743705000,-0.144000000000
13.698430826000,-0.149000000000
13.706117947000,-0.153000000000
13.713805068000,-0.156000000000
13.721492189000,-0.153000000000
13.729179310000,-0.149000000000
13.736866431000,-0.132000000000
13.744553552000,-0.105000000000
13.752240673000,-0.096000000000
13.759927794000,-0.113000000000
13.767614915000,-0.132000000000
13.775302036000,-0.132000000000
13.782989157000,-0.129000000000
13.790676278000,-0.137000000000
13.798363399000,-0.134000000000
13.806050520000,-0.129000000000
13.813737641000,-0.139000000000
13.821424762000,-0.180000000000
13.829111883000,-0.180000000000
13.836799004000,0.101000000000
13.844486125000,0.627000000000
13.852173246000,0.747000000000
13.859860367000,0.113000000000
13.867547488000,-0.557000000000
13.875234609000,-0.548000000000
13.882921730000,-0.276000000000
13.890608851000,-0.254000000000
13.898295972000,-0.238000000000
13.905983093000,-0.117000000000
13.913670214000,-0.101000000000
13.921357335000,-0.129000000000
13.929044456000,-0.103000000000
13.936731577000,-0.076000000000
13.944418698000,-0.081000000000
13.952105819000,-0.076000000000
13.959792940000,-0.062000000000
13.967480061000,-0.048000000000
13.975167182000,-0.040000000000
13.982854303000,-0.045000000000
13.990541424000,-0.038000000000
13.998228545000,-0.012000000000
14.005915666000,0.002000000000
14.013602787000,0.000000000000
14.021289908000,0.012000000000
14.028977093000,0.026000000000
14.036664214000,0.033000000000
14.044351335000,0.040000000000
14.052038456000,0.052000000000
14.059725577000,0.067000000000
14.067412698000,0.069000000000
14.075099819000,0.062000000000
14.082786940000,0.067000000000
14.090474061000,0.076000000000
14.098161182000,0.062000000000
14.105848303000,0.031000000000
14.113535424000,0.000000000000
14.121222545000,-0.043000000000
14.128909666000,-0.091000000000
14.136596787000,-0.120000000000
14.144283908000,-0.139000000000
14.151971029000,-0.146000000000
14.159658150000,-0.146000000000
14.167345271000,-0.149000000000
14.175032392000,-0.151000000000
14.182719513000,-0.149000000000
14.190406634000,-0.141000000000
14.198093755000,-0.144000000000
14.205780876000,-0.141000000000
14.213467997000,-0.134000000000
14.221155118000,-0.127000000000
14.228842239000,-0.125000000000
14.236529360000,-0.132000000000
14.244216481000,-0.137000000000
14.251903602000,-0.139000000000
14.259590723000,-0.149000000000
14.267277844000,-0.163000000000
14.274964965000,-0.170000000000
14.282652086000,-0.177000000000
14.290339207000,-0.189000000000
14.298026328000,-0.192000000000
14.305713449000,-0.177000000000
14.313400570000,-0.165000000000
14.321087691000,-0.158000000000
14.328774812000,-0.134000000000
14.336461933000,-0.113000000000
14.344149054000,-0.125000000000
14.351836175000,-0.153000000000
14.359523296000,-0.161000000000
14.367210417000,-0.156000000000
14.374897538000,-0.151000000000
14.382584659000,-0.139000000000
14.390271780000,-0.144000000000
14.397958901000,-0.185000000000
14.405646022000,-0.202000000000
14.413333143000,0.009000000000
14.421020264000,0.497000000000
14.428707385000,0.714000000000
14.436394506000,0.158000000000
14.444081627000,-0.591000000000
14.451768748000,-0.678000000000
14.459455869000,-0.339000000000
14.467142990000,-0.233000000000
14.474830111000,-0.245000000000
14.482517232000,-0.141000000000
14.490204353000,-0.088000000000
14.497891474000,-0.113000000000
14.505578595000,-0.101000000000
14.513265716000,-0.079000000000
14.520952837000,-0.081000000000
14.528639958000,-0.074000000000
14.536327079000,-0.057000000000
14.544014200000,-0.052000000000
14.551701321000,-0.050000000000
14.559388442000,-0.038000000000
14.567075563000,-0.033000000000
14.574762684000,-0.026000000000
14.582449805000,-0.012000000000
14.590136994000,0.002000000000
14.597824115000,0.019000000000
14.605511236000,0.036000000000
14.613198357000,0.048000000000
14.620885478000,0.062000000000
14.628572599000,0.076000000000
14.636259720000,0.079000000000
14.643946841000,0.076000000000
14.651633962000,0.081000000000
14.659321083000,0.091000000000
14.667008204000,0.093000000000
14.674695325000,0.079000000000
14.682382446000,0.057000000000
14.690069567000,0.026000000000
14.697756688000,-0.019000000000
14.705443809000,-0.074000000000
14.713130930000,-0.115000000000
14.720818051000,-0.132000000000
14.728505172000,-0.141000000000
14.736192293000,-0.144000000000
14.743879414000,-0.141000000000
14.751566535000,-0.137000000000
14.759253656000,-0.132000000000
14.766940777000,-0.132000000000
14.774627898000,-0.129000000000
14.782315019000,-0.125000000000
14.790002140000,-0.125000000000
14.797689261000,-0.122000000000
14.805376382000,-0.120000000000
14.813063503000,-0.122000000000
14.820750624000,-0.125000000000
14.828437745000,-0.132000000000
14.836124866000,-0.139000000000
14.843811987000,-0.141000000000
14.851499108000,-0.144000000000
14.859186229000,-0.151000000000
14.866873350000,-0.149000000000
14.874560471000,-0.137000000000
14.882247592000,-0.134000000000
14.889934713000,-0.132000000000
14.897621834000,-0.105000000000
14.905308955000,-0.084000000000
14.912996076000,-0.105000000000
14.920683197000,-0.127000000000
14.928370318000,-0.127000000000
14.936057439000,-0.117000000000
14.943744560000,-0.110000000000
14.951431681000,-0.113000000000
14.959118802000,-0.122000000000
14.966805923000,-0.149000000000
14.974493044000,-0.194000000000
14.982180165000,-0.088000000000
14.989867286000,0.348000000000
14.997554407000,0.731000000000
15.005241528000,0.420000000000
15.012928649000,-0.348000000000
15.020615770000,-0.625000000000
15.028302891000,-0.312000000000
15.035990012000,-0.153000000000
15.043677133000,-0.204000000000
15.051364254000,-0.117000000000
15.059051375000,-0.043000000000
15.066738496000,-0.074000000000
15.074425617000,-0.062000000000
15.082112738000,-0.028000000000
15.089799859000,-0.033000000000
15.097486980000,-0.031000000000
15.105174101000,-0.014000000000
15.112861222000,-0.012000000000
15.120548343000,-0.007000000000
15.128235464000,0.002000000000
15.135922585000,0.007000000000
15.143609706000,0.016000000000
15.151296891000,0.026000000000
15.158983734000,0.033000000000
15.166670577000,0.040000000000
15.174357420000,0.052000000000
15.182044263000,0.062000000000
15.189731106000,0.067000000000
15.197417949000,0.069000000000
15.205104792000,0.072000000000
15.212791635000,0.076000000000
15.220478478000,0.079000000000
15.228165321000,0.079000000000
15.235852164000,0.084000000000
15.243539007000,0.084000000000
15.251225850000,0.064000000000
15.258912693000,0.033000000000
15.266599536000,0.000000000000
15.274286379000,-0.033000000000
15.281973222000,-0.062000000000
15.289660065000,-0.079000000000
15.297346908000,-0.093000000000
15.305033751000,-0.105000000000
15.312720594000,-0.108000000000
15.320407437000,-0.105000000000
15.328094280000,-0.103000000000
15.335781123000,-0.096000000000
15.343467966000,-0.096000000000
15.351154809000,-0.101000000000
15.358841652000,-0.101000000000
15.366528495000,-0.098000000000
15.374215338000,-0.098000000000
15.381902181000,-0.103000000000
15.389589024000,-0.108000000000
15.397275867000,-0.113000000000
15.404962710000,-0.122000000000
15.412649553000,-0.134000000000
15.420336396000,-0.137000000000
15.428023239000,-0.134000000000
15.435710082000,-0.129000000000
15.443396925000,-0.125000000000
15.451083768000,-0.117000000000
15.458770611000,-0.091000000000
15.466457454000,-0.079000000000
15.474144297000,-0.101000000000
15.481831140000,-0.122000000000
15.489517983000,-0.117000000000
15.497204826000,-0.117000000000
15.504891669000,-0.125000000000
15.512578512000,-0.117000000000
15.520265355000,-0.115000000000
15.527952198000,-0.144000000000
15.535639041000,-0.209000000000
15.543325884000,-0.163000000000
15.551012727000,0.211000000000
15.558699570000,0.661000000000
15.566386413000,0.541000000000
15.574073256000,-0.165000000000
15.581760099000,-0.608000000000
15.589446942000,-0.399000000000
15.597133785000,-0.185000000000
15.604820628000,-0.214000000000
15.612507471000,-0.163000000000
15.620194314000,-0.081000000000
15.627881157000,-0.103000000000
15.635568000000,-0.113000000000
15.643254843000,-0.079000000000
15.650941686000,-0.067000000000
15.658628529000,-0.072000000000
15.666315372000,-0.064000000000
15.674002215000,-0.055000000000
15.681689058000,-0.050000000000
15.689375901000,-0.045000000000
15.697062744000,-0.040000000000
15.704749587000,-0.036000000000
15.712436444000,-0.028000000000
15.720123635000,-0.016000000000
15.727810826000,-0.009000000000
15.735498017000,-0.007000000000
15.743185208000,-0.002000000000
15.750872399000,-0.002000000000
15.758559590000,-0.007000000000
15.766246781000,-0.004000000000
15.773933972000,-0.004000000000
15.781621163000,-0.009000000000
15.789308354000,-0.007000000000
15.796995545000,-0.002000000000
15.804682736000,-0.007000000000
15.812369927000,-0.016000000000
15.820057118000,-0.033000000000
15.827744309000,-0.057000000000
15.835431500000,-0.086000000000
15.843118691000,-0.108000000000
15.850805882000,-0.127000000000
15.858493073000,-0.134000000000
15.866180264000,-0.134000000000
15.873867455000,-0.139000000000
15.881554646000,-0.139000000000
15.889241837000,-0.134000000000
15.896929028000,-0.129000000000
15.904616219000,-0.132000000000
15.912303410000,-0.132000000000
15.919990601000,-0.129000000000
15.927677792000,-0.127000000000
15.935364983000,-0.132000000000
15.943052174000,-0.137000000000
15.950739365000,-0.144000000000
15.958426556000,-0.156000000000
15.966113747000,-0.163000000000
15.973800938000,-0.168000000000
15.981488129000,-0.163000000000
15.989175320000,-0.151000000000
15.996862511000,-0.149000000000
16.004549702000,-0.137000000000
16.012236893000,-0.115000000000
16.019924084000,-0.113000000000
16.027611275000,-0.139000000000
16.035298466000,-0.153000000000
16.042985657000,-0.151000000000
16.050672848000,-0.149000000000
16.058360039000,-0.146000000000
16.066047230000,-0.144000000000
16.073734421000,-0.156000000000
16.081421612000,-0.199000000000
16.089108803000,-0.254000000000
16.096795994000,-0.117000000000
16.104483185000,0.341000000000
16.112170376000,0.656000000000
16.119857567000,0.274000000000
16.127544758000,-0.440000000000
16.135231949000,-0.627000000000
16.142919140000,-0.331000000000
16.150606331000,-0.214000000000
16.158293522000,-0.233000000000
16.165980713000,-0.141000000000
16.173667904000,-0.101000000000
16.181355095000,-0.132000000000
16.189042286000,-0.117000000000
16.196729477000,-0.088000000000
16.204416668000,-0.093000000000
16.212103859000,-0.084000000000
16.219791050000,-0.069000000000
16.227478241000,-0.069000000000
16.235165432000,-0.067000000000
16.242852623000,-0.057000000000
16.250539814000,-0.050000000000
16.258227005000,-0.043000000000
16.265914196000,-0.031000000000
16.273601428000,-0.026000000000
16.281288340000,-0.021000000000
16.288975252000,-0.014000000000
16.296662164000,-0.007000000000
16.304349076000,-0.007000000000
16.312035988000,-0.004000000000
16.319722900000,-0.004000000000
16.327409812000,-0.004000000000
16.335096724000,0.000000000000
16.342783636000,0.004000000000
16.350470548000,0.007000000000
16.358157460000,0.002000000000
16.365844372000,-0.016000000000
16.373531284000,-0.040000000000
16.381218196000,-0.069000000000
16.388905108000,-0.098000000000
16.396592020000,-0.120000000000
16.404278932000,-0.132000000000
16.411965844000,-0.139000000000
16.419652756000,-0.139000000000
16.427339668000,-0.139000000000
16.435026580000,-0.139000000000
16.442713492000,-0.132000000000
16.450400404000,-0.127000000000
16.458087316000,-0.129000000000
16.465774228000,-0.127000000000
16.473461140000,-0.122000000000
16.481148052000,-0.127000000000
16.488834964000,-0.134000000000
16.496521876000,-0.141000000000
16.504208788000,-0.149000000000
16.511895700000,-0.158000000000
16.519582612000,-0.156000000000
16.527269524000,-0.144000000000
16.534956436000,-0.137000000000
16.542643348000,-0.137000000000
16.550330260000,-0.117000000000
16.558017172000,-0.096000000000
16.565704084000,-0.110000000000
16.573390996000,-0.137000000000
16.581077908000,-0.139000000000
16.588764820000,-0.132000000000
16.596451732000,-0.132000000000
16.604138644000,-0.134000000000
16.611825556000,-0.132000000000
16.619512468000,-0.149000000000
16.627199380000,-0.206000000000
16.634886292000,-0.216000000000
16.642573204000,0.062000000000
16.650260116000,0.541000000000
16.657947028000,0.596000000000
16.665633940000,-0.019000000000
16.673320852000,-0.581000000000
16.681007764000,-0.492000000000
16.688694676000,-0.233000000000
16.696381588000,-0.218000000000
16.704068500000,-0.182000000000
16.711755412000,-0.086000000000
16.719442324000,-0.093000000000
16.727129236000,-0.113000000000
16.734816148000,-0.081000000000
16.742503060000,-0.067000000000
16.750189972000,-0.072000000000
16.757876884000,-0.060000000000
16.765563796000,-0.045000000000
16.773250708000,-0.040000000000
16.780937620000,-0.036000000000
16.788624532000,-0.028000000000
16.796311444000,-0.024000000000
16.803998356000,-0.019000000000
16.811685268000,-0.009000000000
16.819372180000,-0.004000000000
16.827059092000,0.004000000000
16.834746064000,0.012000000000
16.842433185000,0.014000000000
16.850120306000,0.019000000000
16.857807427000,0.026000000000
16.865494548000,0.028000000000
16.873181669000,0.031000000000
16.880868790000,0.040000000000
16.888555911000,0.043000000000
16.896243032000,0.036000000000
16.903930153000,0.024000000000
16.911617274000,0.002000000000
16.919304395000,-0.033000000000
16.926991516000,-0.067000000000
16.934678637000,-0.093000000000
16.942365758000,-0.113000000000
16.950052879000,-0.120000000000
16.957740000000,-0.120000000000
16.965427121000,-0.122000000000
16.973114242000,-0.120000000000
16.980801363000,-0.117000000000
16.988488484000,-0.115000000000
16.996175605000,-0.113000000000
17.003862726000,-0.110000000000
17.011549847000,-0.110000000000
17.019236968000,-0.113000000000
17.026924089000,-0.117000000000
17.034611210000,-0.125000000000
17.042298331000,-0.129000000000
17.049985452000,-0.137000000000
17.057672573000,-0.137000000000
17.065359694000,-0.129000000000
17.073046815000,-0.122000000000
17.080733936000,-0.115000000000
17.088421057000,-0.096000000000
17.096108178000,-0.079000000000
17.103795299000,-0.091000000000
17.111482420000,-0.113000000000
17.119169541000,-0.117000000000
17.126856662000,-0.117000000000
17.134543783000,-0.120000000000
17.142230904000,-0.115000000000
17.149918025000,-0.113000000000
17.157605146000,-0.132000000000
17.165292267000,-0.192000000000
17.172979388000,-0.158000000000
17.180666509000,0.182000000000
17.188353630000,0.608000000000
17.196040751000,0.478000000000
17.203727872000,-0.223000000000
17.211414993000,-0.649000000000
17.219102114000,-0.449000000000
17.226789235000,-0.228000000000
17.234476356000,-0.223000000000
17.242163477000,-0.149000000000
17.249850598000,-0.062000000000
17.257537719000,-0.079000000000
17.265224840000,-0.088000000000
17.272911961000,-0.057000000000
17.280599082000,-0.050000000000
17.288286203000,-0.050000000000
17.295973324000,-0.038000000000
17.303660445000,-0.028000000000
17.311347566000,-0.026000000000
17.319034687000,-0.019000000000
17.326721808000,-0.014000000000
17.334408929000,-0.007000000000
17.342096050000,0.000000000000
17.349783171000,0.012000000000
17.357470292000,0.019000000000
17.365157413000,0.026000000000
17.372844534000,0.036000000000
17.380531655000,0.043000000000
17.388218776000,0.048000000000
17.395905961000,0.055000000000
17.403593082000,0.064000000000
17.411280203000,0.076000000000
17.418967324000,0.084000000000
17.426654445000,0.081000000000
17.434341566000,0.067000000000
17.442028687000,0.045000000000
17.449715808000,0.007000000000
17.457402929000,-0.040000000000
17.465090050000,-0.076000000000
17.472777171000,-0.101000000000
17.480464292000,-0.115000000000
17.488151413000,-0.125000000000
17.495838534000,-0.129000000000
17.503525655000,-0.127000000000
17.511212776000,-0.125000000000
17.518899897000,-0.122000000000
17.526587018000,-0.120000000000
17.534274139000,-0.120000000000
17.541961260000,-0.127000000000
17.549648381000,-0.132000000000
17.557335502000,-0.127000000000
17.565022623000,-0.129000000000
17.572709744000,-0.137000000000
17.580396865000,-0.139000000000
17.588083986000,-0.144000000000
17.595771107000,-0.144000000000
17.603458228000,-0.134000000000
17.611145349000,-0.125000000000
17.618832470000,-0.117000000000
17.626519591000,-0.103000000000
17.634206712000,-0.101000000000
17.641893833000,-0.120000000000
17.649580954000,-0.132000000000
17.657268075000,-0.132000000000
17.664955196000,-0.134000000000
17.672642317000,-0.134000000000
17.680329438000,-0.132000000000
17.688016559000,-0.139000000000
17.695703680000,-0.175000000000
17.703390801000,-0.192000000000
17.711077922000,0.028000000000
17.718765043000,0.502000000000
17.726452164000,0.637000000000
17.734139285000,0.024000000000
17.741826406000,-0.654000000000
17.749513527000,-0.625000000000
17.757200648000,-0.300000000000
17.764887769000,-0.242000000000
17.772574890000,-0.228000000000
17.780262011000,-0.105000000000
17.787949132000,-0.079000000000
17.795636253000,-0.105000000000
17.803323374000,-0.074000000000
17.811010495000,-0.057000000000
17.818697616000,-0.067000000000
17.826384737000,-0.062000000000
17.834071858000,-0.045000000000
17.841758979000,-0.038000000000
17.849446100000,-0.031000000000
17.857133221000,-0.014000000000
17.864820342000,-0.002000000000
17.872507463000,0.002000000000
17.880194584000,0.014000000000
17.887881705000,0.028000000000
17.895568826000,0.043000000000
17.903255947000,0.055000000000
17.910943068000,0.067000000000
17.918630189000,0.072000000000
17.926317310000,0.081000000000
17.934004431000,0.091000000000
17.941691552000,0.105000000000
17.949378673000,0.125000000000
17.957065862000,0.125000000000
17.964752635000,0.105000000000
17.972439408000,0.079000000000
17.980126181000,0.043000000000
17.987812954000,-0.012000000000
17.995499727000,-0.067000000000
18.003186500000,-0.110000000000
18.010873273000,-0.132000000000
18.018560046000,-0.144000000000
18.026246819000,-0.151000000000
18.033933592000,-0.156000000000
18.041620365000,-0.161000000000
18.049307138000,-0.153000000000
18.056993911000,-0.139000000000
18.064680684000,-0.139000000000
18.072367457000,-0.146000000000
18.080054230000,-0.137000000000
18.087741003000,-0.134000000000
18.095427776000,-0.146000000000
18.103114549000,-0.153000000000
18.110801322000,-0.153000000000
18.118488095000,-0.161000000000
18.126174868000,-0.158000000000
18.133861641000,-0.151000000000
18.141548414000,-0.151000000000
18.149235187000,-0.149000000000
18.156921960000,-0.122000000000
18.164608733000,-0.108000000000
18.172295506000,-0.122000000000
18.179982279000,-0.139000000000
18.187669052000,-0.144000000000
18.195355825000,-0.137000000000
18.203042598000,-0.132000000000
18.210729371000,-0.134000000000
18.218416144000,-0.139000000000
18.226102917000,-0.161000000000
18.233789690000,-0.173000000000
18.241476463000,0.007000000000
18.249163236000,0.452000000000
18.256850009000,0.639000000000
18.264536782000,0.067000000000
18.272223555000,-0.682000000000
18.279910328000,-0.723000000000
18.287597101000,-0.360000000000
18.295283874000,-0.257000000000
18.302970647000,-0.242000000000
18.310657420000,-0.113000000000
18.318344193000,-0.060000000000
18.326030966000,-0.084000000000
18.333717739000,-0.062000000000
18.341404512000,-0.040000000000
18.349091285000,-0.038000000000
18.356778058000,-0.033000000000
18.364464831000,-0.021000000000
18.372151604000,-0.014000000000
18.379838377000,-0.004000000000
18.387525150000,0.002000000000
18.395211923000,0.009000000000
18.402898696000,0.019000000000
18.410585469000,0.031000000000
18.418272242000,0.045000000000
18.425959015000,0.060000000000
18.433645788000,0.064000000000
18.441332561000,0.076000000000
18.449019334000,0.096000000000
18.456706107000,0.108000000000
18.464392880000,0.117000000000
18.472079653000,0.134000000000
18.479766426000,0.144000000000
18.487453199000,0.149000000000
18.495139972000,0.144000000000
18.502826745000,0.120000000000
18.510513518000,0.079000000000
18.518200328000,0.028000000000
18.525887519000,-0.026000000000
18.533574710000,-0.072000000000
18.541261901000,-0.096000000000
18.548949092000,-0.113000000000
18.556636283000,-0.127000000000
18.564323474000,-0.129000000000
18.572010665000,-0.125000000000
18.579697856000,-0.127000000000
18.587385047000,-0.125000000000
18.595072238000,-0.117000000000
18.602759429000,-0.113000000000
18.610446620000,-0.113000000000
18.618133811000,-0.113000000000
18.625821002000,-0.117000000000
18.633508193000,-0.125000000000
18.641195384000,-0.129000000000
18.648882575000,-0.134000000000
18.656569766000,-0.137000000000
18.664256957000,-0.129000000000
18.671944148000,-0.129000000000
18.679631339000,-0.127000000000
18.687318530000,-0.108000000000
18.695005721000,-0.091000000000
18.702692912000,-0.101000000000
18.710380103000,-0.120000000000
18.718067294000,-0.125000000000
18.725754485000,-0.122000000000
18.733441676000,-0.125000000000
18.741128867000,-0.125000000000
18.748816058000,-0.125000000000
18.756503249000,-0.158000000000
18.764190440000,-0.218000000000
18.771877631000,-0.125000000000
18.779564822000,0.300000000000
18.787252013000,0.654000000000
18.794939204000,0.319000000000
18.802626395000,-0.425000000000
18.810313586000,-0.663000000000
18.818000777000,-0.346000000000
18.825687968000,-0.187000000000
18.833375159000,-0.216000000000
18.841062350000,-0.120000000000
18.848749541000,-0.055000000000
18.856436732000,-0.091000000000
18.864123923000,-0.081000000000
18.871811114000,-0.048000000000
18.879498305000,-0.050000000000
18.887185496000,-0.048000000000
18.894872687000,-0.031000000000
18.902559878000,-0.026000000000
18.910247069000,-0.024000000000
18.917934260000,-0.016000000000
18.925621451000,-0.016000000000
18.933308642000,-0.012000000000
18.940995833000,0.000000000000
18.948683024000,0.007000000000
18.956370215000,0.012000000000
18.964057406000,0.019000000000
18.971744597000,0.021000000000
18.979431788000,0.026000000000
18.987118979000,0.031000000000
18.994806170000,0.036000000000
19.002493361000,0.040000000000
19.010180552000,0.052000000000
19.017867743000,0.060000000000
19.025554934000,0.057000000000
19.033242125000,0.050000000000
19.040929316000,0.033000000000
19.048616507000,-0.002000000000
19.056303698000,-0.038000000000
19.063990889000,-0.067000000000
19.071678080000,-0.088000000000
19.079365312000,-0.101000000000
19.087052503000,-0.110000000000
19.094739694000,-0.113000000000
19.102426885000,-0.110000000000
19.110114076000,-0.110000000000
19.117801267000,-0.113000000000
19.125488458000,-0.108000000000
19.133175649000,-0.105000000000
19.140862840000,-0.110000000000
19.148550031000,-0.108000000000
19.156237222000,-0.105000000000
19.163924413000,-0.120000000000
19.171611604000,-0.137000000000
19.179298795000,-0.141000000000
19.186985986000,-0.139000000000
19.194673177000,-0.127000000000
19.202360368000,-0.120000000000
19.210047559000,-0.113000000000
19.217734750000,-0.093000000000
19.225421941000,-0.079000000000
19.233109132000,-0.093000000000
19.240796323000,-0.113000000000
19.248483514000,-0.117000000000
19.256170705000,-0.115000000000
19.263857896000,-0.113000000000
19.271545087000,-0.113000000000
19.279232278000,-0.115000000000
19.286919469000,-0.151000000000
19.294606660000,-0.228000000000
19.302293851000,-0.158000000000
19.309981042000,0.257000000000
19.317668233000,0.673000000000
19.325355424000,0.461000000000
19.333042615000,-0.254000000000
19.340729806000,-0.598000000000
19.348416997000,-0.346000000000
19.356104188000,-0.168000000000
19.363791379000,-0.197000000000
19.371478570000,-0.127000000000
19.379165761000,-0.062000000000
19.386852952000,-0.088000000000
19.394540143000,-0.084000000000
19.402227334000,-0.052000000000
19.409914525000,-0.052000000000
19.417601716000,-0.050000000000
19.425288907000,-0.036000000000
19.432976098000,-0.036000000000
19.440663289000,-0.031000000000
19.448350480000,-0.021000000000
19.456037671000,-0.019000000000
19.463724862000,-0.014000000000
19.471412053000,-0.004000000000
19.479099244000,-0.002000000000
19.486786435000,0.002000000000
19.494473626000,0.007000000000
19.502160817000,0.007000000000
19.509848008000,0.009000000000
19.517535199000,0.009000000000
19.525222390000,0.007000000000
19.532909581000,0.009000000000
19.540596772000,0.012000000000
19.548283963000,0.019000000000
19.555971154000,0.026000000000
19.563658345000,0.021000000000
19.571345536000,0.004000000000
19.579032727000,-0.014000000000
19.586719918000,-0.043000000000
19.594407109000,-0.072000000000
19.602094300000,-0.091000000000
19.609781491000,-0.098000000000
19.617468682000,-0.105000000000
19.625155873000,-0.108000000000
19.632843064000,-0.105000000000
19.640530296000,-0.105000000000
19.648217208000,-0.108000000000
19.655904120000,-0.105000000000
19.663591032000,-0.101000000000
19.671277944000,-0.103000000000
19.678964856000,-0.103000000000
19.686651768000,-0.103000000000
19.694338680000,-0.105000000000
19.702025592000,-0.113000000000
19.709712504000,-0.122000000000
19.717399416000,-0.132000000000
19.725086328000,-0.137000000000
19.732773240000,-0.132000000000
19.740460152000,-0.120000000000
19.748147064000,-0.108000000000
19.755833976000,-0.098000000000
19.763520888000,-0.081000000000
19.771207800000,-0.076000000000
19.778894712000,-0.096000000000
19.786581624000,-0.113000000000
19.794268536000,-0.113000000000
19.801955448000,-0.113000000000
19.809642360000,-0.110000000000
19.817329272000,-0.108000000000
19.825016184000,-0.117000000000
19.832703096000,-0.175000000000
19.840390008000,-0.209000000000
19.848076920000,0.036000000000
19.855763832000,0.529000000000
19.863450744000,0.661000000000
19.871137656000,0.086000000000
19.878824568000,-0.526000000000
19.886511480000,-0.502000000000
19.894198392000,-0.238000000000
19.901885304000,-0.206000000000
19.909572216000,-0.182000000000
19.917259128000,-0.081000000000
19.924946040000,-0.079000000000
19.932632952000,-0.108000000000
19.940319864000,-0.076000000000
19.948006776000,-0.060000000000
19.955693688000,-0.067000000000
19.963380600000,-0.055000000000
19.971067512000,-0.040000000000
19.978754424000,-0.040000000000
19.986441336000,-0.036000000000
19.994128248000,-0.028000000000
20.001815160000,-0.026000000000
20.009502072000,-0.019000000000
20.017188984000,-0.004000000000
20.024875896000,0.000000000000
20.032562808000,0.004000000000
20.040249720000,0.012000000000
20.047936632000,0.014000000000
20.055623544000,0.014000000000
20.063310456000,0.016000000000
20.070997368000,0.021000000000
20.078684280000,0.028000000000
20.086371192000,0.036000000000
20.094058104000,0.045000000000
20.101745016000,0.043000000000
20.109431928000,0.028000000000
20.117118840000,0.000000000000
20.124805752000,-0.038000000000
20.132492664000,-0.069000000000
20.140179576000,-0.096000000000
20.147866488000,-0.120000000000
20.155553400000,-0.134000000000
20.163240312000,-0.134000000000
20.170927224000,-0.132000000000
20.178614136000,-0.129000000000
20.186301048000,-0.125000000000
20.193987960000,-0.125000000000
20.201674932000,-0.129000000000
20.209362053000,-0.129000000000
20.217049174000,-0.125000000000
20.224736295000,-0.125000000000
20.232423416000,-0.132000000000
20.240110537000,-0.134000000000
20.247797658000,-0.134000000000
20.255484779000,-0.139000000000
20.263171900000,-0.144000000000
20.270859021000,-0.149000000000
20.278546142000,-0.158000000000
20.286233263000,-0.161000000000
20.293920384000,-0.149000000000
20.301607505000,-0.141000000000
20.309294626000,-0.137000000000
20.316981747000,-0.103000000000
20.324668868000,-0.086000000000
20.332355989000,-0.120000000000
20.340043110000,-0.141000000000
20.347730231000,-0.137000000000
20.355417352000,-0.137000000000
20.363104473000,-0.139000000000
20.370791594000,-0.127000000000
20.378478715000,-0.132000000000
20.386165836000,-0.173000000000
20.393852957000,-0.168000000000
20.401540078000,0.093000000000
20.409227199000,0.565000000000
20.416914320000,0.620000000000
20.424601441000,-0.033000000000
20.432288562000,-0.634000000000
20.439975683000,-0.553000000000
20.447662804000,-0.281000000000
20.455349925000,-0.259000000000
20.463037046000,-0.221000000000
20.470724167000,-0.101000000000
20.478411288000,-0.086000000000
20.486098409000,-0.105000000000
20.493785530000,-0.079000000000
20.501472651000,-0.064000000000
20.509159772000,-0.064000000000
20.516846893000,-0.052000000000
20.524534014000,-0.033000000000
20.532221135000,-0.026000000000
20.539908256000,-0.026000000000
20.547595377000,-0.019000000000
20.555282498000,-0.004000000000
20.562969619000,0.004000000000
20.570656740000,0.016000000000
20.578343861000,0.031000000000
20.586030982000,0.040000000000
20.593718103000,0.055000000000
20.601405224000,0.072000000000
20.609092345000,0.088000000000
20.616779466000,0.101000000000
20.624466587000,0.113000000000
20.632153708000,0.129000000000
20.639840829000,0.144000000000
20.647527950000,0.146000000000
20.655215071000,0.132000000000
20.662902192000,0.098000000000
20.670589313000,0.052000000000
20.678276434000,0.000000000000
20.685963555000,-0.062000000000
20.693650676000,-0.103000000000
20.701337797000,-0.127000000000
20.709024918000,-0.151000000000
20.716712039000,-0.161000000000
20.724399160000,-0.153000000000
20.732086281000,-0.153000000000
20.739773402000,-0.156000000000
20.747460523000,-0.149000000000
20.755147644000,-0.141000000000
20.762834829000,-0.141000000000
20.770521950000,-0.139000000000
20.778209071000,-0.137000000000
20.785896192000,-0.144000000000
20.793583313000,-0.149000000000
20.801270434000,-0.146000000000
20.808957555000,-0.151000000000
20.816644676000,-0.153000000000
20.824331797000,-0.153000000000
20.832018918000,-0.158000000000
20.839706039000,-0.163000000000
20.847393160000,-0.158000000000
20.855080281000,-0.158000000000
20.862767402000,-0.156000000000
20.870454523000,-0.134000000000
20.878141644000,-0.108000000000
20.885828765000,-0.110000000000
20.893515886000,-0.129000000000
20.901203007000,-0.139000000000
20.908890128000,-0.137000000000
20.916577249000,-0.137000000000
20.924264370000,-0.134000000000
20.931951491000,-0.132000000000
20.939638612000,-0.151000000000
20.947325733000,-0.177000000000
20.955012854000,-0.033000000000
20.962699975000,0.416000000000
20.970387096000,0.714000000000
20.978074217000,0.252000000000
20.985761338000,-0.536000000000
20.993448459000,-0.707000000000
21.001135580000,-0.375000000000
21.008822701000,-0.240000000000
21.016509822000,-0.247000000000
21.024196943000,-0.137000000000
21.031884064000,-0.064000000000
21.039571185000,-0.086000000000
21.047258306000,-0.076000000000
21.054945427000,-0.048000000000
21.062632548000,-0.048000000000
21.070319669000,-0.045000000000
21.078006790000,-0.033000000000
21.085693911000,-0.026000000000
21.093381032000,-0.019000000000
21.101068153000,-0.007000000000
21.108755274000,0.002000000000
21.116442395000,0.014000000000
21.124129516000,0.031000000000
21.131816637000,0.038000000000
21.139503758000,0.043000000000
21.147190879000,0.055000000000
21.154878000000,0.072000000000
21.162565121000,0.084000000000
21.170252242000,0.093000000000
21.177939363000,0.105000000000
21.185626484000,0.122000000000
21.193313605000,0.137000000000
21.201000726000,0.146000000000
21.208687847000,0.141000000000
21.216374968000,0.120000000000
21.224062089000,0.086000000000
21.231749210000,0.038000000000
21.239436331000,-0.014000000000
21.247123452000,-0.062000000000
21.254810573000,-0.093000000000
21.262497694000,-0.115000000000
21.270184815000,-0.134000000000
21.277871936000,-0.137000000000
21.285559057000,-0.132000000000
21.293246178000,-0.134000000000
21.300933299000,-0.129000000000
21.308620420000,-0.122000000000
21.316307541000,-0.117000000000
21.323994726000,-0.117000000000
21.331681847000,-0.120000000000
21.339368968000,-0.117000000000
21.347056089000,-0.120000000000
21.354743210000,-0.122000000000
21.362430331000,-0.127000000000
21.370117452000,-0.132000000000
21.377804573000,-0.137000000000
21.385491694000,-0.146000000000
21.393178815000,-0.153000000000
21.400865936000,-0.151000000000
21.408553057000,-0.137000000000
21.416240178000,-0.132000000000
21.423927299000,-0.129000000000
21.431614420000,-0.105000000000
21.439301541000,-0.084000000000
21.446988662000,-0.101000000000
21.454675783000,-0.125000000000
21.462362904000,-0.125000000000
21.470050025000,-0.120000000000
21.477737146000,-0.122000000000
21.485424267000,-0.117000000000
21.493111388000,-0.120000000000
21.500798509000,-0.168000000000
21.508485630000,-0.214000000000
21.516172751000,-0.028000000000
21.523859872000,0.461000000000
21.531546993000,0.731000000000
21.539234114000,0.274000000000
21.546921235000,-0.435000000000
21.554608356000,-0.562000000000
21.562295477000,-0.269000000000
21.569982598000,-0.187000000000
21.577669719000,-0.202000000000
21.585356840000,-0.105000000000
21.593043961000,-0.072000000000
21.600731082000,-0.101000000000
21.608418203000,-0.081000000000
21.616105324000,-0.064000000000
21.623792445000,-0.064000000000
21.631479566000,-0.048000000000
21.639166687000,-0.038000000000
21.646853808000,-0.043000000000
21.654540929000,-0.036000000000
21.662228050000,-0.026000000000
21.669915171000,-0.019000000000
21.677602292000,-0.012000000000
21.685289413000,-0.004000000000
21.692976534000,-0.002000000000
21.700663655000,0.007000000000
21.708350776000,0.012000000000
21.716037897000,0.014000000000
21.723725018000,0.012000000000
21.731412139000,0.014000000000
21.739099260000,0.016000000000
21.746786381000,0.016000000000
21.754473502000,0.016000000000
21.762160623000,0.021000000000
21.769847744000,0.028000000000
21.777534865000,0.024000000000
21.785221986000,0.000000000000
21.792909107000,-0.024000000000
21.800596228000,-0.052000000000
21.808283349000,-0.081000000000
21.815970470000,-0.101000000000
21.823657591000,-0.110000000000
21.831344712000,-0.115000000000
21.839031833000,-0.120000000000
21.846718954000,-0.117000000000
21.854406075000,-0.115000000000
21.862093196000,-0.113000000000
21.869780317000,-0.113000000000
21.877467438000,-0.113000000000
21.885154627000,-0.115000000000
21.892841748000,-0.115000000000
21.900528869000,-0.115000000000
21.908215990000,-0.117000000000
21.915903111000,-0.120000000000
21.923590232000,-0.120000000000
21.931277353000,-0.117000000000
21.938964474000,-0.120000000000
21.946651595000,-0.132000000000
21.954338716000,-0.139000000000
21.962025837000,-0.141000000000
21.969712958000,-0.139000000000
21.977400079000,-0.127000000000
21.985087200000,-0.117000000000
21.992774321000,-0.110000000000
22.000461442000,-0.091000000000
22.008148563000,-0.079000000000
22.015835684000,-0.098000000000
22.023522805000,-0.115000000000
22.031209926000,-0.115000000000
22.038897047000,-0.113000000000
22.046584168000,-0.117000000000
22.054271289000,-0.117000000000
22.061958410000,-0.120000000000
22.069645531000,-0.168000000000
22.077332652000,-0.206000000000
22.085019773000,0.009000000000
22.092706894000,0.521000000000
22.100394015000,0.764000000000
22.108081136000,0.286000000000
22.115768257000,-0.396000000000
22.123455378000,-0.509000000000
22.131142499000,-0.254000000000
22.138829620000,-0.189000000000
22.146516741000,-0.194000000000
22.154203862000,-0.103000000000
22.161890983000,-0.079000000000
22.169578104000,-0.105000000000
22.177265225000,-0.081000000000
22.184952346000,-0.060000000000
22.192639467000,-0.060000000000
22.200326588000,-0.048000000000
22.208013709000,-0.038000000000
22.215700830000,-0.038000000000
22.223387951000,-0.033000000000
22.231075072000,-0.024000000000
22.238762193000,-0.021000000000
22.246449314000,-0.014000000000
22.254136435000,-0.004000000000
22.261823556000,-0.002000000000
22.269510677000,0.002000000000
22.277197798000,0.012000000000
22.284884919000,0.014000000000
22.292572040000,0.009000000000
22.300259161000,0.009000000000
22.307946282000,0.009000000000
22.315633403000,0.012000000000
22.323320524000,0.014000000000
22.331007645000,0.019000000000
22.338694766000,0.019000000000
22.346381887000,0.014000000000
22.354069008000,-0.002000000000
22.361756129000,-0.031000000000
22.369443250000,-0.062000000000
22.377130371000,-0.079000000000
22.384817492000,-0.096000000000
22.392504613000,-0.113000000000
22.400191734000,-0.115000000000
22.407878855000,-0.113000000000
22.415565976000,-0.110000000000
22.423253097000,-0.110000000000
22.430940218000,-0.110000000000
22.438627339000,-0.108000000000
22.446314524000,-0.108000000000
22.454001645000,-0.108000000000
22.461688766000,-0.105000000000
22.469375887000,-0.103000000000
22.477063008000,-0.110000000000
22.484750129000,-0.113000000000
22.492437250000,-0.108000000000
22.500124371000,-0.108000000000
22.507811492000,-0.113000000000
22.515498613000,-0.113000000000
22.523185734000,-0.115000000000
22.530872855000,-0.120000000000
22.538559976000,-0.122000000000
22.546247097000,-0.132000000000
22.553934218000,-0.139000000000
22.561621339000,-0.137000000000
22.569308460000,-0.125000000000
22.576995581000,-0.115000000000
22.584682702000,-0.108000000000
22.592369823000,-0.086000000000
22.600056944000,-0.069000000000
22.607744065000,-0.086000000000
22.615431186000,-0.108000000000
22.623118307000,-0.113000000000
22.630805428000,-0.110000000000
22.638492549000,-0.110000000000
22.646179670000,-0.105000000000
22.653866791000,-0.115000000000
22.661553912000,-0.144000000000
22.669241033000,-0.177000000000
22.676928154000,-0.038000000000
22.684615275000,0.420000000000
22.692302396000,0.779000000000
22.699989517000,0.442000000000
22.707676638000,-0.283000000000
22.715363759000,-0.543000000000
22.723050880000,-0.310000000000
22.730738001000,-0.206000000000
22.738425122000,-0.233000000000
22.746112243000,-0.141000000000
22.753799364000,-0.088000000000
22.761486485000,-0.120000000000
22.769173606000,-0.110000000000
22.776860727000,-0.079000000000
22.784547848000,-0.076000000000
22.792234969000,-0.069000000000
22.799922090000,-0.057000000000
22.807609211000,-0.055000000000
22.815296332000,-0.052000000000
22.822983453000,-0.045000000000
22.830670574000,-0.033000000000
22.838357695000,-0.026000000000
22.846044816000,-0.019000000000
22.853731937000,-0.007000000000
22.861419058000,-0.002000000000
22.869106179000,0.000000000000
22.876793300000,0.007000000000
22.884480421000,0.012000000000
22.892167542000,0.014000000000
22.899854663000,0.019000000000
22.907541784000,0.026000000000
22.915228905000,0.038000000000
22.922916026000,0.048000000000
22.930603147000,0.052000000000
22.938290268000,0.045000000000
22.945977389000,0.019000000000
22.953664510000,-0.012000000000
22.961351631000,-0.048000000000
22.969038752000,-0.088000000000
22.976725873000,-0.115000000000
22.984412994000,-0.129000000000
22.992100115000,-0.141000000000
22.999787236000,-0.146000000000
23.007474421000,-0.139000000000
23.015161542000,-0.139000000000
23.022848663000,-0.141000000000
23.030535784000,-0.137000000000
23.038222905000,-0.134000000000
23.045910026000,-0.134000000000
23.053597147000,-0.137000000000
23.061284268000,-0.137000000000
23.068971389000,-0.127000000000
23.076658510000,-0.125000000000
23.084345631000,-0.137000000000
23.092032752000,-0.139000000000
23.099719873000,-0.132000000000
23.107406994000,-0.137000000000
23.115094115000,-0.141000000000
23.122781236000,-0.137000000000
23.130468357000,-0.141000000000
23.138155478000,-0.156000000000
23.145842599000,-0.158000000000
23.153529720000,-0.151000000000
23.161216841000,-0.149000000000
23.168903962000,-0.144000000000
23.176591083000,-0.134000000000
23.184278204000,-0.120000000000
23.191965325000,-0.101000000000
23.199652446000,-0.105000000000
23.207339567000,-0.129000000000
23.215026688000,-0.125000000000
23.222713809000,-0.117000000000
23.230400930000,-0.122000000000
23.238088051000,-0.120000000000
23.245775172000,-0.120000000000
23.253462293000,-0.134000000000
23.261149414000,-0.163000000000
23.268836535000,-0.088000000000
23.276523656000,0.283000000000
23.284210777000,0.719000000000
23.291897898000,0.548000000000
23.299585019000,-0.223000000000
23.307272140000,-0.666000000000
23.314959261000,-0.459000000000
23.322646382000,-0.259000000000
23.330333503000,-0.271000000000
23.338020624000,-0.189000000000
23.345707745000,-0.086000000000
23.353394866000,-0.093000000000
23.361081987000,-0.105000000000
23.368769108000,-0.076000000000
23.376456229000,-0.060000000000
23.384143350000,-0.062000000000
23.391830471000,-0.060000000000
23.399517592000,-0.043000000000
23.407204713000,-0.031000000000
23.414891834000,-0.028000000000
23.422578955000,-0.019000000000
23.430266076000,-0.002000000000
23.437953197000,0.009000000000
23.445640318000,0.021000000000
23.453327439000,0.033000000000
23.461014560000,0.040000000000
23.468701681000,0.055000000000
23.476388802000,0.069000000000
23.484075923000,0.081000000000
23.491763044000,0.091000000000
23.499450165000,0.105000000000
23.507137286000,0.125000000000
23.514824407000,0.134000000000
23.522511528000,0.132000000000
23.530198649000,0.122000000000
23.537885770000,0.101000000000
23.545572891000,0.048000000000
23.553260012000,-0.014000000000
23.560947133000,-0.064000000000
23.568634318000,-0.105000000000
23.576321439000,-0.134000000000
23.584008560000,-0.149000000000
23.591695681000,-0.161000000000
23.599382802000,-0.161000000000
23.607069923000,-0.151000000000
23.614757044000,-0.149000000000
23.622444165000,-0.149000000000
23.630131286000,-0.141000000000
23.637818407000,-0.139000000000
23.645505528000,-0.137000000000
23.653192649000,-0.134000000000
23.660879770000,-0.129000000000
23.668566891000,-0.132000000000
23.676254012000,-0.134000000000
23.683941133000,-0.137000000000
23.691628254000,-0.137000000000
23.699315375000,-0.137000000000
23.707002496000,-0.137000000000
23.714689617000,-0.141000000000
23.722376738000,-0.146000000000
23.730063859000,-0.149000000000
23.737750980000,-0.151000000000
23.745438101000,-0.151000000000
23.753125222000,-0.146000000000
23.760812343000,-0.137000000000
23.768499464000,-0.129000000000
23.776186585000,-0.115000000000
23.783873706000,-0.091000000000
23.791560827000,-0.088000000000
23.799247948000,-0.108000000000
23.806935069000,-0.115000000000
23.814622190000,-0.110000000000
23.822309311000,-0.110000000000
23.829996432000,-0.108000000000
23.837683553000,-0.103000000000
23.845370674000,-0.120000000000
23.853057795000,-0.156000000000
23.860744916000,-0.067000000000
23.868432037000,0.336000000000
23.876119158000,0.764000000000
23.883806279000,0.533000000000
23.891493400000,-0.254000000000
23.899180521000,-0.651000000000
23.906867642000,-0.418000000000
23.914554763000,-0.235000000000
23.922241884000,-0.252000000000
23.929929005000,-0.158000000000
23.937616126000,-0.060000000000
23.945303247000,-0.076000000000
23.952990368000,-0.079000000000
23.960677489000,-0.048000000000
23.968364610000,-0.040000000000
23.976051731000,-0.040000000000
23.983738852000,-0.028000000000
23.991425973000,-0.024000000000
23.999113094000,-0.014000000000
24.006800215000,-0.007000000000
24.014487336000,-0.002000000000
24.022174457000,0.004000000000
24.029861578000,0.019000000000
24.037548699000,0.031000000000
24.045235820000,0.038000000000
24.052922941000,0.050000000000
24.060610062000,0.064000000000
24.068297183000,0.074000000000
24.075984304000,0.079000000000
24.083671425000,0.091000000000
24.091358546000,0.101000000000
24.099045667000,0.105000000000
24.106732788000,0.108000000000
24.114419909000,0.113000000000
24.122107030000,0.110000000000
24.129794215000,0.086000000000
24.137481336000,0.050000000000
24.145168457000,0.000000000000
24.152855578000,-0.052000000000
24.160542699000,-0.086000000000
24.168229820000,-0.110000000000
24.175916941000,-0.127000000000
24.183604062000,-0.132000000000
24.191291183000,-0.132000000000
24.198978304000,-0.132000000000
24.206665425000,-0.127000000000
24.214352546000,-0.120000000000
24.222039667000,-0.120000000000
24.229726788000,-0.122000000000
24.237413909000,-0.117000000000
24.245101030000,-0.113000000000
24.252788151000,-0.113000000000
24.260475272000,-0.117000000000
24.268162393000,-0.117000000000
24.275849514000,-0.115000000000
24.283536635000,-0.120000000000
24.291223756000,-0.122000000000
24.298910877000,-0.125000000000
24.306597998000,-0.127000000000
24.314285119000,-0.134000000000
24.321972240000,-0.141000000000
24.329659361000,-0.144000000000
24.337346482000,-0.137000000000
24.345033603000,-0.129000000000
24.352720724000,-0.125000000000
24.360407845000,-0.117000000000
24.368094966000,-0.093000000000
24.375782087000,-0.076000000000
24.383469208000,-0.093000000000
24.391156329000,-0.115000000000
24.398843450000,-0.117000000000
24.406530571000,-0.110000000000
24.414217692000,-0.105000000000
24.421904813000,-0.101000000000
24.429591934000,-0.108000000000
24.437279055000,-0.153000000000
24.444966176000,-0.194000000000
24.452653297000,-0.004000000000
24.460340418000,0.495000000000
24.468027539000,0.824000000000
24.475714660000,0.444000000000
24.483401781000,-0.278000000000
24.491088902000,-0.509000000000
24.498776023000,-0.274000000000
24.506463144000,-0.180000000000
24.514150265000,-0.202000000000
24.521837386000,-0.125000000000
24.529524507000,-0.088000000000
24.537211628000,-0.110000000000
24.544898749000,-0.093000000000
24.552585870000,-0.069000000000
24.560272991000,-0.064000000000
24.567960112000,-0.057000000000
24.575647233000,-0.045000000000
24.583334354000,-0.043000000000
24.591021475000,-0.038000000000
24.598708596000,-0.031000000000
24.606395717000,-0.024000000000
24.614082838000,-0.019000000000
24.621769959000,-0.012000000000
24.629457080000,-0.004000000000
24.637144201000,0.000000000000
24.644831322000,0.007000000000
24.652518443000,0.012000000000
24.660205564000,0.014000000000
24.667892685000,0.014000000000
24.675579806000,0.012000000000
24.683266927000,0.007000000000
24.690954116000,0.009000000000
24.698641237000,0.012000000000
24.706328358000,0.014000000000
24.714015479000,0.009000000000
24.721702600000,-0.002000000000
24.729389721000,-0.021000000000
24.737076842000,-0.045000000000
24.744763963000,-0.072000000000
24.752451084000,-0.093000000000
24.760138205000,-0.103000000000
24.767825326000,-0.108000000000
24.775512447000,-0.113000000000
24.783199568000,-0.113000000000
24.790886689000,-0.105000000000
24.798573810000,-0.103000000000
24.806260931000,-0.108000000000
24.813948052000,-0.103000000000
24.821635173000,-0.098000000000
24.829322294000,-0.093000000000
24.837009415000,-0.096000000000
24.844696536000,-0.098000000000
24.852383657000,-0.098000000000
24.860070778000,-0.098000000000
24.867757899000,-0.101000000000
24.875445020000,-0.101000000000
24.883132141000,-0.103000000000
24.890819262000,-0.108000000000
24.898506383000,-0.110000000000
24.906193504000,-0.110000000000
24.913880625000,-0.113000000000
24.921567746000,-0.120000000000
24.929254867000,-0.129000000000
24.936941988000,-0.132000000000
24.944629109000,-0.125000000000
24.952316230000,-0.108000000000
24.960003351000,-0.101000000000
24.967690472000,-0.091000000000
24.975377593000,-0.067000000000
24.983064714000,-0.062000000000
24.990751835000,-0.084000000000
24.998438956000,-0.096000000000
25.006126077000,-0.093000000000
25.013813198000,-0.096000000000
25.021500319000,-0.101000000000
25.029187440000,-0.093000000000
25.036874561000,-0.098000000000
25.044561682000,-0.144000000000
25.052248803000,-0.163000000000
25.059935924000,0.074000000000
25.067623045000,0.593000000000
25.075310166000,0.836000000000
25.082997287000,0.351000000000
25.090684408000,-0.358000000000
25.098371529000,-0.505000000000
25.106058650000,-0.266000000000
25.113745771000,-0.202000000000
25.121432892000,-0.202000000000
25.129120013000,-0.105000000000
25.136807134000,-0.081000000000
25.144494255000,-0.108000000000
25.152181376000,-0.084000000000
25.159868497000,-0.062000000000
25.167555618000,-0.064000000000
25.175242739000,-0.055000000000
25.182929860000,-0.040000000000
25.190616981000,-0.038000000000
25.198304102000,-0.033000000000
25.205991223000,-0.024000000000
25.213678344000,-0.019000000000
25.221365465000,-0.012000000000
25.229052586000,-0.002000000000
25.236739707000,0.004000000000
25.244426828000,0.012000000000
25.252114013000,0.019000000000
25.259801134000,0.024000000000
25.267488255000,0.026000000000
25.275175376000,0.026000000000
25.282862497000,0.024000000000
25.290549618000,0.026000000000
25.298236739000,0.031000000000
25.305923860000,0.036000000000
25.313610981000,0.036000000000
25.321298102000,0.031000000000
25.328985223000,0.016000000000
25.336672344000,-0.012000000000
25.344359465000,-0.043000000000
25.352046586000,-0.072000000000
25.359733707000,-0.096000000000
25.367420828000,-0.110000000000
25.375107949000,-0.120000000000
25.382795070000,-0.122000000000
25.390482191000,-0.120000000000
25.398169312000,-0.115000000000
25.405856433000,-0.113000000000
25.413543554000,-0.113000000000
25.421230675000,-0.113000000000
25.428917796000,-0.108000000000
25.436604917000,-0.108000000000
25.444292038000,-0.108000000000
25.451979159000,-0.115000000000
25.459666280000,-0.117000000000
25.467353401000,-0.115000000000
25.475040522000,-0.115000000000
25.482727643000,-0.115000000000
25.490414764000,-0.115000000000
25.498101885000,-0.120000000000
25.505789006000,-0.127000000000
25.513476127000,-0.129000000000
25.521163248000,-0.127000000000
25.528850369000,-0.132000000000
25.536537490000,-0.144000000000
25.544224611000,-0.144000000000
25.551911732000,-0.144000000000
25.559598853000,-0.144000000000
25.567285974000,-0.134000000000
25.574973095000,-0.122000000000
25.582660216000,-0.110000000000
25.590347337000,-0.086000000000
25.598034458000,-0.086000000000
25.605721579000,-0.115000000000
25.613408700000,-0.127000000000
25.621095821000,-0.122000000000
25.628782942000,-0.122000000000
25.636470063000,-0.120000000000
25.644157184000,-0.115000000000
25.651844305000,-0.125000000000
25.659531426000,-0.153000000000
25.667218547000,-0.151000000000
25.674905668000,0.084000000000
25.682592789000,0.593000000000
25.690279910000,0.793000000000
25.697967031000,0.228000000000
25.705654152000,-0.492000000000
25.713341273000,-0.593000000000
25.721028394000,-0.331000000000
25.728715515000,-0.259000000000
25.736402636000,-0.245000000000
25.744089757000,-0.132000000000
25.751776878000,-0.091000000000
25.759463999000,-0.120000000000
25.767151120000,-0.105000000000
25.774838241000,-0.079000000000
25.782525362000,-0.074000000000
25.790212483000,-0.067000000000
25.797899604000,-0.055000000000
25.805586725000,-0.043000000000
25.813273910000,-0.033000000000
25.820960822000,-0.026000000000
25.828647734000,-0.016000000000
25.836334646000,-0.012000000000
25.844021558000,-0.002000000000
25.851708470000,0.014000000000
25.859395382000,0.026000000000
25.867082294000,0.033000000000
25.874769206000,0.052000000000
25.882456118000,0.064000000000
25.890143030000,0.067000000000
25.897829942000,0.076000000000
25.905516854000,0.086000000000
25.913203766000,0.093000000000
25.920890678000,0.105000000000
25.928577590000,0.110000000000
25.936264502000,0.093000000000
25.943951414000,0.060000000000
25.951638326000,0.012000000000
25.959325238000,-0.043000000000
25.967012150000,-0.093000000000
25.974699062000,-0.125000000000
25.982385974000,-0.137000000000
25.990072886000,-0.149000000000
25.997759798000,-0.161000000000
26.005446710000,-0.161000000000
26.013133622000,-0.158000000000
26.020820534000,-0.153000000000
26.028507446000,-0.151000000000
26.036194358000,-0.149000000000
26.043881270000,-0.141000000000
26.051568182000,-0.134000000000
26.059255094000,-0.141000000000
26.066942006000,-0.144000000000
26.074628918000,-0.134000000000
26.082315830000,-0.141000000000
26.090002742000,-0.153000000000
26.097689654000,-0.151000000000
26.105376566000,-0.149000000000
26.113063478000,-0.151000000000
26.120750390000,-0.151000000000
26.128437302000,-0.151000000000
26.136124214000,-0.161000000000
26.143811126000,-0.170000000000
26.151498038000,-0.170000000000
26.159184950000,-0.163000000000
26.166871862000,-0.158000000000
26.174558774000,-0.153000000000
26.182245686000,-0.144000000000
26.189932598000,-0.122000000000
26.197619510000,-0.103000000000
26.205306422000,-0.115000000000
26.212993334000,-0.134000000000
26.220680246000,-0.132000000000
26.228367158000,-0.134000000000
26.236054070000,-0.137000000000
26.243740982000,-0.129000000000
26.251427894000,-0.127000000000
26.259114806000,-0.153000000000
26.266801718000,-0.163000000000
26.274488630000,0.045000000000
26.282175542000,0.541000000000
26.289862454000,0.776000000000
26.297549366000,0.235000000000
26.305236278000,-0.519000000000
26.312923190000,-0.639000000000
26.320610102000,-0.343000000000
26.328297014000,-0.247000000000
26.335983926000,-0.252000000000
26.343670838000,-0.139000000000
26.351357750000,-0.086000000000
26.359044662000,-0.110000000000
26.366731574000,-0.098000000000
26.374418550000,-0.072000000000
26.382105462000,-0.067000000000
26.389792374000,-0.064000000000
26.397479286000,-0.057000000000
26.405166198000,-0.045000000000
26.412853110000,-0.031000000000
26.420540022000,-0.019000000000
26.428226934000,-0.016000000000
26.435913846000,-0.012000000000
26.443600758000,0.000000000000
26.451287670000,0.019000000000
26.458974582000,0.031000000000
26.466661494000,0.036000000000
26.474348406000,0.050000000000
26.482035318000,0.067000000000
26.489722230000,0.072000000000
26.497409142000,0.079000000000
26.505096054000,0.096000000000
26.512782966000,0.105000000000
26.520469878000,0.108000000000
26.528156790000,0.110000000000
26.535843702000,0.093000000000
26.543530614000,0.057000000000
26.551217526000,0.016000000000
26.558904438000,-0.026000000000
26.566591350000,-0.069000000000
26.574278262000,-0.110000000000
26.581965174000,-0.134000000000
26.589652086000,-0.146000000000
26.597338998000,-0.151000000000
26.605025910000,-0.151000000000
26.612712822000,-0.146000000000
26.620399734000,-0.144000000000
26.628086646000,-0.141000000000
26.635773558000,-0.134000000000
26.643460470000,-0.129000000000
26.651147382000,-0.127000000000
26.658834294000,-0.125000000000
26.666521206000,-0.127000000000
26.674208118000,-0.132000000000
26.681895030000,-0.132000000000
26.689581942000,-0.129000000000
26.697268854000,-0.129000000000
26.704955766000,-0.132000000000
26.712642678000,-0.132000000000
26.720329590000,-0.129000000000
26.728016502000,-0.137000000000
26.735703414000,-0.144000000000
26.743390326000,-0.149000000000
26.751077238000,-0.151000000000
26.758764150000,-0.141000000000
26.766451062000,-0.125000000000
26.774137974000,-0.122000000000
26.781824886000,-0.108000000000
26.789511798000,-0.079000000000
26.797198710000,-0.076000000000
26.804885622000,-0.103000000000
26.812572534000,-0.110000000000
26.820259446000,-0.098000000000
26.827946358000,-0.101000000000
26.835633270000,-0.105000000000
26.843320182000,-0.096000000000
26.851007094000,-0.105000000000
26.858694006000,-0.156000000000
26.866380918000,-0.120000000000
26.874067830000,0.230000000000
26.881754742000,0.726000000000
26.889441654000,0.707000000000
26.897128566000,0.004000000000
26.904815478000,-0.572000000000
26.912502390000,-0.464000000000
26.920189302000,-0.216000000000
26.927876214000,-0.218000000000
26.935563186000,-0.180000000000
26.943250307000,-0.076000000000
26.950937428000,-0.079000000000
26.958624549000,-0.096000000000
26.966311670000,-0.062000000000
26.973998791000,-0.048000000000
26.981685912000,-0.060000000000
26.989373033000,-0.048000000000
26.997060154000,-0.031000000000
27.004747275000,-0.033000000000
27.012434396000,-0.033000000000
27.020121517000,-0.016000000000
27.027808638000,-0.002000000000
27.035495759000,-0.002000000000
27.043182880000,0.002000000000
27.050870001000,0.014000000000
27.058557122000,0.024000000000
27.066244243000,0.033000000000
27.073931364000,0.040000000000
27.081618485000,0.045000000000
27.089305606000,0.050000000000
27.096992727000,0.052000000000
27.104679848000,0.057000000000
27.112366969000,0.060000000000
27.120054090000,0.062000000000
27.127741211000,0.062000000000
27.135428332000,0.048000000000
27.143115453000,0.024000000000
27.150802574000,-0.007000000000
27.158489695000,-0.043000000000
27.166176816000,-0.076000000000
27.173863937000,-0.103000000000
27.181551058000,-0.117000000000
27.189238179000,-0.125000000000
27.196925300000,-0.127000000000
27.204612421000,-0.127000000000
27.212299542000,-0.117000000000
27.219986663000,-0.113000000000
27.227673784000,-0.115000000000
27.235360905000,-0.113000000000
27.243048026000,-0.105000000000
27.250735147000,-0.103000000000
27.258422268000,-0.105000000000
27.266109389000,-0.105000000000
27.273796510000,-0.105000000000
27.281483631000,-0.113000000000
27.289170752000,-0.115000000000
27.296857873000,-0.113000000000
27.304544994000,-0.117000000000
27.312232115000,-0.115000000000
27.319919236000,-0.117000000000
27.327606357000,-0.129000000000
27.335293478000,-0.137000000000
27.342980599000,-0.139000000000
27.350667720000,-0.139000000000
27.358354841000,-0.132000000000
27.366041962000,-0.122000000000
27.373729083000,-0.115000000000
27.381416204000,-0.101000000000
27.389103325000,-0.076000000000
27.396790446000,-0.079000000000
27.404477567000,-0.108000000000
27.412164688000,-0.115000000000
27.419851809000,-0.105000000000
27.427538930000,-0.108000000000
27.435226051000,-0.108000000000
27.442913172000,-0.101000000000
27.450600293000,-0.115000000000
27.458287414000,-0.165000000000
27.465974535000,-0.170000000000
27.473661656000,0.113000000000
27.481348777000,0.639000000000
27.489035898000,0.815000000000
27.496723083000,0.264000000000
27.504410204000,-0.420000000000
27.512097325000,-0.490000000000
27.519784446000,-0.240000000000
27.527471567000,-0.202000000000
27.535158688000,-0.199000000000
27.542845809000,-0.108000000000
27.550532930000,-0.091000000000
27.558220051000,-0.115000000000
27.565907172000,-0.093000000000
27.573594293000,-0.072000000000
27.581281414000,-0.074000000000
27.588968535000,-0.064000000000
27.596655656000,-0.052000000000
27.604342777000,-0.045000000000
27.612029898000,-0.045000000000
27.619717019000,-0.038000000000
27.627404140000,-0.028000000000
27.635091261000,-0.021000000000
27.642778382000,-0.016000000000
27.650465503000,-0.012000000000
27.658152624000,-0.004000000000
27.665839745000,0.000000000000
27.673526866000,0.004000000000
27.681213987000,0.009000000000
27.688901108000,0.012000000000
27.696588229000,0.007000000000
27.704275350000,0.007000000000
27.711962471000,0.012000000000
27.719649592000,0.012000000000
27.727336713000,0.009000000000
27.735023834000,0.004000000000
27.742710955000,-0.007000000000
27.750398076000,-0.028000000000
27.758085197000,-0.055000000000
27.765772318000,-0.079000000000
27.773459439000,-0.101000000000
27.781146560000,-0.115000000000
27.788833681000,-0.117000000000
27.796520802000,-0.120000000000
27.804207923000,-0.117000000000
27.811895044000,-0.113000000000
27.819582165000,-0.110000000000
27.827269286000,-0.110000000000
27.834956407000,-0.108000000000
27.842643528000,-0.108000000000
27.850330649000,-0.108000000000
27.858017770000,-0.108000000000
27.865704891000,-0.103000000000
27.873392012000,-0.105000000000
27.881079133000,-0.108000000000
27.888766254000,-0.108000000000
27.896453375000,-0.110000000000
27.904140496000,-0.110000000000
27.911827617000,-0.113000000000
27.919514738000,-0.117000000000
27.927201859000,-0.120000000000
27.934888980000,-0.120000000000
27.942576101000,-0.125000000000
27.950263222000,-0.132000000000
27.957950343000,-0.134000000000
27.965637464000,-0.137000000000
27.973324585000,-0.129000000000
27.981011706000,-0.117000000000
27.988698827000,-0.110000000000
27.996385948000,-0.098000000000
28.004073069000,-0.074000000000
28.011760190000,-0.076000000000
28.019447311000,-0.101000000000
28.027134432000,-0.108000000000
28.034821553000,-0.105000000000
28.042508674000,-0.108000000000
28.050195795000,-0.108000000000
28.057882984000,-0.101000000000
28.065569757000,-0.110000000000
28.073256530000,-0.156000000000
28.080943303000,-0.163000000000
28.088630076000,0.093000000000
28.096316849000,0.613000000000
28.104003622000,0.820000000000
28.111690395000,0.303000000000
28.119377168000,-0.399000000000
28.127063941000,-0.521000000000
28.134750714000,-0.276000000000
28.142437487000,-0.216000000000
28.150124260000,-0.216000000000
28.157811033000,-0.120000000000
28.165497806000,-0.096000000000
28.173184579000,-0.122000000000
28.180871352000,-0.101000000000
28.188558125000,-0.076000000000
28.196244898000,-0.076000000000
28.203931671000,-0.067000000000
28.211618444000,-0.052000000000
28.219305217000,-0.052000000000
28.226991990000,-0.050000000000
28.234678763000,-0.040000000000
28.242365536000,-0.028000000000
28.250052309000,-0.019000000000
28.257739082000,-0.016000000000
28.265425855000,-0.009000000000
28.273112628000,-0.002000000000
28.280799401000,0.007000000000
28.288486174000,0.014000000000
28.296172947000,0.014000000000
28.303859720000,0.012000000000
28.311546493000,0.016000000000
28.319233266000,0.024000000000
28.326920039000,0.026000000000
28.334606812000,0.031000000000
28.342293585000,0.036000000000
28.349980358000,0.028000000000
28.357667131000,0.009000000000
28.365353904000,-0.024000000000
28.373040677000,-0.055000000000
28.380727450000,-0.084000000000
28.388414223000,-0.108000000000
28.396100996000,-0.122000000000
28.403787769000,-0.132000000000
28.411474542000,-0.139000000000
28.419161315000,-0.139000000000
28.426848088000,-0.139000000000
28.434534861000,-0.132000000000
28.442221634000,-0.132000000000
28.449908407000,-0.134000000000
28.457595180000,-0.127000000000
28.465281953000,-0.125000000000
28.472968726000,-0.129000000000
28.480655499000,-0.129000000000
28.488342272000,-0.129000000000
28.496029045000,-0.129000000000
28.503715818000,-0.132000000000
28.511402591000,-0.134000000000
28.519089364000,-0.141000000000
28.526776137000,-0.141000000000
28.534462910000,-0.141000000000
28.542149683000,-0.144000000000
28.549836456000,-0.144000000000
28.557523229000,-0.146000000000
28.565210002000,-0.153000000000
28.572896775000,-0.156000000000
28.580583548000,-0.156000000000
28.588270321000,-0.156000000000
28.595957094000,-0.151000000000
28.603643867000,-0.139000000000
28.611330640000,-0.120000000000
28.619017450000,-0.098000000000
28.626704502000,-0.105000000000
28.634391554000,-0.127000000000
28.642078606000,-0.132000000000
28.649765658000,-0.132000000000
28.657452710000,-0.129000000000
28.665139762000,-0.127000000000
28.672826814000,-0.125000000000
28.680513866000,-0.134000000000
28.688200918000,-0.158000000000
28.695887970000,-0.120000000000
28.703575022000,0.199000000000
28.711262074000,0.687000000000
28.718949126000,0.675000000000
28.726636178000,-0.050000000000
28.734323230000,-0.642000000000
28.742010282000,-0.541000000000
28.749697334000,-0.298000000000
28.757384386000,-0.288000000000
28.765071438000,-0.228000000000
28.772758490000,-0.108000000000
28.780445542000,-0.101000000000
28.788132594000,-0.115000000000
28.795819646000,-0.084000000000
28.803506698000,-0.076000000000
28.811193750000,-0.081000000000
28.818880802000,-0.057000000000
28.826567854000,-0.045000000000
28.834254906000,-0.050000000000
28.841941958000,-0.038000000000
28.849629010000,-0.024000000000
28.857316062000,-0.019000000000
28.865003114000,-0.004000000000
28.872690166000,0.019000000000
28.880377218000,0.026000000000
28.888064270000,0.028000000000
28.895751322000,0.043000000000
28.903438374000,0.062000000000
28.911125426000,0.072000000000
28.918812478000,0.079000000000
28.926499530000,0.098000000000
28.934186582000,0.117000000000
28.941873634000,0.125000000000
28.949560686000,0.120000000000
28.957247738000,0.110000000000
28.964934790000,0.096000000000
28.972621842000,0.062000000000
28.980308894000,0.007000000000
28.987995946000,-0.050000000000
28.995682998000,-0.091000000000
29.003370050000,-0.125000000000
29.011057102000,-0.151000000000
29.018744154000,-0.170000000000
29.026431206000,-0.170000000000
29.034118258000,-0.158000000000
29.041805310000,-0.158000000000
29.049492362000,-0.163000000000
29.057179414000,-0.151000000000
29.064866466000,-0.146000000000
29.072553518000,-0.153000000000
29.080240570000,-0.146000000000
29.087927622000,-0.134000000000
29.095614674000,-0.144000000000
29.103301726000,-0.153000000000
29.110988778000,-0.146000000000
29.118675830000,-0.141000000000
29.126362882000,-0.153000000000
29.134049934000,-0.161000000000
29.141736986000,-0.156000000000
29.149424038000,-0.156000000000
29.157111090000,-0.156000000000
29.164798142000,-0.158000000000
29.172485194000,-0.168000000000
29.180172260000,-0.175000000000
29.187859381000,-0.161000000000
29.195546502000,-0.146000000000
29.203233623000,-0.153000000000
29.210920744000,-0.149000000000
29.218607865000,-0.115000000000
29.226294986000,-0.103000000000
29.233982107000,-0.125000000000
29.241669228000,-0.134000000000
29.249356349000,-0.129000000000
29.257043470000,-0.129000000000
29.264730591000,-0.134000000000
29.272417712000,-0.129000000000
29.280104833000,-0.134000000000
29.287791954000,-0.161000000000
29.295479075000,-0.139000000000
29.303166196000,0.132000000000
29.310853317000,0.625000000000
29.318540438000,0.726000000000
