time,LSB
0.000000000000,0.355000000000
0.007686285000,0.385000000000
0.015372570000,0.397000000000
0.023058855000,0.397000000000
0.030745140000,0.392000000000
0.038431425000,0.372000000000
0.046117710000,0.333000000000
0.053803995000,0.281000000000
0.061490280000,0.202000000000
0.069176565000,0.081000000000
0.076862850000,-0.039000000000
0.084549135000,-0.145000000000
0.092235420000,-0.239000000000
0.099921705000,-0.311000000000
0.107607990000,-0.348000000000
0.115294275000,-0.358000000000
0.122980560000,-0.360000000000
0.130666845000,-0.360000000000
0.138353130000,-0.355000000000
0.146039415000,-0.343000000000
0.153725700000,-0.328000000000
0.161411985000,-0.313000000000
0.169098270000,-0.298000000000
0.176784555000,-0.291000000000
0.184470840000,-0.279000000000
0.192157125000,-0.259000000000
0.199843410000,-0.246000000000
0.207529695000,-0.242000000000
0.215215980000,-0.239000000000
0.222902265000,-0.224000000000
0.230588550000,-0.209000000000
0.238274835000,-0.214000000000
0.245961120000,-0.217000000000
0.253647405000,-0.202000000000
0.261333690000,-0.200000000000
0.269019975000,-0.212000000000
0.276706260000,-0.205000000000
0.284392545000,-0.195000000000
0.292078830000,-0.197000000000
0.299765115000,-0.197000000000
0.307451400000,-0.195000000000
0.315137685000,-0.205000000000
0.322823970000,-0.207000000000
0.330510255000,-0.190000000000
0.338196540000,-0.172000000000
0.345882885000,-0.165000000000
0.353568752000,-0.155000000000
0.361254619000,-0.130000000000
0.368940486000,-0.116000000000
0.376626353000,-0.143000000000
0.384312220000,-0.182000000000
0.391998087000,-0.192000000000
0.399683954000,-0.180000000000
0.407369821000,-0.172000000000
0.415055688000,-0.167000000000
0.422741555000,-0.163000000000
0.430427422000,-0.160000000000
0.438113289000,-0.160000000000
0.445799156000,-0.155000000000
0.453485023000,-0.155000000000
0.461170890000,-0.167000000000
0.468856757000,-0.214000000000
0.476542624000,-0.214000000000
0.484228491000,0.111000000000
0.491914358000,0.810000000000
0.499600225000,1.427000000000
0.507286092000,1.457000000000
0.514971959000,0.573000000000
0.522657826000,-0.568000000000
0.530343693000,-0.629000000000
0.538029560000,-0.101000000000
0.545715427000,-0.096000000000
0.553401294000,-0.209000000000
0.561087161000,-0.108000000000
0.568773028000,-0.083000000000
0.576458895000,-0.121000000000
0.584144762000,-0.079000000000
0.591830629000,-0.046000000000
0.599516496000,-0.044000000000
0.607202363000,-0.014000000000
0.614888230000,0.022000000000
0.622574097000,0.044000000000
0.630259964000,0.074000000000
0.637945831000,0.113000000000
0.645631698000,0.150000000000
0.653317565000,0.192000000000
0.661003432000,0.237000000000
0.668689299000,0.279000000000
0.676375166000,0.316000000000
0.684061033000,0.345000000000
0.691746900000,0.360000000000
0.699432767000,0.360000000000
0.707118634000,0.345000000000
0.714804501000,0.328000000000
0.722490368000,0.301000000000
0.730176235000,0.249000000000
0.737862102000,0.167000000000
0.745547969000,0.066000000000
0.753233836000,-0.049000000000
0.760919703000,-0.163000000000
0.768605570000,-0.259000000000
0.776291437000,-0.328000000000
0.783977304000,-0.365000000000
0.791663171000,-0.382000000000
0.799349038000,-0.390000000000
0.807034905000,-0.387000000000
0.814720772000,-0.377000000000
0.822406639000,-0.368000000000
0.830092506000,-0.358000000000
0.837778373000,-0.343000000000
0.845464240000,-0.328000000000
0.853150107000,-0.313000000000
0.860835974000,-0.301000000000
0.868521841000,-0.291000000000
0.876207708000,-0.279000000000
0.883893575000,-0.271000000000
0.891579442000,-0.264000000000
0.899265309000,-0.254000000000
0.906951228000,-0.246000000000
0.914637513000,-0.242000000000
0.922323798000,-0.237000000000
0.930010083000,-0.234000000000
0.937696368000,-0.232000000000
0.945382653000,-0.227000000000
0.953068938000,-0.227000000000
0.960755223000,-0.227000000000
0.968441508000,-0.224000000000
0.976127793000,-0.222000000000
0.983814078000,-0.224000000000
0.991500363000,-0.224000000000
0.999186648000,-0.227000000000
1.006872933000,-0.229000000000
1.014559218000,-0.219000000000
1.022245503000,-0.197000000000
1.029931788000,-0.182000000000
1.037618073000,-0.172000000000
1.045304358000,-0.153000000000
1.052990643000,-0.138000000000
1.060676928000,-0.158000000000
1.068363213000,-0.195000000000
1.076049498000,-0.205000000000
1.083735783000,-0.192000000000
1.091422068000,-0.187000000000
1.099108353000,-0.185000000000
1.106794638000,-0.177000000000
1.114480923000,-0.172000000000
1.122167208000,-0.170000000000
1.129853493000,-0.165000000000
1.137539778000,-0.170000000000
1.145226063000,-0.190000000000
1.152912348000,-0.239000000000
1.160598633000,-0.234000000000
1.168284918000,0.093000000000
1.175971203000,0.815000000000
1.183657488000,1.516000000000
1.191343773000,1.674000000000
1.199030058000,0.773000000000
1.206716343000,-0.555000000000
1.214402628000,-0.701000000000
1.222088913000,-0.111000000000
1.229775198000,-0.098000000000
1.237461483000,-0.261000000000
1.245147768000,-0.145000000000
1.252834053000,-0.101000000000
1.260520338000,-0.153000000000
1.268206623000,-0.113000000000
1.275892908000,-0.064000000000
1.283579193000,-0.064000000000
1.291265478000,-0.037000000000
1.298951763000,0.002000000000
1.306638048000,0.027000000000
1.314324333000,0.056000000000
1.322010618000,0.098000000000
1.329696903000,0.135000000000
1.337383188000,0.175000000000
1.345069473000,0.222000000000
1.352755758000,0.269000000000
1.360442043000,0.308000000000
1.368128328000,0.340000000000
1.375814613000,0.358000000000
1.383500898000,0.360000000000
1.391187183000,0.353000000000
1.398873468000,0.338000000000
1.406559753000,0.313000000000
1.414246038000,0.266000000000
1.421932323000,0.192000000000
1.429618608000,0.088000000000
1.437304893000,-0.024000000000
1.444991178000,-0.138000000000
1.452677463000,-0.237000000000
1.460363748000,-0.313000000000
1.468050089000,-0.358000000000
1.475735956000,-0.377000000000
1.483421823000,-0.385000000000
1.491107690000,-0.382000000000
1.498793557000,-0.372000000000
1.506479424000,-0.363000000000
1.514165291000,-0.353000000000
1.521851158000,-0.340000000000
1.529537025000,-0.326000000000
1.537222892000,-0.316000000000
1.544908759000,-0.301000000000
1.552594626000,-0.286000000000
1.560280493000,-0.274000000000
1.567966360000,-0.266000000000
1.575652227000,-0.259000000000
1.583338094000,-0.251000000000
1.591023961000,-0.246000000000
1.598709828000,-0.244000000000
1.606395695000,-0.239000000000
1.614081562000,-0.237000000000
1.621767429000,-0.237000000000
1.629453296000,-0.234000000000
1.637139163000,-0.232000000000
1.644825030000,-0.229000000000
1.652510897000,-0.229000000000
1.660196764000,-0.227000000000
1.667882631000,-0.222000000000
1.675568498000,-0.219000000000
1.683254365000,-0.219000000000
1.690940232000,-0.224000000000
1.698626099000,-0.227000000000
1.706311966000,-0.214000000000
1.713997833000,-0.195000000000
1.721683700000,-0.177000000000
1.729369567000,-0.165000000000
1.737055434000,-0.150000000000
1.744741301000,-0.135000000000
1.752427168000,-0.150000000000
1.760113035000,-0.187000000000
1.767798902000,-0.205000000000
1.775484769000,-0.190000000000
1.783170636000,-0.182000000000
1.790856503000,-0.182000000000
1.798542370000,-0.175000000000
1.806228237000,-0.170000000000
1.813914104000,-0.167000000000
1.821599971000,-0.163000000000
1.829285838000,-0.165000000000
1.836971705000,-0.177000000000
1.844657572000,-0.224000000000
1.852343439000,-0.254000000000
1.860029306000,-0.022000000000
1.867715173000,0.642000000000
1.875401040000,1.430000000000
1.883086907000,1.845000000000
1.890772774000,1.227000000000
1.898458641000,-0.249000000000
1.906144508000,-0.822000000000
1.913830375000,-0.234000000000
1.921516242000,-0.046000000000
1.929202109000,-0.264000000000
1.936887976000,-0.192000000000
1.944573843000,-0.101000000000
1.952259710000,-0.155000000000
1.959945577000,-0.135000000000
1.967631444000,-0.076000000000
1.975317311000,-0.069000000000
1.983003178000,-0.054000000000
1.990689045000,-0.009000000000
1.998374912000,0.019000000000
2.006060779000,0.044000000000
2.013746646000,0.083000000000
2.021432513000,0.125000000000
2.029118432000,0.165000000000
2.036804717000,0.212000000000
2.044491002000,0.259000000000
2.052177287000,0.298000000000
2.059863572000,0.333000000000
2.067549857000,0.355000000000
2.075236142000,0.363000000000
2.082922427000,0.360000000000
2.090608712000,0.348000000000
2.098294997000,0.326000000000
2.105981282000,0.288000000000
2.113667567000,0.222000000000
2.121353852000,0.125000000000
2.129040137000,0.012000000000
2.136726422000,-0.103000000000
2.144412707000,-0.212000000000
2.152098992000,-0.296000000000
2.159785277000,-0.348000000000
2.167471562000,-0.377000000000
2.175157847000,-0.387000000000
2.182844132000,-0.385000000000
2.190530417000,-0.377000000000
2.198216702000,-0.365000000000
2.205902987000,-0.350000000000
2.213589272000,-0.338000000000
2.221275557000,-0.323000000000
2.228961842000,-0.308000000000
2.236648127000,-0.296000000000
2.244334412000,-0.286000000000
2.252020697000,-0.271000000000
2.259706982000,-0.259000000000
2.267393267000,-0.249000000000
2.275079552000,-0.244000000000
2.282765837000,-0.234000000000
2.290452122000,-0.229000000000
2.298138407000,-0.227000000000
2.305824692000,-0.224000000000
2.313510977000,-0.222000000000
2.321197262000,-0.222000000000
2.328883547000,-0.217000000000
2.336569832000,-0.214000000000
2.344256117000,-0.214000000000
2.351942402000,-0.212000000000
2.359628687000,-0.207000000000
2.367314972000,-0.202000000000
2.375001257000,-0.197000000000
2.382687542000,-0.200000000000
2.390373827000,-0.205000000000
2.398060112000,-0.207000000000
2.405746397000,-0.200000000000
2.413432682000,-0.180000000000
2.421118967000,-0.160000000000
2.428805252000,-0.143000000000
2.436491537000,-0.130000000000
2.444177822000,-0.113000000000
2.451864107000,-0.123000000000
2.459550392000,-0.160000000000
2.467236677000,-0.182000000000
2.474922962000,-0.170000000000
2.482609247000,-0.163000000000
2.490295532000,-0.160000000000
2.497981817000,-0.155000000000
2.505668102000,-0.153000000000
2.513354387000,-0.150000000000
2.521040672000,-0.143000000000
2.528726957000,-0.140000000000
2.536413242000,-0.153000000000
2.544099527000,-0.192000000000
2.551785812000,-0.246000000000
2.559472097000,-0.130000000000
2.567158382000,0.410000000000
2.574844667000,1.205000000000
2.582530952000,1.800000000000
2.590217293000,1.563000000000
2.597903578000,0.207000000000
2.605589863000,-0.805000000000
2.613276148000,-0.417000000000
2.620962433000,-0.007000000000
2.628648718000,-0.205000000000
2.636335003000,-0.224000000000
2.644021288000,-0.093000000000
2.651707573000,-0.125000000000
2.659393858000,-0.140000000000
2.667080143000,-0.079000000000
2.674766428000,-0.056000000000
2.682452713000,-0.046000000000
2.690138998000,-0.007000000000
2.697825283000,0.024000000000
2.705511568000,0.049000000000
2.713197853000,0.083000000000
2.720884138000,0.121000000000
2.728570423000,0.163000000000
2.736256708000,0.209000000000
2.743942993000,0.256000000000
2.751629278000,0.296000000000
2.759315563000,0.335000000000
2.767001848000,0.365000000000
2.774688133000,0.377000000000
2.782374418000,0.377000000000
2.790060703000,0.370000000000
2.797746988000,0.355000000000
2.805433273000,0.328000000000
2.813119558000,0.271000000000
2.820805843000,0.175000000000
2.828492128000,0.064000000000
2.836178413000,-0.051000000000
2.843864698000,-0.165000000000
2.851550983000,-0.254000000000
2.859237268000,-0.313000000000
2.866923553000,-0.350000000000
2.874609838000,-0.365000000000
2.882296123000,-0.365000000000
2.889982408000,-0.358000000000
2.897668693000,-0.353000000000
2.905354978000,-0.343000000000
2.913041263000,-0.326000000000
2.920727548000,-0.311000000000
2.928413833000,-0.298000000000
2.936100118000,-0.286000000000
2.943786403000,-0.269000000000
2.951472688000,-0.256000000000
2.959158973000,-0.249000000000
2.966845258000,-0.239000000000
2.974531543000,-0.224000000000
2.982217828000,-0.219000000000
2.989904113000,-0.219000000000
2.997590398000,-0.214000000000
3.005276683000,-0.202000000000
3.012962968000,-0.202000000000
3.020649253000,-0.205000000000
3.028335538000,-0.200000000000
3.036021823000,-0.192000000000
3.043708108000,-0.192000000000
3.051394393000,-0.202000000000
3.059080678000,-0.200000000000
3.066766963000,-0.190000000000
3.074453248000,-0.182000000000
3.082139533000,-0.182000000000
3.089825818000,-0.185000000000
3.097512103000,-0.192000000000
3.105198388000,-0.190000000000
3.112884673000,-0.172000000000
3.120570958000,-0.153000000000
3.128257243000,-0.138000000000
3.135943528000,-0.125000000000
3.143629813000,-0.111000000000
3.151316154000,-0.101000000000
3.159002091000,-0.125000000000
3.166688028000,-0.163000000000
3.174373965000,-0.167000000000
3.182059902000,-0.150000000000
3.189745839000,-0.148000000000
3.197431776000,-0.148000000000
3.205117713000,-0.140000000000
3.212803650000,-0.133000000000
3.220489587000,-0.133000000000
3.228175524000,-0.130000000000
3.235861461000,-0.130000000000
3.243547398000,-0.143000000000
3.251233335000,-0.187000000000
3.258919272000,-0.224000000000
3.266605209000,-0.019000000000
3.274291146000,0.622000000000
3.281977083000,1.380000000000
3.289663020000,1.728000000000
3.297348957000,1.121000000000
3.305034894000,-0.234000000000
3.312720831000,-0.760000000000
3.320406768000,-0.205000000000
3.328092705000,-0.009000000000
3.335778642000,-0.207000000000
3.343464579000,-0.143000000000
3.351150516000,-0.056000000000
3.358836453000,-0.106000000000
3.366522390000,-0.091000000000
3.374208327000,-0.039000000000
3.381894264000,-0.029000000000
3.389580201000,-0.012000000000
3.397266138000,0.027000000000
3.404952075000,0.051000000000
3.412638012000,0.079000000000
3.420323949000,0.118000000000
3.428009886000,0.158000000000
3.435695823000,0.195000000000
3.443381760000,0.242000000000
3.451067697000,0.288000000000
3.458753634000,0.333000000000
3.466439571000,0.360000000000
3.474125508000,0.380000000000
3.481811445000,0.395000000000
3.489497382000,0.392000000000
3.497183319000,0.377000000000
3.504869256000,0.353000000000
3.512555193000,0.311000000000
3.520241130000,0.244000000000
3.527927067000,0.153000000000
3.535613004000,0.037000000000
3.543298941000,-0.081000000000
3.550984878000,-0.187000000000
3.558670815000,-0.276000000000
3.566356752000,-0.328000000000
3.574042689000,-0.353000000000
3.581728626000,-0.368000000000
3.589414563000,-0.368000000000
3.597100500000,-0.358000000000
3.604786437000,-0.350000000000
3.612472374000,-0.343000000000
3.620158311000,-0.328000000000
3.627844248000,-0.311000000000
3.635530185000,-0.298000000000
3.643216122000,-0.286000000000
3.650902059000,-0.271000000000
3.658587996000,-0.261000000000
3.666273933000,-0.251000000000
3.673959870000,-0.239000000000
3.681645807000,-0.232000000000
3.689331744000,-0.229000000000
3.697017681000,-0.222000000000
3.704703618000,-0.214000000000
3.712389588000,-0.212000000000
3.720075804000,-0.212000000000
3.727762020000,-0.209000000000
3.735448236000,-0.207000000000
3.743134452000,-0.207000000000
3.750820668000,-0.202000000000
3.758506884000,-0.202000000000
3.766193100000,-0.205000000000
3.773879316000,-0.200000000000
3.781565532000,-0.195000000000
3.789251748000,-0.195000000000
3.796937964000,-0.200000000000
3.804624180000,-0.205000000000
3.812310396000,-0.202000000000
3.819996612000,-0.190000000000
3.827682828000,-0.167000000000
3.835369044000,-0.150000000000
3.843055260000,-0.140000000000
3.850741476000,-0.128000000000
3.858427692000,-0.118000000000
3.866113908000,-0.140000000000
3.873800124000,-0.177000000000
3.881486340000,-0.185000000000
3.889172556000,-0.172000000000
3.896858772000,-0.172000000000
3.904544988000,-0.167000000000
3.912231204000,-0.160000000000
3.919917420000,-0.158000000000
3.927603636000,-0.155000000000
3.935289852000,-0.150000000000
3.942976068000,-0.153000000000
3.950662284000,-0.170000000000
3.958348500000,-0.217000000000
3.966034716000,-0.242000000000
3.973720932000,0.014000000000
3.981407148000,0.698000000000
3.989093364000,1.437000000000
3.996779580000,1.711000000000
4.004465796000,0.983000000000
4.012152012000,-0.387000000000
4.019838228000,-0.768000000000
4.027524444000,-0.182000000000
4.035210660000,-0.061000000000
4.042896876000,-0.244000000000
4.050583092000,-0.158000000000
4.058269308000,-0.091000000000
4.065955524000,-0.140000000000
4.073641740000,-0.113000000000
4.081327956000,-0.066000000000
4.089014172000,-0.061000000000
4.096700388000,-0.039000000000
4.104386604000,0.000000000000
4.112072820000,0.024000000000
4.119759036000,0.054000000000
4.127445252000,0.093000000000
4.135131468000,0.130000000000
4.142817684000,0.170000000000
4.150503900000,0.219000000000
4.158190116000,0.264000000000
4.165876332000,0.303000000000
4.173562548000,0.335000000000
4.181248764000,0.355000000000
4.188934980000,0.363000000000
4.196621196000,0.358000000000
4.204307412000,0.345000000000
4.211993628000,0.323000000000
4.219679844000,0.284000000000
4.227366060000,0.214000000000
4.235052276000,0.116000000000
4.242738492000,0.004000000000
4.250424708000,-0.108000000000
4.258110924000,-0.217000000000
4.265797140000,-0.298000000000
4.273483362000,-0.350000000000
4.281169647000,-0.377000000000
4.288855932000,-0.385000000000
4.296542217000,-0.382000000000
4.304228502000,-0.377000000000
4.311914787000,-0.368000000000
4.319601072000,-0.355000000000
4.327287357000,-0.340000000000
4.334973642000,-0.326000000000
4.342659927000,-0.313000000000
4.350346212000,-0.303000000000
4.358032497000,-0.288000000000
4.365718782000,-0.276000000000
4.373405067000,-0.266000000000
4.381091352000,-0.256000000000
4.388777637000,-0.249000000000
4.396463922000,-0.244000000000
4.404150207000,-0.239000000000
4.411836492000,-0.234000000000
4.419522777000,-0.232000000000
4.427209062000,-0.232000000000
4.434895347000,-0.227000000000
4.442581632000,-0.224000000000
4.450267917000,-0.224000000000
4.457954202000,-0.222000000000
4.465640487000,-0.219000000000
4.473326772000,-0.219000000000
4.481013057000,-0.217000000000
4.488699342000,-0.212000000000
4.496385627000,-0.207000000000
4.504071912000,-0.207000000000
4.511758197000,-0.205000000000
4.519444482000,-0.205000000000
4.527130767000,-0.209000000000
4.534817052000,-0.209000000000
4.542503337000,-0.190000000000
4.550189622000,-0.165000000000
4.557875907000,-0.150000000000
4.565562192000,-0.143000000000
4.573248477000,-0.125000000000
4.580934762000,-0.123000000000
4.588621047000,-0.158000000000
4.596307332000,-0.187000000000
4.603993617000,-0.185000000000
4.611679902000,-0.172000000000
4.619366187000,-0.167000000000
4.627052472000,-0.167000000000
4.634738757000,-0.163000000000
4.642425042000,-0.158000000000
4.650111327000,-0.153000000000
4.657797612000,-0.150000000000
4.665483897000,-0.158000000000
4.673170182000,-0.182000000000
4.680856467000,-0.239000000000
4.688542752000,-0.192000000000
4.696229037000,0.237000000000
4.703915322000,1.000000000000
4.711601607000,1.696000000000
4.719287892000,1.741000000000
4.726974177000,0.585000000000
4.734660462000,-0.713000000000
4.742346747000,-0.597000000000
4.750033032000,-0.039000000000
4.757719317000,-0.160000000000
4.765405602000,-0.266000000000
4.773091887000,-0.123000000000
4.780778172000,-0.123000000000
4.788464457000,-0.165000000000
4.796150742000,-0.106000000000
4.803837027000,-0.074000000000
4.811523312000,-0.074000000000
4.819209597000,-0.037000000000
4.826895882000,0.000000000000
4.834582223000,0.022000000000
4.842268508000,0.054000000000
4.849954793000,0.096000000000
4.857641078000,0.133000000000
4.865327363000,0.177000000000
4.873013648000,0.224000000000
4.880699933000,0.269000000000
4.888386218000,0.308000000000
4.896072503000,0.340000000000
4.903758788000,0.355000000000
4.911445073000,0.360000000000
4.919131358000,0.355000000000
4.926817643000,0.340000000000
4.934503928000,0.313000000000
4.942190213000,0.271000000000
4.949876498000,0.195000000000
4.957562783000,0.093000000000
4.965249068000,-0.024000000000
4.972935353000,-0.143000000000
4.980621638000,-0.244000000000
4.988307923000,-0.313000000000
4.995994208000,-0.360000000000
5.003680493000,-0.385000000000
5.011366778000,-0.392000000000
5.019053063000,-0.387000000000
5.026739348000,-0.380000000000
5.034425633000,-0.370000000000
5.042111918000,-0.358000000000
5.049798203000,-0.340000000000
5.057484488000,-0.328000000000
5.065170773000,-0.316000000000
5.072857058000,-0.298000000000
5.080543343000,-0.286000000000
5.088229628000,-0.274000000000
5.095915913000,-0.264000000000
5.103602198000,-0.256000000000
5.111288483000,-0.251000000000
5.118974768000,-0.244000000000
5.126661053000,-0.239000000000
5.134347338000,-0.234000000000
5.142033623000,-0.232000000000
5.149719908000,-0.229000000000
5.157406193000,-0.227000000000
5.165092478000,-0.227000000000
5.172778763000,-0.224000000000
5.180465048000,-0.222000000000
5.188151333000,-0.219000000000
5.195837618000,-0.214000000000
5.203523903000,-0.212000000000
5.211210188000,-0.209000000000
5.218896473000,-0.205000000000
5.226582758000,-0.200000000000
5.234269043000,-0.202000000000
5.241955328000,-0.207000000000
5.249641613000,-0.207000000000
5.257327898000,-0.195000000000
5.265014183000,-0.172000000000
5.272700468000,-0.153000000000
5.280386753000,-0.140000000000
5.288073038000,-0.123000000000
5.295759323000,-0.116000000000
5.303445608000,-0.138000000000
5.311131893000,-0.172000000000
5.318818178000,-0.177000000000
5.326504463000,-0.165000000000
5.334190748000,-0.165000000000
5.341877033000,-0.163000000000
5.349563318000,-0.153000000000
5.357249603000,-0.148000000000
5.364935888000,-0.148000000000
5.372622173000,-0.143000000000
5.380308458000,-0.145000000000
5.387994743000,-0.167000000000
5.395681084000,-0.224000000000
5.403366951000,-0.237000000000
5.411052818000,0.056000000000
5.418738685000,0.770000000000
5.426424552000,1.548000000000
5.434110419000,1.840000000000
5.441796286000,1.017000000000
5.449482153000,-0.429000000000
5.457168020000,-0.743000000000
5.464853887000,-0.140000000000
5.472539754000,-0.074000000000
5.480225621000,-0.259000000000
5.487911488000,-0.158000000000
5.495597355000,-0.101000000000
5.503283222000,-0.150000000000
5.510969089000,-0.113000000000
5.518654956000,-0.064000000000
5.526340823000,-0.059000000000
5.534026690000,-0.037000000000
5.541712557000,0.002000000000
5.549398424000,0.027000000000
5.557084291000,0.056000000000
5.564770158000,0.098000000000
5.572456025000,0.135000000000
5.580141892000,0.177000000000
5.587827759000,0.229000000000
5.595513626000,0.276000000000
5.603199493000,0.313000000000
5.610885360000,0.348000000000
5.618571227000,0.375000000000
5.626257094000,0.385000000000
5.633942961000,0.377000000000
5.641628828000,0.365000000000
5.649314695000,0.345000000000
5.657000562000,0.306000000000
5.664686429000,0.237000000000
5.672372296000,0.143000000000
5.680058163000,0.027000000000
5.687744030000,-0.088000000000
5.695429897000,-0.200000000000
5.703115764000,-0.286000000000
5.710801631000,-0.338000000000
5.718487498000,-0.360000000000
5.726173365000,-0.370000000000
5.733859232000,-0.368000000000
5.741545099000,-0.358000000000
5.749230966000,-0.353000000000
5.756916833000,-0.345000000000
5.764602700000,-0.328000000000
5.772288567000,-0.313000000000
5.779974434000,-0.301000000000
5.787660301000,-0.286000000000
5.795346168000,-0.271000000000
5.803032035000,-0.261000000000
5.810717902000,-0.251000000000
5.818403769000,-0.242000000000
5.826089636000,-0.232000000000
5.833775503000,-0.224000000000
5.841461370000,-0.219000000000
5.849147237000,-0.217000000000
5.856833104000,-0.214000000000
5.864518971000,-0.219000000000
5.872204838000,-0.217000000000
5.879890705000,-0.209000000000
5.887576572000,-0.209000000000
5.895262439000,-0.209000000000
5.902948306000,-0.207000000000
5.910634173000,-0.197000000000
5.918320040000,-0.192000000000
5.926005907000,-0.202000000000
5.933691774000,-0.207000000000
5.941377641000,-0.207000000000
5.949063508000,-0.205000000000
5.956749427000,-0.200000000000
5.964435712000,-0.180000000000
5.972121997000,-0.155000000000
5.979808282000,-0.145000000000
5.987494567000,-0.133000000000
5.995180852000,-0.116000000000
6.002867137000,-0.123000000000
6.010553422000,-0.163000000000
6.018239707000,-0.185000000000
6.025925992000,-0.175000000000
6.033612277000,-0.165000000000
6.041298562000,-0.163000000000
6.048984847000,-0.158000000000
6.056671132000,-0.153000000000
6.064357417000,-0.148000000000
6.072043702000,-0.143000000000
6.079729987000,-0.140000000000
6.087416272000,-0.155000000000
6.095102557000,-0.190000000000
6.102788842000,-0.237000000000
6.110475127000,-0.128000000000
6.118161412000,0.397000000000
6.125847697000,1.165000000000
6.133533982000,1.659000000000
6.141220267000,1.348000000000
6.148906552000,0.103000000000
6.156592837000,-0.765000000000
6.164279122000,-0.387000000000
6.171965407000,-0.004000000000
6.179651692000,-0.177000000000
6.187337977000,-0.197000000000
6.195024262000,-0.081000000000
6.202710547000,-0.103000000000
6.210396832000,-0.111000000000
6.218083117000,-0.054000000000
6.225769402000,-0.032000000000
6.233455687000,-0.022000000000
6.241141972000,0.004000000000
6.248828257000,0.032000000000
6.256514542000,0.064000000000
6.264200827000,0.101000000000
6.271887112000,0.135000000000
6.279573397000,0.170000000000
6.287259682000,0.224000000000
6.294945967000,0.281000000000
6.302632252000,0.323000000000
6.310318537000,0.353000000000
6.318004822000,0.380000000000
6.325691107000,0.392000000000
6.333377392000,0.390000000000
6.341063677000,0.380000000000
6.348749962000,0.365000000000
6.356436247000,0.335000000000
6.364122532000,0.276000000000
6.371808817000,0.180000000000
6.379495102000,0.061000000000
6.387181387000,-0.051000000000
6.394867672000,-0.160000000000
6.402553957000,-0.259000000000
6.410240242000,-0.321000000000
6.417926527000,-0.350000000000
6.425612812000,-0.372000000000
6.433299097000,-0.377000000000
6.440985382000,-0.365000000000
6.448671667000,-0.360000000000
6.456357952000,-0.355000000000
6.464044237000,-0.338000000000
6.471730522000,-0.316000000000
6.479416807000,-0.303000000000
6.487103092000,-0.293000000000
6.494789377000,-0.286000000000
6.502475662000,-0.274000000000
6.510161947000,-0.259000000000
6.517848288000,-0.246000000000
6.525534155000,-0.239000000000
6.533220022000,-0.232000000000
6.540905889000,-0.224000000000
6.548591756000,-0.219000000000
6.556277623000,-0.214000000000
6.563963490000,-0.212000000000
6.571649357000,-0.209000000000
6.579335224000,-0.205000000000
6.587021091000,-0.200000000000
6.594706958000,-0.200000000000
6.602392825000,-0.202000000000
6.610078692000,-0.205000000000
6.617764559000,-0.200000000000
6.625450426000,-0.197000000000
6.633136293000,-0.207000000000
6.640822160000,-0.205000000000
6.648508027000,-0.195000000000
6.656193894000,-0.180000000000
6.663879761000,-0.160000000000
6.671565628000,-0.150000000000
6.679251495000,-0.138000000000
6.686937362000,-0.125000000000
6.694623229000,-0.140000000000
6.702309096000,-0.175000000000
6.709994963000,-0.190000000000
6.717680830000,-0.180000000000
6.725366697000,-0.172000000000
6.733052564000,-0.172000000000
6.740738431000,-0.165000000000
6.748424298000,-0.165000000000
6.756110165000,-0.165000000000
6.763796032000,-0.160000000000
6.771481899000,-0.160000000000
6.779167766000,-0.170000000000
6.786853633000,-0.205000000000
6.794539500000,-0.244000000000
6.802225367000,-0.054000000000
6.809911234000,0.575000000000
6.817597101000,1.301000000000
6.825282968000,1.595000000000
6.832968835000,0.995000000000
6.840654702000,-0.284000000000
6.848340569000,-0.778000000000
6.856026436000,-0.251000000000
6.863712303000,-0.051000000000
6.871398170000,-0.222000000000
6.879084037000,-0.160000000000
6.886769904000,-0.083000000000
6.894455771000,-0.130000000000
6.902141638000,-0.113000000000
6.909827505000,-0.064000000000
6.917513372000,-0.056000000000
6.925199239000,-0.039000000000
6.932885106000,-0.002000000000
6.940570973000,0.022000000000
6.948256840000,0.049000000000
6.955942707000,0.088000000000
6.963628574000,0.125000000000
6.971314441000,0.163000000000
6.979000308000,0.207000000000
6.986686175000,0.254000000000
6.994372042000,0.293000000000
7.002057909000,0.326000000000
7.009743776000,0.348000000000
7.017429643000,0.353000000000
7.025115510000,0.348000000000
7.032801377000,0.335000000000
7.040487244000,0.313000000000
7.048173111000,0.276000000000
7.055858978000,0.207000000000
7.063544845000,0.108000000000
7.071230712000,-0.002000000000
7.078916635000,-0.116000000000
7.086602920000,-0.219000000000
7.094289205000,-0.301000000000
7.101975490000,-0.350000000000
7.109661775000,-0.377000000000
7.117348060000,-0.390000000000
7.125034345000,-0.387000000000
7.132720630000,-0.380000000000
7.140406915000,-0.372000000000
7.148093200000,-0.360000000000
7.155779485000,-0.345000000000
7.163465770000,-0.333000000000
7.171152055000,-0.321000000000
7.178838340000,-0.306000000000
7.186524625000,-0.291000000000
7.194210910000,-0.279000000000
7.201897195000,-0.269000000000
7.209583480000,-0.256000000000
7.217269765000,-0.249000000000
7.224956050000,-0.244000000000
7.232642335000,-0.239000000000
7.240328620000,-0.234000000000
7.248014905000,-0.229000000000
7.255701190000,-0.229000000000
7.263387475000,-0.227000000000
7.271073760000,-0.224000000000
7.278760045000,-0.222000000000
7.286446330000,-0.219000000000
7.294132615000,-0.219000000000
7.301818900000,-0.217000000000
7.309505185000,-0.212000000000
7.317191470000,-0.209000000000
7.324877755000,-0.207000000000
7.332564040000,-0.207000000000
7.340250325000,-0.209000000000
7.347936610000,-0.212000000000
7.355622895000,-0.205000000000
7.363309180000,-0.185000000000
7.370995465000,-0.165000000000
7.378681750000,-0.155000000000
7.386368035000,-0.143000000000
7.394054320000,-0.123000000000
7.401740605000,-0.128000000000
7.409426890000,-0.165000000000
7.417113175000,-0.192000000000
7.424799460000,-0.180000000000
7.432485745000,-0.170000000000
7.440172030000,-0.172000000000
7.447858315000,-0.165000000000
7.455544600000,-0.158000000000
7.463230885000,-0.160000000000
7.470917170000,-0.158000000000
7.478603455000,-0.153000000000
7.486289740000,-0.163000000000
7.493976025000,-0.205000000000
7.501662310000,-0.249000000000
7.509348595000,-0.093000000000
7.517034880000,0.489000000000
7.524721165000,1.267000000000
7.532407450000,1.780000000000
7.540093735000,1.402000000000
7.547780020000,0.002000000000
7.555466305000,-0.827000000000
7.563152590000,-0.340000000000
7.570838875000,-0.014000000000
7.578525160000,-0.234000000000
7.586211445000,-0.217000000000
7.593897730000,-0.096000000000
7.601584015000,-0.143000000000
7.609270300000,-0.145000000000
7.616956585000,-0.081000000000
7.624642870000,-0.069000000000
7.632329155000,-0.059000000000
7.640015496000,-0.017000000000
7.647701572000,0.012000000000
7.655387648000,0.039000000000
7.663073724000,0.079000000000
7.670759800000,0.118000000000
7.678445876000,0.153000000000
7.686131952000,0.197000000000
7.693818028000,0.244000000000
7.701504104000,0.286000000000
7.709190180000,0.323000000000
7.716876256000,0.350000000000
7.724562332000,0.363000000000
7.732248408000,0.363000000000
7.739934484000,0.353000000000
7.747620560000,0.333000000000
7.755306636000,0.301000000000
7.762992712000,0.246000000000
7.770678788000,0.155000000000
7.778364864000,0.041000000000
7.786050940000,-0.076000000000
7.793737016000,-0.185000000000
7.801423092000,-0.276000000000
7.809109168000,-0.340000000000
7.816795244000,-0.372000000000
7.824481320000,-0.387000000000
7.832167396000,-0.390000000000
7.839853472000,-0.385000000000
7.847539548000,-0.375000000000
7.855225624000,-0.363000000000
7.862911700000,-0.350000000000
7.870597776000,-0.335000000000
7.878283852000,-0.321000000000
7.885969928000,-0.306000000000
7.893656004000,-0.291000000000
7.901342080000,-0.276000000000
7.909028156000,-0.266000000000
7.916714232000,-0.259000000000
7.924400308000,-0.246000000000
7.932086384000,-0.239000000000
7.939772460000,-0.234000000000
7.947458536000,-0.234000000000
7.955144612000,-0.232000000000
7.962830688000,-0.227000000000
7.970516764000,-0.227000000000
7.978202840000,-0.222000000000
7.985888916000,-0.222000000000
7.993574992000,-0.219000000000
8.001261068000,-0.217000000000
8.008947144000,-0.212000000000
8.016633220000,-0.209000000000
8.024319296000,-0.207000000000
8.032005372000,-0.205000000000
8.039691448000,-0.205000000000
8.047377524000,-0.209000000000
8.055063600000,-0.212000000000
8.062749676000,-0.200000000000
8.070435752000,-0.175000000000
8.078121828000,-0.155000000000
8.085807904000,-0.145000000000
8.093493980000,-0.130000000000
8.101180056000,-0.118000000000
8.108866132000,-0.138000000000
8.116552208000,-0.175000000000
8.124238284000,-0.182000000000
8.131924360000,-0.167000000000
8.139610436000,-0.165000000000
8.147296512000,-0.160000000000
8.154982588000,-0.155000000000
8.162668664000,-0.155000000000
8.170354740000,-0.150000000000
8.178040816000,-0.143000000000
8.185726892000,-0.148000000000
8.193412968000,-0.165000000000
8.201099100000,-0.214000000000
8.208785176000,-0.246000000000
8.216471252000,0.002000000000
8.224157328000,0.679000000000
8.231843404000,1.464000000000
8.239529480000,1.852000000000
8.247215556000,1.178000000000
8.254901632000,-0.296000000000
8.262587708000,-0.792000000000
8.270273784000,-0.202000000000
8.277959860000,-0.051000000000
8.285645936000,-0.259000000000
8.293332012000,-0.177000000000
8.301018088000,-0.096000000000
8.308704164000,-0.153000000000
8.316390240000,-0.128000000000
8.324076316000,-0.071000000000
8.331762392000,-0.066000000000
8.339448468000,-0.046000000000
8.347134544000,-0.004000000000
8.354820620000,0.022000000000
8.362506696000,0.051000000000
8.370192772000,0.088000000000
8.377878848000,0.128000000000
8.385564924000,0.170000000000
8.393251000000,0.214000000000
8.400937076000,0.261000000000
8.408623152000,0.306000000000
8.416309228000,0.343000000000
8.423995304000,0.363000000000
8.431681380000,0.372000000000
8.439367456000,0.370000000000
8.447053532000,0.360000000000
8.454739608000,0.335000000000
8.462425684000,0.298000000000
8.470111760000,0.234000000000
8.477797836000,0.138000000000
8.485483912000,0.022000000000
8.493169988000,-0.096000000000
8.500856064000,-0.205000000000
8.508542140000,-0.288000000000
8.516228216000,-0.340000000000
8.523914292000,-0.368000000000
8.531600368000,-0.380000000000
8.539286444000,-0.380000000000
8.546972520000,-0.370000000000
8.554658596000,-0.360000000000
8.562344672000,-0.348000000000
8.570030748000,-0.335000000000
8.577716824000,-0.323000000000
8.585402900000,-0.308000000000
8.593088976000,-0.293000000000
8.600775052000,-0.279000000000
8.608461128000,-0.266000000000
8.616147204000,-0.256000000000
8.623833280000,-0.246000000000
8.631519356000,-0.237000000000
8.639205432000,-0.232000000000
8.646891508000,-0.227000000000
8.654577584000,-0.222000000000
8.662263660000,-0.217000000000
8.669949736000,-0.214000000000
8.677635812000,-0.212000000000
8.685321888000,-0.212000000000
8.693007964000,-0.209000000000
8.700694040000,-0.209000000000
8.708380116000,-0.205000000000
8.716066192000,-0.200000000000
8.723752268000,-0.200000000000
8.731438344000,-0.197000000000
8.739124420000,-0.192000000000
8.746810496000,-0.200000000000
8.754496572000,-0.202000000000
8.762182700000,-0.192000000000
8.769868985000,-0.172000000000
8.777555270000,-0.155000000000
8.785241555000,-0.150000000000
8.792927840000,-0.138000000000
8.800614125000,-0.111000000000
8.808300410000,-0.111000000000
8.815986695000,-0.148000000000
8.823672980000,-0.175000000000
8.831359265000,-0.167000000000
8.839045550000,-0.163000000000
8.846731835000,-0.160000000000
8.854418120000,-0.150000000000
8.862104405000,-0.145000000000
8.869790690000,-0.140000000000
8.877476975000,-0.140000000000
8.885163260000,-0.143000000000
8.892849545000,-0.148000000000
8.900535830000,-0.167000000000
8.908222115000,-0.227000000000
8.915908400000,-0.197000000000
8.923594685000,0.224000000000
8.931280970000,1.007000000000
8.938967255000,1.689000000000
8.946653540000,1.701000000000
8.954339825000,0.582000000000
8.962026110000,-0.671000000000
8.969712395000,-0.585000000000
8.977398680000,-0.039000000000
8.985084965000,-0.133000000000
8.992771250000,-0.242000000000
9.000457535000,-0.108000000000
9.008143820000,-0.098000000000
9.015830105000,-0.138000000000
9.023516390000,-0.083000000000
9.031202675000,-0.049000000000
9.038888960000,-0.046000000000
9.046575245000,-0.017000000000
9.054261530000,0.022000000000
9.061947815000,0.049000000000
9.069634100000,0.079000000000
9.077320385000,0.116000000000
9.085006670000,0.158000000000
9.092692955000,0.202000000000
9.100379240000,0.249000000000
9.108065525000,0.293000000000
9.115751810000,0.335000000000
9.123438095000,0.365000000000
9.131124380000,0.377000000000
9.138810665000,0.382000000000
9.146496950000,0.377000000000
9.154183235000,0.363000000000
9.161869520000,0.335000000000
9.169555805000,0.288000000000
9.177242090000,0.205000000000
9.184928375000,0.093000000000
9.192614660000,-0.027000000000
9.200300945000,-0.143000000000
9.207987230000,-0.242000000000
9.215673515000,-0.313000000000
9.223359800000,-0.358000000000
9.231046085000,-0.377000000000
9.238732370000,-0.380000000000
9.246418655000,-0.377000000000
9.254104940000,-0.372000000000
9.261791225000,-0.358000000000
9.269477510000,-0.338000000000
9.277163795000,-0.330000000000
9.284850080000,-0.321000000000
9.292536365000,-0.303000000000
9.300222650000,-0.288000000000
9.307908935000,-0.281000000000
9.315595220000,-0.266000000000
9.323281561000,-0.254000000000
9.330967428000,-0.246000000000
9.338653295000,-0.242000000000
9.346339162000,-0.237000000000
9.354025029000,-0.234000000000
9.361710896000,-0.229000000000
9.369396763000,-0.227000000000
9.377082630000,-0.227000000000
9.384768497000,-0.224000000000
9.392454364000,-0.219000000000
9.400140231000,-0.214000000000
9.407826098000,-0.217000000000
9.415511965000,-0.217000000000
9.423197832000,-0.214000000000
9.430883699000,-0.212000000000
9.438569566000,-0.207000000000
9.446255433000,-0.205000000000
9.453941300000,-0.212000000000
9.461627167000,-0.217000000000
9.469313034000,-0.212000000000
9.476998901000,-0.192000000000
9.484684768000,-0.172000000000
9.492370635000,-0.158000000000
9.500056502000,-0.148000000000
9.507742369000,-0.130000000000
9.515428236000,-0.130000000000
9.523114103000,-0.163000000000
9.530799970000,-0.192000000000
9.538485837000,-0.187000000000
9.546171704000,-0.177000000000
9.553857571000,-0.175000000000
9.561543438000,-0.170000000000
9.569229305000,-0.163000000000
9.576915172000,-0.163000000000
9.584601039000,-0.158000000000
9.592286906000,-0.155000000000
9.599972773000,-0.160000000000
9.607658640000,-0.185000000000
9.615344507000,-0.237000000000
9.623030374000,-0.214000000000
9.630716241000,0.172000000000
9.638402108000,0.926000000000
9.646087975000,1.615000000000
9.653773842000,1.681000000000
9.661459709000,0.632000000000
9.669145576000,-0.652000000000
9.676831443000,-0.639000000000
9.684517310000,-0.074000000000
9.692203177000,-0.135000000000
9.699889044000,-0.256000000000
9.707574911000,-0.128000000000
9.715260778000,-0.111000000000
9.722946645000,-0.153000000000
9.730632512000,-0.106000000000
9.738318379000,-0.069000000000
9.746004246000,-0.066000000000
9.753690113000,-0.037000000000
9.761375980000,0.000000000000
9.769061847000,0.027000000000
9.776747714000,0.059000000000
9.784433581000,0.096000000000
9.792119448000,0.135000000000
9.799805315000,0.180000000000
9.807491182000,0.224000000000
9.815177049000,0.266000000000
9.822862916000,0.311000000000
9.830548783000,0.345000000000
9.838234650000,0.358000000000
9.845920517000,0.363000000000
9.853606384000,0.358000000000
9.861292251000,0.343000000000
9.868978118000,0.313000000000
9.876663985000,0.266000000000
9.884349904000,0.192000000000
9.892036189000,0.088000000000
9.899722474000,-0.029000000000
9.907408759000,-0.148000000000
9.915095044000,-0.249000000000
9.922781329000,-0.321000000000
9.930467614000,-0.363000000000
9.938153899000,-0.385000000000
9.945840184000,-0.395000000000
9.953526469000,-0.395000000000
9.961212754000,-0.387000000000
9.968899039000,-0.375000000000
9.976585324000,-0.363000000000
9.984271609000,-0.348000000000
9.991957894000,-0.335000000000
9.999644179000,-0.318000000000
10.007330464000,-0.306000000000
10.015016749000,-0.293000000000
10.022703034000,-0.281000000000
10.030389319000,-0.266000000000
10.038075604000,-0.259000000000
10.045761889000,-0.251000000000
10.053448174000,-0.244000000000
10.061134459000,-0.237000000000
10.068820744000,-0.234000000000
10.076507029000,-0.229000000000
10.084193314000,-0.227000000000
10.091879599000,-0.224000000000
10.099565884000,-0.222000000000
10.107252169000,-0.222000000000
10.114938454000,-0.219000000000
10.122624739000,-0.214000000000
10.130311024000,-0.212000000000
10.137997309000,-0.209000000000
10.145683594000,-0.207000000000
10.153369879000,-0.202000000000
10.161056164000,-0.197000000000
10.168742449000,-0.200000000000
10.176428734000,-0.205000000000
10.184115019000,-0.205000000000
10.191801304000,-0.200000000000
10.199487589000,-0.182000000000
10.207173874000,-0.160000000000
10.214860159000,-0.143000000000
10.222546444000,-0.130000000000
10.230232729000,-0.118000000000
10.237919014000,-0.121000000000
10.245605299000,-0.155000000000
10.253291584000,-0.182000000000
10.260977869000,-0.175000000000
10.268664154000,-0.163000000000
10.276350439000,-0.163000000000
10.284036724000,-0.158000000000
10.291723009000,-0.153000000000
10.299409294000,-0.150000000000
10.307095579000,-0.145000000000
10.314781864000,-0.143000000000
10.322468149000,-0.153000000000
10.330154434000,-0.187000000000
10.337840719000,-0.244000000000
10.345527004000,-0.167000000000
10.353213289000,0.306000000000
10.360899574000,1.086000000000
10.368585859000,1.748000000000
10.376272144000,1.679000000000
10.383958429000,0.422000000000
10.391644714000,-0.763000000000
10.399330999000,-0.521000000000
10.407017284000,-0.022000000000
10.414703569000,-0.180000000000
10.422389854000,-0.249000000000
10.430076139000,-0.108000000000
10.437762424000,-0.125000000000
10.445448769000,-0.158000000000
10.453134776000,-0.096000000000
10.460820783000,-0.071000000000
10.468506790000,-0.071000000000
10.476192797000,-0.034000000000
10.483878804000,0.002000000000
10.491564811000,0.024000000000
10.499250818000,0.059000000000
10.506936825000,0.098000000000
10.514622832000,0.138000000000
10.522308839000,0.182000000000
10.529994846000,0.229000000000
10.537680853000,0.271000000000
10.545366860000,0.313000000000
10.553052867000,0.345000000000
10.560738874000,0.360000000000
10.568424881000,0.363000000000
10.576110888000,0.355000000000
10.583796895000,0.340000000000
10.591482902000,0.318000000000
10.599168909000,0.266000000000
10.606854916000,0.182000000000
10.614540923000,0.079000000000
10.622226930000,-0.041000000000
10.629912937000,-0.163000000000
10.637598944000,-0.261000000000
10.645284951000,-0.338000000000
10.652970958000,-0.385000000000
10.660656965000,-0.410000000000
10.668342972000,-0.417000000000
10.676028979000,-0.414000000000
10.683714986000,-0.407000000000
10.691400993000,-0.397000000000
10.699087000000,-0.387000000000
10.706773007000,-0.372000000000
10.714459014000,-0.358000000000
10.722145021000,-0.345000000000
10.729831028000,-0.333000000000
10.737517035000,-0.321000000000
10.745203042000,-0.308000000000
10.752889049000,-0.293000000000
10.760575056000,-0.284000000000
10.768261063000,-0.276000000000
10.775947070000,-0.271000000000
10.783633077000,-0.266000000000
10.791319084000,-0.264000000000
10.799005091000,-0.259000000000
10.806691098000,-0.254000000000
10.814377105000,-0.249000000000
10.822063112000,-0.249000000000
10.829749119000,-0.246000000000
10.837435126000,-0.242000000000
10.845121133000,-0.239000000000
10.852807140000,-0.237000000000
10.860493147000,-0.232000000000
10.868179154000,-0.227000000000
10.875865161000,-0.222000000000
10.883551168000,-0.217000000000
10.891237175000,-0.212000000000
10.898923182000,-0.214000000000
10.906609189000,-0.217000000000
10.914295196000,-0.212000000000
10.921981203000,-0.195000000000
10.929667210000,-0.170000000000
10.937353217000,-0.158000000000
10.945039224000,-0.145000000000
10.952725231000,-0.130000000000
10.960411238000,-0.130000000000
10.968097245000,-0.165000000000
10.975783252000,-0.190000000000
10.983469259000,-0.182000000000
10.991155266000,-0.170000000000
10.998841273000,-0.170000000000
11.006527286000,-0.170000000000
11.014213432000,-0.165000000000
11.021899578000,-0.160000000000
11.029585724000,-0.158000000000
11.037271870000,-0.160000000000
11.044958016000,-0.165000000000
11.052644162000,-0.192000000000
11.060330308000,-0.259000000000
11.068016454000,-0.237000000000
11.075702600000,0.155000000000
11.083388746000,0.908000000000
11.091074892000,1.686000000000
11.098761038000,1.904000000000
11.106447184000,0.820000000000
11.114133330000,-0.656000000000
11.121819476000,-0.703000000000
11.129505622000,-0.108000000000
11.137191768000,-0.182000000000
11.144877914000,-0.306000000000
11.152564060000,-0.163000000000
11.160250206000,-0.150000000000
11.167936352000,-0.197000000000
11.175622498000,-0.143000000000
11.183308644000,-0.103000000000
11.190994790000,-0.103000000000
11.198680936000,-0.074000000000
11.206367082000,-0.034000000000
11.214053228000,-0.002000000000
11.221739374000,0.027000000000
11.229425520000,0.064000000000
11.237111666000,0.106000000000
11.244797812000,0.153000000000
11.252483958000,0.200000000000
11.260170104000,0.244000000000
11.267856250000,0.286000000000
11.275542396000,0.321000000000
11.283228542000,0.345000000000
11.290914688000,0.353000000000
11.298600834000,0.350000000000
11.306286980000,0.343000000000
11.313973126000,0.326000000000
11.321659272000,0.286000000000
11.329345418000,0.222000000000
11.337031564000,0.130000000000
11.344717710000,0.022000000000
11.352403856000,-0.096000000000
11.360090002000,-0.202000000000
11.367776148000,-0.284000000000
11.375462294000,-0.335000000000
11.383148440000,-0.363000000000
11.390834586000,-0.370000000000
11.398520732000,-0.372000000000
11.406206878000,-0.368000000000
11.413893024000,-0.355000000000
11.421579170000,-0.340000000000
11.429265316000,-0.328000000000
11.436951462000,-0.316000000000
11.444637608000,-0.303000000000
11.452323754000,-0.286000000000
11.460009900000,-0.269000000000
11.467696046000,-0.259000000000
11.475382192000,-0.254000000000
11.483068338000,-0.242000000000
11.490754484000,-0.232000000000
11.498440630000,-0.227000000000
11.506126776000,-0.227000000000
11.513812922000,-0.224000000000
11.521499068000,-0.217000000000
11.529185214000,-0.209000000000
11.536871360000,-0.212000000000
11.544557506000,-0.209000000000
11.552243652000,-0.202000000000
11.559929798000,-0.205000000000
11.567615973000,-0.205000000000
11.575302119000,-0.197000000000
11.582988265000,-0.195000000000
11.590674411000,-0.192000000000
11.598360557000,-0.185000000000
11.606046703000,-0.180000000000
11.613732849000,-0.180000000000
11.621418995000,-0.175000000000
11.629105141000,-0.170000000000
11.636791287000,-0.170000000000
11.644477433000,-0.172000000000
11.652163579000,-0.165000000000
11.659849725000,-0.153000000000
11.667535871000,-0.143000000000
11.675222017000,-0.128000000000
11.682908163000,-0.111000000000
11.690594309000,-0.088000000000
11.698280455000,-0.088000000000
11.705966601000,-0.118000000000
11.713652747000,-0.148000000000
11.721338893000,-0.150000000000
11.729025039000,-0.135000000000
11.736711185000,-0.133000000000
11.744397331000,-0.133000000000
11.752083477000,-0.128000000000
11.759769623000,-0.123000000000
11.767455769000,-0.125000000000
11.775141915000,-0.123000000000
11.782828061000,-0.121000000000
11.790514207000,-0.148000000000
11.798200353000,-0.207000000000
11.805886499000,-0.195000000000
11.813572645000,0.150000000000
11.821258791000,0.889000000000
11.828944937000,1.635000000000
11.836631083000,1.830000000000
11.844317229000,0.884000000000
11.852003375000,-0.508000000000
11.859689521000,-0.666000000000
11.867375667000,-0.086000000000
11.875061813000,-0.093000000000
11.882747959000,-0.234000000000
11.890434105000,-0.111000000000
11.898120251000,-0.088000000000
11.905806397000,-0.133000000000
11.913492543000,-0.081000000000
11.921178689000,-0.044000000000
11.928864835000,-0.044000000000
11.936550981000,-0.014000000000
11.944237127000,0.019000000000
11.951923273000,0.046000000000
11.959609419000,0.086000000000
11.967295565000,0.125000000000
11.974981711000,0.155000000000
11.982667857000,0.192000000000
11.990354003000,0.246000000000
11.998040149000,0.298000000000
12.005726295000,0.335000000000
12.013412441000,0.370000000000
12.021098587000,0.400000000000
12.028784733000,0.405000000000
12.036470879000,0.395000000000
12.044157025000,0.377000000000
12.051843171000,0.360000000000
12.059529317000,0.326000000000
12.067215463000,0.264000000000
12.074901609000,0.167000000000
12.082587755000,0.041000000000
12.090273901000,-0.086000000000
12.097960047000,-0.192000000000
12.105646193000,-0.269000000000
12.113332339000,-0.326000000000
12.121018485000,-0.355000000000
12.128704664000,-0.363000000000
12.136390671000,-0.363000000000
12.144076678000,-0.355000000000
12.151762685000,-0.345000000000
12.159448692000,-0.338000000000
12.167134699000,-0.328000000000
12.174820706000,-0.313000000000
12.182506713000,-0.296000000000
12.190192720000,-0.281000000000
12.197878727000,-0.266000000000
12.205564734000,-0.256000000000
12.213250741000,-0.251000000000
12.220936748000,-0.239000000000
12.228622755000,-0.229000000000
12.236308762000,-0.219000000000
12.243994769000,-0.207000000000
12.251680776000,-0.205000000000
12.259366783000,-0.202000000000
12.267052790000,-0.197000000000
12.274738797000,-0.197000000000
12.282424804000,-0.197000000000
12.290110811000,-0.195000000000
12.297796818000,-0.197000000000
12.305482825000,-0.195000000000
12.313168832000,-0.190000000000
12.320854839000,-0.187000000000
12.328540846000,-0.180000000000
12.336226853000,-0.182000000000
12.343912860000,-0.195000000000
12.351598867000,-0.190000000000
12.359284874000,-0.172000000000
12.366970881000,-0.158000000000
12.374656888000,-0.148000000000
12.382342895000,-0.130000000000
12.390028902000,-0.116000000000
12.397714909000,-0.113000000000
12.405400916000,-0.138000000000
12.413086923000,-0.165000000000
12.420772930000,-0.160000000000
12.428458937000,-0.153000000000
12.436144944000,-0.155000000000
12.443830951000,-0.140000000000
12.451516958000,-0.135000000000
12.459202965000,-0.143000000000
12.466888972000,-0.140000000000
12.474574979000,-0.130000000000
12.482260986000,-0.138000000000
12.489946993000,-0.155000000000
12.497633000000,-0.197000000000
12.505319007000,-0.205000000000
12.513005014000,0.113000000000
12.520691021000,0.832000000000
12.528377028000,1.447000000000
12.536063035000,1.454000000000
12.543749042000,0.615000000000
12.551435049000,-0.493000000000
12.559121056000,-0.619000000000
12.566807063000,-0.116000000000
12.574493070000,-0.066000000000
12.582179077000,-0.185000000000
12.589865084000,-0.098000000000
12.597551091000,-0.061000000000
12.605237098000,-0.091000000000
12.612923105000,-0.056000000000
12.620609112000,-0.022000000000
12.628295119000,-0.017000000000
12.635981126000,0.007000000000
12.643667133000,0.041000000000
12.651353140000,0.069000000000
12.659039147000,0.098000000000
12.666725154000,0.138000000000
12.674411161000,0.177000000000
12.682097168000,0.214000000000
12.689783177000,0.261000000000
12.697469044000,0.311000000000
12.705154911000,0.350000000000
12.712840778000,0.372000000000
12.720526645000,0.395000000000
12.728212512000,0.407000000000
12.735898379000,0.397000000000
12.743584246000,0.375000000000
12.751270113000,0.350000000000
12.758955980000,0.303000000000
12.766641847000,0.222000000000
12.774327714000,0.123000000000
12.782013581000,0.009000000000
12.789699448000,-0.111000000000
12.797385315000,-0.217000000000
12.805071182000,-0.291000000000
12.812757049000,-0.333000000000
12.820442916000,-0.345000000000
12.828128783000,-0.353000000000
12.835814650000,-0.360000000000
12.843500517000,-0.350000000000
12.851186384000,-0.340000000000
12.858872251000,-0.335000000000
12.866558118000,-0.326000000000
12.874243985000,-0.311000000000
12.881929852000,-0.293000000000
12.889615719000,-0.279000000000
12.897301586000,-0.264000000000
12.904987453000,-0.259000000000
12.912673320000,-0.249000000000
12.920359187000,-0.234000000000
12.928045054000,-0.227000000000
12.935730921000,-0.224000000000
12.943416788000,-0.212000000000
12.951102655000,-0.205000000000
12.958788522000,-0.197000000000
12.966474389000,-0.187000000000
12.974160256000,-0.195000000000
12.981846123000,-0.205000000000
12.989531990000,-0.195000000000
12.997217857000,-0.185000000000
13.004903724000,-0.177000000000
13.012589591000,-0.172000000000
13.020275458000,-0.185000000000
13.027961325000,-0.192000000000
13.035647192000,-0.185000000000
13.043333059000,-0.177000000000
13.051018926000,-0.170000000000
13.058704793000,-0.153000000000
13.066390660000,-0.138000000000
13.074076527000,-0.121000000000
13.081762394000,-0.111000000000
13.089448261000,-0.135000000000
13.097134128000,-0.172000000000
13.104819995000,-0.175000000000
13.112505862000,-0.158000000000
13.120191729000,-0.150000000000
13.127877596000,-0.148000000000
13.135563463000,-0.148000000000
13.143249330000,-0.150000000000
13.150935197000,-0.143000000000
13.158621064000,-0.143000000000
13.166306931000,-0.143000000000
13.173992798000,-0.145000000000
13.181678665000,-0.190000000000
13.189364532000,-0.180000000000
13.197050399000,0.195000000000
13.204736266000,0.859000000000
13.212422133000,1.185000000000
13.220108000000,0.901000000000
13.227793867000,0.175000000000
13.235479734000,-0.518000000000
13.243165601000,-0.498000000000
13.250851520000,-0.121000000000
13.258537805000,-0.069000000000
13.266224090000,-0.121000000000
13.273910375000,-0.061000000000
13.281596660000,-0.044000000000
13.289282945000,-0.056000000000
13.296969230000,-0.027000000000
13.304655515000,0.002000000000
13.312341800000,0.007000000000
13.320028085000,0.024000000000
13.327714370000,0.056000000000
13.335400655000,0.088000000000
13.343086940000,0.111000000000
13.350773225000,0.143000000000
13.358459510000,0.185000000000
13.366145795000,0.227000000000
13.373832080000,0.266000000000
13.381518365000,0.308000000000
13.389204650000,0.338000000000
13.396890935000,0.363000000000
13.404577220000,0.385000000000
13.412263505000,0.385000000000
13.419949790000,0.375000000000
13.427636075000,0.358000000000
13.435322360000,0.318000000000
13.443008645000,0.266000000000
13.450694930000,0.192000000000
13.458381215000,0.083000000000
13.466067500000,-0.024000000000
13.473753785000,-0.130000000000
13.481440070000,-0.229000000000
13.489126355000,-0.291000000000
13.496812640000,-0.326000000000
13.504498925000,-0.360000000000
13.512185210000,-0.360000000000
13.519871495000,-0.340000000000
13.527557780000,-0.340000000000
13.535244065000,-0.340000000000
13.542930350000,-0.321000000000
13.550616635000,-0.311000000000
13.558302920000,-0.303000000000
13.565989205000,-0.279000000000
13.573675490000,-0.261000000000
13.581361775000,-0.261000000000
13.589048060000,-0.254000000000
13.596734345000,-0.237000000000
13.604420630000,-0.234000000000
13.612106915000,-0.229000000000
13.619793200000,-0.217000000000
13.627479485000,-0.209000000000
13.635165770000,-0.205000000000
13.642852055000,-0.197000000000
13.650538340000,-0.192000000000
13.658224625000,-0.197000000000
13.665910910000,-0.202000000000
13.673597195000,-0.195000000000
13.681283480000,-0.182000000000
13.688969765000,-0.185000000000
13.696656050000,-0.202000000000
13.704342335000,-0.200000000000
13.712028620000,-0.187000000000
13.719714905000,-0.192000000000
13.727401190000,-0.187000000000
13.735087475000,-0.165000000000
13.742773760000,-0.155000000000
13.750460045000,-0.153000000000
13.758146330000,-0.128000000000
13.765832615000,-0.123000000000
13.773518900000,-0.153000000000
13.781205185000,-0.180000000000
13.788891470000,-0.182000000000
13.796577755000,-0.175000000000
13.804264040000,-0.172000000000
13.811950385000,-0.163000000000
13.819636252000,-0.155000000000
13.827322119000,-0.153000000000
13.835007986000,-0.155000000000
13.842693853000,-0.155000000000
13.850379720000,-0.158000000000
13.858065587000,-0.167000000000
13.865751454000,-0.209000000000
13.873437321000,-0.165000000000
13.881123188000,0.246000000000
13.888809055000,0.886000000000
13.896494922000,1.173000000000
13.904180789000,0.889000000000
13.911866656000,0.130000000000
13.919552523000,-0.575000000000
13.927238390000,-0.498000000000
13.934924257000,-0.113000000000
13.942610124000,-0.096000000000
13.950295991000,-0.148000000000
13.957981858000,-0.081000000000
13.965667725000,-0.074000000000
13.973353592000,-0.091000000000
13.981039459000,-0.059000000000
13.988725326000,-0.029000000000
13.996411193000,-0.022000000000
14.004097060000,0.002000000000
14.011782927000,0.034000000000
14.019468794000,0.056000000000
14.027154661000,0.083000000000
14.034840528000,0.123000000000
14.042526395000,0.158000000000
14.050212262000,0.195000000000
14.057898129000,0.234000000000
14.065583996000,0.274000000000
14.073269863000,0.308000000000
14.080955730000,0.333000000000
14.088641597000,0.343000000000
14.096327464000,0.340000000000
14.104013331000,0.328000000000
14.111699198000,0.306000000000
14.119385065000,0.274000000000
14.127070932000,0.224000000000
14.134756799000,0.148000000000
14.142442666000,0.044000000000
14.150128533000,-0.066000000000
14.157814400000,-0.172000000000
14.165500267000,-0.261000000000
14.173186134000,-0.326000000000
14.180872001000,-0.360000000000
14.188557868000,-0.375000000000
14.196243735000,-0.377000000000
14.203929602000,-0.375000000000
14.211615469000,-0.368000000000
14.219301336000,-0.358000000000
14.226987203000,-0.345000000000
14.234673070000,-0.335000000000
14.242358937000,-0.323000000000
14.250044804000,-0.308000000000
14.257730671000,-0.293000000000
14.265416538000,-0.284000000000
14.273102405000,-0.271000000000
14.280788272000,-0.259000000000
14.288474139000,-0.249000000000
14.296160006000,-0.239000000000
14.303845873000,-0.232000000000
14.311531740000,-0.229000000000
14.319217607000,-0.227000000000
14.326903474000,-0.219000000000
14.334589341000,-0.217000000000
14.342275208000,-0.217000000000
14.349961075000,-0.217000000000
14.357646942000,-0.212000000000
14.365332809000,-0.209000000000
14.373018728000,-0.209000000000
14.380705013000,-0.209000000000
14.388391298000,-0.207000000000
14.396077583000,-0.205000000000
14.403763868000,-0.202000000000
14.411450153000,-0.202000000000
14.419136438000,-0.197000000000
14.426822723000,-0.200000000000
14.434509008000,-0.207000000000
14.442195293000,-0.205000000000
14.449881578000,-0.192000000000
14.457567863000,-0.175000000000
14.465254148000,-0.165000000000
14.472940433000,-0.155000000000
14.480626718000,-0.138000000000
14.488313003000,-0.125000000000
14.495999288000,-0.140000000000
14.503685573000,-0.175000000000
14.511371858000,-0.187000000000
14.519058143000,-0.175000000000
14.526744428000,-0.172000000000
14.534430713000,-0.172000000000
14.542116998000,-0.165000000000
14.549803283000,-0.158000000000
14.557489568000,-0.158000000000
14.565175853000,-0.155000000000
14.572862138000,-0.155000000000
14.580548423000,-0.163000000000
14.588234708000,-0.192000000000
14.595920993000,-0.207000000000
14.603607278000,0.007000000000
14.611293563000,0.602000000000
14.618979848000,1.239000000000
14.626666133000,1.481000000000
14.634352418000,0.943000000000
14.642038703000,-0.232000000000
14.649724988000,-0.728000000000
14.657411273000,-0.246000000000
14.665097558000,-0.032000000000
14.672783843000,-0.207000000000
14.680470128000,-0.175000000000
14.688156413000,-0.088000000000
14.695842698000,-0.123000000000
14.703528983000,-0.116000000000
14.711215268000,-0.064000000000
14.718901553000,-0.049000000000
14.726587838000,-0.034000000000
14.734274123000,0.000000000000
14.741960408000,0.029000000000
14.749646693000,0.051000000000
14.757332978000,0.083000000000
14.765019263000,0.121000000000
14.772705548000,0.158000000000
14.780391833000,0.200000000000
14.788078118000,0.246000000000
14.795764403000,0.288000000000
14.803450688000,0.321000000000
14.811136973000,0.345000000000
14.818823258000,0.355000000000
14.826509543000,0.353000000000
14.834195828000,0.343000000000
14.841882113000,0.323000000000
14.849568398000,0.288000000000
14.857254683000,0.224000000000
14.864940968000,0.135000000000
14.872627253000,0.024000000000
14.880313538000,-0.091000000000
14.887999823000,-0.202000000000
14.895686108000,-0.284000000000
14.903372393000,-0.338000000000
14.911058678000,-0.370000000000
14.918744963000,-0.382000000000
14.926431248000,-0.385000000000
14.934117589000,-0.377000000000
14.941803456000,-0.365000000000
14.949489323000,-0.350000000000
14.957175190000,-0.338000000000
14.964861057000,-0.326000000000
14.972546924000,-0.313000000000
14.980232791000,-0.301000000000
14.987918658000,-0.286000000000
14.995604525000,-0.276000000000
15.003290392000,-0.266000000000
15.010976259000,-0.251000000000
15.018662126000,-0.242000000000
15.026347993000,-0.234000000000
15.034033860000,-0.227000000000
15.041719727000,-0.224000000000
15.049405594000,-0.222000000000
15.057091461000,-0.217000000000
15.064777328000,-0.212000000000
15.072463195000,-0.212000000000
15.080149062000,-0.209000000000
15.087834929000,-0.205000000000
15.095520796000,-0.202000000000
15.103206663000,-0.200000000000
15.110892530000,-0.197000000000
15.118578397000,-0.195000000000
15.126264264000,-0.192000000000
15.133950131000,-0.187000000000
15.141635998000,-0.182000000000
15.149321865000,-0.180000000000
15.157007732000,-0.177000000000
15.164693599000,-0.175000000000
15.172379466000,-0.177000000000
15.180065333000,-0.185000000000
15.187751200000,-0.180000000000
15.195437067000,-0.160000000000
15.203122934000,-0.138000000000
15.210808801000,-0.128000000000
15.218494668000,-0.116000000000
15.226180535000,-0.098000000000
15.233866402000,-0.098000000000
15.241552269000,-0.130000000000
15.249238136000,-0.158000000000
15.256924003000,-0.158000000000
15.264609870000,-0.145000000000
15.272295737000,-0.145000000000
15.279981604000,-0.140000000000
15.287667471000,-0.133000000000
15.295353338000,-0.133000000000
15.303039205000,-0.130000000000
15.310725072000,-0.125000000000
15.318410939000,-0.130000000000
15.326096806000,-0.145000000000
15.333782673000,-0.190000000000
15.341468540000,-0.172000000000
15.349154407000,0.165000000000
15.356840274000,0.866000000000
15.364526141000,1.546000000000
15.372212008000,1.699000000000
15.379897875000,0.795000000000
15.387583742000,-0.526000000000
15.395269609000,-0.661000000000
15.402955476000,-0.076000000000
15.410641343000,-0.076000000000
15.418327210000,-0.242000000000
15.426013077000,-0.125000000000
15.433698944000,-0.083000000000
15.441384811000,-0.135000000000
15.449070678000,-0.093000000000
15.456756545000,-0.046000000000
15.464442412000,-0.044000000000
15.472128279000,-0.019000000000
15.479814146000,0.019000000000
15.487500013000,0.041000000000
15.495185932000,0.071000000000
15.502872217000,0.111000000000
15.510558502000,0.145000000000
15.518244787000,0.187000000000
15.525931072000,0.234000000000
15.533617357000,0.281000000000
15.541303642000,0.323000000000
15.548989927000,0.360000000000
15.556676212000,0.382000000000
15.564362497000,0.390000000000
15.572048782000,0.387000000000
15.579735067000,0.375000000000
15.587421352000,0.350000000000
15.595107637000,0.308000000000
15.602793922000,0.239000000000
15.610480207000,0.138000000000
15.618166492000,0.017000000000
15.625852777000,-0.103000000000
15.633539062000,-0.212000000000
15.641225347000,-0.293000000000
15.648911632000,-0.345000000000
15.656597917000,-0.372000000000
15.664284202000,-0.382000000000
15.671970487000,-0.380000000000
15.679656772000,-0.372000000000
15.687343057000,-0.365000000000
15.695029342000,-0.353000000000
15.702715627000,-0.335000000000
15.710401912000,-0.321000000000
15.718088197000,-0.306000000000
15.725774482000,-0.293000000000
15.733460767000,-0.281000000000
15.741147052000,-0.269000000000
15.748833337000,-0.256000000000
15.756519622000,-0.244000000000
15.764205907000,-0.237000000000
15.771892192000,-0.232000000000
15.779578477000,-0.229000000000
15.787264762000,-0.224000000000
15.794951047000,-0.219000000000
15.802637332000,-0.217000000000
15.810323617000,-0.217000000000
15.818009902000,-0.214000000000
15.825696187000,-0.209000000000
15.833382472000,-0.205000000000
15.841068757000,-0.205000000000
15.848755042000,-0.205000000000
15.856441327000,-0.200000000000
15.864127612000,-0.197000000000
15.871813897000,-0.195000000000
15.879500182000,-0.190000000000
15.887186467000,-0.185000000000
15.894872752000,-0.182000000000
15.902559037000,-0.177000000000
15.910245322000,-0.172000000000
15.917931607000,-0.172000000000
15.925617892000,-0.180000000000
15.933304177000,-0.182000000000
15.940990462000,-0.172000000000
15.948676747000,-0.155000000000
15.956363032000,-0.138000000000
15.964049317000,-0.128000000000
15.971735602000,-0.113000000000
15.979421887000,-0.096000000000
15.987108172000,-0.106000000000
15.994794457000,-0.143000000000
16.002480742000,-0.165000000000
16.010167027000,-0.155000000000
16.017853312000,-0.145000000000
16.025539597000,-0.143000000000
16.033225882000,-0.140000000000
16.040912167000,-0.140000000000
16.048598452000,-0.138000000000
16.056284793000,-0.133000000000
16.063971078000,-0.130000000000
16.071657363000,-0.138000000000
16.079343648000,-0.165000000000
16.087029933000,-0.214000000000
16.094716218000,-0.143000000000
16.102402503000,0.308000000000
16.110088788000,1.062000000000
16.117775073000,1.679000000000
16.125461358000,1.620000000000
16.133147643000,0.451000000000
16.140833928000,-0.718000000000
16.148520213000,-0.528000000000
16.156206498000,-0.012000000000
16.163892783000,-0.145000000000
16.171579068000,-0.234000000000
16.179265353000,-0.098000000000
16.186951638000,-0.106000000000
16.194637923000,-0.140000000000
16.202324208000,-0.081000000000
16.210010493000,-0.051000000000
16.217696778000,-0.049000000000
16.225383063000,-0.014000000000
16.233069348000,0.022000000000
16.240755633000,0.044000000000
16.248441918000,0.079000000000
16.256128203000,0.118000000000
16.263814488000,0.155000000000
16.271500773000,0.197000000000
16.279187058000,0.244000000000
16.286873343000,0.288000000000
16.294559628000,0.330000000000
16.302245913000,0.365000000000
16.309932198000,0.385000000000
16.317618483000,0.387000000000
16.325304768000,0.380000000000
16.332991053000,0.365000000000
16.340677338000,0.343000000000
16.348363623000,0.296000000000
16.356049908000,0.217000000000
16.363736193000,0.111000000000
16.371422478000,-0.009000000000
16.379108763000,-0.130000000000
16.386795048000,-0.234000000000
16.394481333000,-0.311000000000
16.402167618000,-0.358000000000
16.409853903000,-0.380000000000
16.417540188000,-0.385000000000
16.425226473000,-0.382000000000
16.432912758000,-0.375000000000
16.440599043000,-0.365000000000
16.448285328000,-0.355000000000
16.455971613000,-0.340000000000
16.463657898000,-0.323000000000
16.471344183000,-0.311000000000
16.479030468000,-0.296000000000
16.486716753000,-0.281000000000
16.494403038000,-0.269000000000
16.502089323000,-0.259000000000
16.509775608000,-0.251000000000
16.517461893000,-0.244000000000
16.525148178000,-0.237000000000
16.532834463000,-0.229000000000
16.540520748000,-0.227000000000
16.548207033000,-0.224000000000
16.555893318000,-0.222000000000
16.563579603000,-0.217000000000
16.571265888000,-0.214000000000
16.578952173000,-0.214000000000
16.586638458000,-0.214000000000
16.594324743000,-0.209000000000
16.602011028000,-0.207000000000
16.609697313000,-0.205000000000
16.617383658000,-0.202000000000
16.625069525000,-0.197000000000
16.632755392000,-0.195000000000
16.640441259000,-0.192000000000
16.648127126000,-0.185000000000
16.655812993000,-0.180000000000
16.663498860000,-0.180000000000
16.671184727000,-0.182000000000
16.678870594000,-0.187000000000
16.686556461000,-0.182000000000
16.694242328000,-0.163000000000
16.701928195000,-0.140000000000
16.709614062000,-0.130000000000
16.717299929000,-0.118000000000
16.724985796000,-0.103000000000
16.732671663000,-0.106000000000
16.740357530000,-0.138000000000
16.748043397000,-0.167000000000
16.755729264000,-0.160000000000
16.763415131000,-0.150000000000
16.771100998000,-0.150000000000
16.778786865000,-0.145000000000
16.786472732000,-0.140000000000
16.794158599000,-0.135000000000
16.801844466000,-0.133000000000
16.809530333000,-0.130000000000
16.817216200000,-0.135000000000
16.824902067000,-0.158000000000
16.832587934000,-0.209000000000
16.840273801000,-0.187000000000
16.847959668000,0.182000000000
16.855645535000,0.913000000000
16.863331402000,1.605000000000
16.871017269000,1.721000000000
16.878703136000,0.723000000000
16.886389003000,-0.597000000000
16.894074870000,-0.647000000000
16.901760737000,-0.061000000000
16.909446604000,-0.103000000000
16.917132471000,-0.246000000000
16.924818338000,-0.118000000000
16.932504205000,-0.091000000000
16.940190072000,-0.140000000000
16.947875939000,-0.096000000000
16.955561806000,-0.054000000000
16.963247673000,-0.051000000000
16.970933540000,-0.024000000000
16.978619407000,0.014000000000
16.986305274000,0.039000000000
16.993991141000,0.071000000000
17.001677008000,0.108000000000
17.009362875000,0.145000000000
17.017048742000,0.185000000000
17.024734609000,0.232000000000
17.032420476000,0.279000000000
17.040106343000,0.323000000000
17.047792210000,0.358000000000
17.055478077000,0.377000000000
17.063163944000,0.387000000000
17.070849811000,0.385000000000
17.078535678000,0.368000000000
17.086221545000,0.345000000000
17.093907412000,0.306000000000
17.101593279000,0.234000000000
17.109279146000,0.133000000000
17.116965013000,0.014000000000
17.124650880000,-0.103000000000
17.132336747000,-0.212000000000
17.140022614000,-0.296000000000
17.147708481000,-0.348000000000
17.155394348000,-0.372000000000
17.163080215000,-0.382000000000
17.170766082000,-0.380000000000
17.178452001000,-0.372000000000
17.186138286000,-0.363000000000
17.193824571000,-0.353000000000
17.201510856000,-0.338000000000
17.209197141000,-0.321000000000
17.216883426000,-0.306000000000
17.224569711000,-0.293000000000
17.232255996000,-0.281000000000
17.239942281000,-0.269000000000
17.247628566000,-0.256000000000
17.255314851000,-0.246000000000
17.263001136000,-0.239000000000
17.270687421000,-0.232000000000
17.278373706000,-0.224000000000
17.286059991000,-0.222000000000
17.293746276000,-0.219000000000
17.301432561000,-0.217000000000
17.309118846000,-0.212000000000
17.316805131000,-0.212000000000
17.324491416000,-0.209000000000
17.332177701000,-0.207000000000
17.339863986000,-0.205000000000
17.347550271000,-0.202000000000
17.355236556000,-0.200000000000
17.362922841000,-0.195000000000
17.370609126000,-0.190000000000
17.378295411000,-0.190000000000
17.385981696000,-0.187000000000
17.393667981000,-0.182000000000
17.401354266000,-0.177000000000
17.409040551000,-0.180000000000
17.416726836000,-0.185000000000
17.424413121000,-0.182000000000
17.432099406000,-0.165000000000
17.439785691000,-0.143000000000
17.447471976000,-0.128000000000
17.455158261000,-0.118000000000
17.462844546000,-0.101000000000
17.470530831000,-0.096000000000
17.478217116000,-0.125000000000
17.485903401000,-0.158000000000
17.493589686000,-0.158000000000
17.501275971000,-0.145000000000
17.508962256000,-0.143000000000
17.516648541000,-0.140000000000
17.524334826000,-0.133000000000
17.532021111000,-0.133000000000
17.539707396000,-0.130000000000
17.547393681000,-0.123000000000
17.555079966000,-0.128000000000
17.562766251000,-0.148000000000
17.570452536000,-0.197000000000
17.578138821000,-0.214000000000
17.585825106000,0.049000000000
17.593511391000,0.726000000000
17.601197676000,1.479000000000
17.608883961000,1.795000000000
17.616570246000,1.084000000000
17.624256531000,-0.333000000000
17.631942816000,-0.760000000000
17.639629101000,-0.170000000000
17.647315386000,-0.034000000000
17.655001671000,-0.232000000000
17.662687956000,-0.150000000000
17.670374241000,-0.076000000000
17.678060526000,-0.128000000000
17.685746811000,-0.103000000000
17.693433096000,-0.049000000000
17.701119381000,-0.044000000000
17.708805666000,-0.024000000000
17.716491951000,0.017000000000
17.724178236000,0.044000000000
17.731864521000,0.071000000000
17.739550862000,0.111000000000
17.747236938000,0.150000000000
17.754923014000,0.187000000000
17.762609090000,0.232000000000
17.770295166000,0.281000000000
17.777981242000,0.326000000000
17.785667318000,0.363000000000
17.793353394000,0.387000000000
17.801039470000,0.400000000000
17.808725546000,0.397000000000
17.816411622000,0.382000000000
17.824097698000,0.365000000000
17.831783774000,0.333000000000
17.839469850000,0.266000000000
17.847155926000,0.170000000000
17.854842002000,0.056000000000
17.862528078000,-0.061000000000
17.870214154000,-0.170000000000
17.877900230000,-0.256000000000
17.885586306000,-0.318000000000
17.893272382000,-0.358000000000
17.900958458000,-0.370000000000
17.908644534000,-0.370000000000
17.916330610000,-0.365000000000
17.924016686000,-0.358000000000
17.931702762000,-0.348000000000
17.939388838000,-0.328000000000
17.947074914000,-0.306000000000
17.954760990000,-0.293000000000
17.962447066000,-0.288000000000
17.970133142000,-0.274000000000
17.977819218000,-0.254000000000
17.985505294000,-0.244000000000
17.993191370000,-0.237000000000
18.000877446000,-0.224000000000
18.008563522000,-0.217000000000
18.016249598000,-0.217000000000
18.023935674000,-0.209000000000
18.031621750000,-0.205000000000
18.039307826000,-0.202000000000
18.046993902000,-0.202000000000
18.054679978000,-0.197000000000
18.062366054000,-0.192000000000
18.070052130000,-0.192000000000
18.077738206000,-0.197000000000
18.085424282000,-0.190000000000
18.093110358000,-0.182000000000
18.100796434000,-0.187000000000
18.108482510000,-0.185000000000
18.116168586000,-0.175000000000
18.123854662000,-0.172000000000
18.131540738000,-0.182000000000
18.139226814000,-0.185000000000
18.146912890000,-0.170000000000
18.154598966000,-0.158000000000
18.162285042000,-0.143000000000
18.169971118000,-0.125000000000
18.177657194000,-0.116000000000
18.185343270000,-0.098000000000
18.193029346000,-0.096000000000
18.200715422000,-0.125000000000
18.208401498000,-0.153000000000
18.216087574000,-0.153000000000
18.223773650000,-0.145000000000
18.231459726000,-0.145000000000
18.239145802000,-0.138000000000
18.246831878000,-0.130000000000
18.254517954000,-0.128000000000
18.262204030000,-0.125000000000
18.269890106000,-0.123000000000
18.277576182000,-0.123000000000
18.285262258000,-0.135000000000
18.292948334000,-0.190000000000
18.300634466000,-0.202000000000
18.308320542000,0.123000000000
18.316006618000,0.854000000000
18.323692694000,1.518000000000
18.331378770000,1.588000000000
18.339064846000,0.703000000000
18.346750922000,-0.513000000000
18.354436998000,-0.642000000000
18.362123074000,-0.098000000000
18.369809150000,-0.071000000000
18.377495226000,-0.202000000000
18.385181302000,-0.098000000000
18.392867378000,-0.061000000000
18.400553454000,-0.101000000000
18.408239530000,-0.066000000000
18.415925606000,-0.027000000000
18.423611682000,-0.027000000000
18.431297758000,0.000000000000
18.438983834000,0.039000000000
18.446669910000,0.066000000000
18.454355986000,0.093000000000
18.462042062000,0.128000000000
18.469728138000,0.165000000000
18.477414214000,0.207000000000
18.485100290000,0.254000000000
18.492786366000,0.301000000000
18.500472442000,0.343000000000
18.508158518000,0.375000000000
18.515844594000,0.397000000000
18.523530670000,0.405000000000
18.531216746000,0.395000000000
18.538902822000,0.377000000000
18.546588898000,0.353000000000
18.554274974000,0.308000000000
18.561961050000,0.237000000000
18.569647126000,0.135000000000
18.577333202000,0.019000000000
18.585019278000,-0.098000000000
18.592705354000,-0.209000000000
18.600391430000,-0.291000000000
18.608077506000,-0.340000000000
18.615763582000,-0.365000000000
18.623449658000,-0.377000000000
18.631135734000,-0.377000000000
18.638821810000,-0.368000000000
18.646507886000,-0.360000000000
18.654193962000,-0.353000000000
18.661880038000,-0.338000000000
18.669566114000,-0.323000000000
18.677252190000,-0.311000000000
18.684938266000,-0.293000000000
18.692624342000,-0.279000000000
18.700310418000,-0.271000000000
18.707996494000,-0.264000000000
18.715682570000,-0.251000000000
18.723368646000,-0.239000000000
18.731054722000,-0.234000000000
18.738740798000,-0.229000000000
18.746426874000,-0.224000000000
18.754112950000,-0.219000000000
18.761799026000,-0.217000000000
18.769485102000,-0.214000000000
18.777171178000,-0.212000000000
18.784857254000,-0.207000000000
18.792543330000,-0.207000000000
18.800229406000,-0.207000000000
18.807915482000,-0.207000000000
18.815601558000,-0.205000000000
18.823287634000,-0.200000000000
18.830973710000,-0.195000000000
18.838659786000,-0.195000000000
18.846345862000,-0.200000000000
18.854031938000,-0.205000000000
18.861718066000,-0.192000000000
18.869404351000,-0.172000000000
18.877090636000,-0.155000000000
18.884776921000,-0.148000000000
18.892463206000,-0.133000000000
18.900149491000,-0.118000000000
18.907835776000,-0.130000000000
18.915522061000,-0.172000000000
18.923208346000,-0.187000000000
18.930894631000,-0.172000000000
18.938580916000,-0.165000000000
18.946267201000,-0.165000000000
18.953953486000,-0.160000000000
18.961639771000,-0.155000000000
18.969326056000,-0.153000000000
18.977012341000,-0.148000000000
18.984698626000,-0.148000000000
18.992384911000,-0.163000000000
19.000071196000,-0.207000000000
19.007757481000,-0.234000000000
19.015443766000,0.004000000000
19.023130051000,0.669000000000
19.030816336000,1.407000000000
19.038502621000,1.694000000000
19.046188906000,1.005000000000
19.053875191000,-0.345000000000
19.061561476000,-0.770000000000
19.069247761000,-0.205000000000
19.076934046000,-0.051000000000
19.084620331000,-0.237000000000
19.092306616000,-0.158000000000
19.099992901000,-0.081000000000
19.107679186000,-0.130000000000
19.115365471000,-0.111000000000
19.123051756000,-0.056000000000
19.130738041000,-0.051000000000
19.138424326000,-0.034000000000
19.146110611000,0.004000000000
19.153796896000,0.032000000000
19.161483181000,0.056000000000
19.169169466000,0.096000000000
19.176855751000,0.133000000000
19.184542036000,0.170000000000
19.192228321000,0.214000000000
19.199914606000,0.261000000000
19.207600891000,0.301000000000
19.215287176000,0.338000000000
19.222973461000,0.363000000000
19.230659746000,0.370000000000
19.238346031000,0.365000000000
19.246032316000,0.353000000000
19.253718601000,0.330000000000
19.261404886000,0.296000000000
19.269091171000,0.237000000000
19.276777456000,0.140000000000
19.284463741000,0.029000000000
19.292150026000,-0.086000000000
19.299836311000,-0.197000000000
19.307522596000,-0.284000000000
19.315208881000,-0.335000000000
19.322895166000,-0.363000000000
19.330581451000,-0.380000000000
19.338267736000,-0.385000000000
19.345954021000,-0.372000000000
19.353640306000,-0.360000000000
19.361326591000,-0.353000000000
19.369012876000,-0.340000000000
19.376699161000,-0.321000000000
19.384385446000,-0.306000000000
19.392071731000,-0.293000000000
19.399758016000,-0.284000000000
19.407444301000,-0.269000000000
19.415130586000,-0.256000000000
19.422816927000,-0.246000000000
19.430503212000,-0.237000000000
19.438189497000,-0.232000000000
19.445875782000,-0.224000000000
19.453562067000,-0.217000000000
19.461248352000,-0.217000000000
19.468934637000,-0.219000000000
19.476620922000,-0.214000000000
19.484307207000,-0.209000000000
19.491993492000,-0.209000000000
19.499679777000,-0.205000000000
19.507366062000,-0.202000000000
19.515052347000,-0.202000000000
19.522738632000,-0.202000000000
19.530424917000,-0.202000000000
19.538111202000,-0.207000000000
19.545797487000,-0.207000000000
19.553483772000,-0.195000000000
19.561170057000,-0.177000000000
19.568856342000,-0.163000000000
19.576542627000,-0.150000000000
19.584228912000,-0.128000000000
19.591915197000,-0.116000000000
19.599601482000,-0.140000000000
19.607287767000,-0.177000000000
19.614974052000,-0.180000000000
19.622660337000,-0.167000000000
19.630346622000,-0.167000000000
19.638032907000,-0.165000000000
19.645719192000,-0.153000000000
19.653405477000,-0.150000000000
19.661091762000,-0.150000000000
19.668778047000,-0.145000000000
19.676464332000,-0.148000000000
19.684150617000,-0.170000000000
19.691836902000,-0.227000000000
19.699523187000,-0.187000000000
19.707209472000,0.239000000000
19.714895757000,0.997000000000
19.722582042000,1.615000000000
19.730268327000,1.556000000000
19.737954612000,0.449000000000
19.745640897000,-0.703000000000
19.753327182000,-0.563000000000
19.761013467000,-0.037000000000
19.768699752000,-0.135000000000
19.776386037000,-0.232000000000
19.784072322000,-0.098000000000
19.791758607000,-0.096000000000
19.799444892000,-0.135000000000
19.807131177000,-0.083000000000
19.814817462000,-0.049000000000
19.822503747000,-0.044000000000
19.830190032000,-0.014000000000
19.837876317000,0.019000000000
19.845562602000,0.044000000000
19.853248887000,0.079000000000
19.860935172000,0.116000000000
19.868621457000,0.153000000000
19.876307742000,0.192000000000
19.883994027000,0.242000000000
19.891680312000,0.286000000000
19.899366597000,0.323000000000
19.907052882000,0.350000000000
19.914739167000,0.370000000000
19.922425452000,0.372000000000
19.930111737000,0.363000000000
19.937798022000,0.343000000000
19.945484307000,0.316000000000
19.953170592000,0.269000000000
19.960856877000,0.187000000000
19.968543162000,0.076000000000
19.976229447000,-0.039000000000
19.983915792000,-0.150000000000
19.991601659000,-0.246000000000
19.999287526000,-0.316000000000
20.006973393000,-0.358000000000
20.014659260000,-0.377000000000
20.022345127000,-0.382000000000
20.030030994000,-0.377000000000
20.037716861000,-0.368000000000
20.045402728000,-0.360000000000
20.053088595000,-0.348000000000
20.060774462000,-0.333000000000
20.068460329000,-0.321000000000
20.076146196000,-0.306000000000
20.083832063000,-0.288000000000
20.091517930000,-0.279000000000
20.099203797000,-0.269000000000
20.106889664000,-0.256000000000
20.114575531000,-0.246000000000
20.122261398000,-0.237000000000
20.129947265000,-0.229000000000
20.137633132000,-0.224000000000
20.145318999000,-0.222000000000
20.153004866000,-0.217000000000
20.160690733000,-0.212000000000
20.168376600000,-0.212000000000
20.176062467000,-0.212000000000
20.183748334000,-0.209000000000
20.191434201000,-0.205000000000
20.199120068000,-0.202000000000
20.206805935000,-0.209000000000
20.214491802000,-0.214000000000
20.222177669000,-0.212000000000
20.229863536000,-0.197000000000
20.237549403000,-0.180000000000
20.245235270000,-0.170000000000
20.252921137000,-0.158000000000
20.260607004000,-0.140000000000
20.268292871000,-0.130000000000
20.275978738000,-0.158000000000
20.283664605000,-0.192000000000
20.291350472000,-0.192000000000
20.299036339000,-0.180000000000
20.306722206000,-0.175000000000
20.314408073000,-0.172000000000
20.322093940000,-0.165000000000
20.329779807000,-0.163000000000
20.337465674000,-0.155000000000
20.345151541000,-0.153000000000
20.352837408000,-0.160000000000
20.360523275000,-0.187000000000
20.368209142000,-0.237000000000
20.375895009000,-0.133000000000
20.383580876000,0.392000000000
20.391266743000,1.155000000000
20.398952610000,1.642000000000
20.406638477000,1.331000000000
20.414324344000,0.086000000000
20.422010211000,-0.778000000000
20.429696078000,-0.395000000000
20.437381945000,-0.007000000000
20.445067812000,-0.182000000000
20.452753679000,-0.207000000000
20.460439546000,-0.088000000000
20.468125413000,-0.116000000000
20.475811280000,-0.128000000000
20.483497147000,-0.071000000000
20.491183014000,-0.051000000000
20.498868881000,-0.046000000000
20.506554748000,-0.007000000000
20.514240615000,0.024000000000
20.521926482000,0.046000000000
20.529612349000,0.081000000000
20.537298216000,0.118000000000
20.544984135000,0.155000000000
20.552670142000,0.197000000000
20.560356149000,0.242000000000
20.568042156000,0.284000000000
20.575728163000,0.321000000000
20.583414170000,0.345000000000
20.591100177000,0.355000000000
20.598786184000,0.355000000000
20.606472191000,0.345000000000
20.614158198000,0.328000000000
20.621844205000,0.296000000000
20.629530212000,0.239000000000
20.637216219000,0.153000000000
20.644902226000,0.044000000000
20.652588233000,-0.074000000000
20.660274240000,-0.182000000000
20.667960247000,-0.271000000000
20.675646254000,-0.330000000000
20.683332261000,-0.365000000000
20.691018268000,-0.377000000000
20.698704275000,-0.377000000000
20.706390282000,-0.375000000000
20.714076289000,-0.363000000000
20.721762296000,-0.348000000000
20.729448303000,-0.335000000000
20.737134310000,-0.323000000000
20.744820317000,-0.308000000000
20.752506324000,-0.296000000000
20.760192331000,-0.284000000000
20.767878338000,-0.269000000000
20.775564345000,-0.256000000000
20.783250352000,-0.246000000000
20.790936359000,-0.242000000000
20.798622366000,-0.234000000000
20.806308373000,-0.224000000000
20.813994380000,-0.222000000000
20.821680387000,-0.219000000000
20.829366394000,-0.219000000000
20.837052401000,-0.217000000000
20.844738408000,-0.212000000000
20.852424415000,-0.209000000000
20.860110422000,-0.209000000000
20.867796429000,-0.214000000000
20.875482436000,-0.222000000000
20.883168443000,-0.217000000000
20.890854450000,-0.202000000000
20.898540457000,-0.187000000000
20.906226464000,-0.180000000000
20.913912471000,-0.167000000000
20.921598478000,-0.145000000000
20.929284485000,-0.140000000000
20.936970492000,-0.172000000000
20.944656499000,-0.202000000000
20.952342506000,-0.195000000000
20.960028513000,-0.182000000000
20.967714520000,-0.182000000000
20.975400527000,-0.180000000000
20.983086534000,-0.172000000000
20.990772541000,-0.167000000000
20.998458548000,-0.163000000000
21.006144555000,-0.163000000000
21.013830562000,-0.175000000000
21.021516569000,-0.209000000000
21.029202576000,-0.237000000000
21.036888583000,-0.017000000000
21.044574590000,0.632000000000
21.052260597000,1.405000000000
21.059946604000,1.775000000000
21.067632611000,1.133000000000
21.075318618000,-0.286000000000
21.083004625000,-0.807000000000
21.090690632000,-0.234000000000
21.098376639000,-0.054000000000
21.106062652000,-0.256000000000
21.113748798000,-0.187000000000
21.121434944000,-0.101000000000
21.129121090000,-0.153000000000
21.136807236000,-0.130000000000
21.144493382000,-0.074000000000
21.152179528000,-0.069000000000
21.159865674000,-0.051000000000
21.167551820000,-0.012000000000
21.175237966000,0.014000000000
21.182924112000,0.044000000000
21.190610258000,0.086000000000
21.198296404000,0.123000000000
21.205982550000,0.160000000000
21.213668696000,0.207000000000
21.221354842000,0.256000000000
21.229040988000,0.301000000000
21.236727134000,0.333000000000
21.244413280000,0.353000000000
21.252099426000,0.363000000000
21.259785572000,0.358000000000
21.267471718000,0.345000000000
21.275157864000,0.326000000000
21.282844010000,0.288000000000
21.290530156000,0.222000000000
21.298216302000,0.125000000000
21.305902448000,0.014000000000
21.313588594000,-0.101000000000
21.321274740000,-0.207000000000
21.328960886000,-0.291000000000
21.336647032000,-0.343000000000
21.344333178000,-0.368000000000
21.352019324000,-0.377000000000
21.359705470000,-0.377000000000
21.367391616000,-0.368000000000
21.375077762000,-0.358000000000
21.382763908000,-0.348000000000
21.390450054000,-0.333000000000
21.398136200000,-0.316000000000
21.405822346000,-0.301000000000
21.413508492000,-0.286000000000
21.421194638000,-0.274000000000
21.428880784000,-0.259000000000
21.436566930000,-0.246000000000
21.444253076000,-0.242000000000
21.451939222000,-0.234000000000
21.459625368000,-0.227000000000
21.467311514000,-0.222000000000
21.474997660000,-0.222000000000
21.482683806000,-0.219000000000
21.490369952000,-0.214000000000
21.498056098000,-0.212000000000
21.505742244000,-0.212000000000
21.513428390000,-0.212000000000
21.521114536000,-0.214000000000
21.528800682000,-0.219000000000
21.536486828000,-0.212000000000
21.544172974000,-0.197000000000
21.551859120000,-0.180000000000
21.559545266000,-0.172000000000
21.567231412000,-0.163000000000
21.574917558000,-0.140000000000
21.582603704000,-0.138000000000
21.590289850000,-0.172000000000
21.597975996000,-0.195000000000
21.605662142000,-0.185000000000
21.613348288000,-0.177000000000
21.621034434000,-0.175000000000
21.628720580000,-0.165000000000
21.636406726000,-0.158000000000
21.644092872000,-0.158000000000
21.651779018000,-0.150000000000
21.659465164000,-0.150000000000
21.667151339000,-0.165000000000
21.674837624000,-0.209000000000
21.682523909000,-0.239000000000
21.690210194000,-0.014000000000
21.697896479000,0.642000000000
21.705582764000,1.439000000000
21.713269049000,1.852000000000
21.720955334000,1.205000000000
21.728641619000,-0.271000000000
21.736327904000,-0.812000000000
21.744014189000,-0.224000000000
21.751700474000,-0.049000000000
21.759386759000,-0.254000000000
21.767073044000,-0.175000000000
21.774759329000,-0.091000000000
21.782445614000,-0.148000000000
21.790131899000,-0.125000000000
21.797818184000,-0.066000000000
21.805504469000,-0.061000000000
21.813190754000,-0.044000000000
21.820877039000,-0.002000000000
21.828563324000,0.024000000000
21.836249609000,0.051000000000
21.843935894000,0.093000000000
21.851622179000,0.135000000000
21.859308464000,0.172000000000
21.866994749000,0.217000000000
21.874681034000,0.264000000000
21.882367319000,0.306000000000
21.890053604000,0.338000000000
21.897739889000,0.358000000000
21.905426174000,0.363000000000
21.913112459000,0.360000000000
21.920798744000,0.348000000000
21.928485029000,0.326000000000
21.936171314000,0.291000000000
21.943857599000,0.224000000000
21.951543884000,0.128000000000
21.959230169000,0.019000000000
21.966916454000,-0.091000000000
21.974602739000,-0.200000000000
21.982289024000,-0.284000000000
21.989975309000,-0.333000000000
21.997661594000,-0.358000000000
22.005347879000,-0.368000000000
22.013034164000,-0.368000000000
22.020720449000,-0.358000000000
22.028406734000,-0.348000000000
22.036093019000,-0.338000000000
22.043779304000,-0.323000000000
22.051465589000,-0.306000000000
22.059151874000,-0.291000000000
22.066838159000,-0.281000000000
22.074524444000,-0.264000000000
22.082210729000,-0.251000000000
22.089897014000,-0.242000000000
22.097583299000,-0.232000000000
22.105269584000,-0.224000000000
22.112955869000,-0.224000000000
22.120642154000,-0.222000000000
22.128328439000,-0.214000000000
22.136014724000,-0.214000000000
22.143701009000,-0.212000000000
22.151387294000,-0.207000000000
22.159073579000,-0.209000000000
22.166759864000,-0.209000000000
22.174446149000,-0.205000000000
22.182132434000,-0.207000000000
22.189818719000,-0.209000000000
22.197505004000,-0.209000000000
22.205191289000,-0.200000000000
22.212877574000,-0.182000000000
22.220563859000,-0.167000000000
22.228250200000,-0.158000000000
22.235936067000,-0.138000000000
22.243621934000,-0.121000000000
22.251307801000,-0.138000000000
22.258993668000,-0.177000000000
22.266679535000,-0.190000000000
22.274365402000,-0.177000000000
22.282051269000,-0.172000000000
22.289737136000,-0.167000000000
22.297423003000,-0.158000000000
22.305108870000,-0.153000000000
22.312794737000,-0.153000000000
22.320480604000,-0.148000000000
22.328166471000,-0.150000000000
22.335852338000,-0.167000000000
22.343538205000,-0.219000000000
22.351224072000,-0.219000000000
22.358909939000,0.108000000000
22.366595806000,0.842000000000
22.374281673000,1.602000000000
22.381967540000,1.822000000000
22.389653407000,0.884000000000
22.397339274000,-0.538000000000
22.405025141000,-0.713000000000
22.412711008000,-0.111000000000
22.420396875000,-0.103000000000
22.428082742000,-0.256000000000
22.435768609000,-0.133000000000
22.443454476000,-0.098000000000
22.451140343000,-0.148000000000
22.458826210000,-0.103000000000
22.466512077000,-0.056000000000
22.474197944000,-0.054000000000
22.481883811000,-0.027000000000
22.489569678000,0.012000000000
22.497255545000,0.039000000000
22.504941412000,0.071000000000
22.512627279000,0.111000000000
22.520313146000,0.148000000000
22.527999013000,0.190000000000
22.535684880000,0.237000000000
22.543370747000,0.281000000000
22.551056614000,0.321000000000
22.558742481000,0.345000000000
22.566428348000,0.360000000000
22.574114215000,0.368000000000
22.581800082000,0.365000000000
22.589485949000,0.348000000000
22.597171816000,0.323000000000
22.604857683000,0.288000000000
22.612543550000,0.222000000000
22.620229417000,0.123000000000
22.627915284000,0.012000000000
22.635601151000,-0.101000000000
22.643287018000,-0.200000000000
22.650972885000,-0.274000000000
22.658658752000,-0.323000000000
22.666344619000,-0.350000000000
22.674030486000,-0.360000000000
22.681716353000,-0.363000000000
22.689402220000,-0.350000000000
22.697088087000,-0.335000000000
22.704773954000,-0.321000000000
22.712459821000,-0.306000000000
22.720145688000,-0.293000000000
22.727831555000,-0.279000000000
22.735517422000,-0.256000000000
22.743203289000,-0.246000000000
22.750889156000,-0.244000000000
22.758575023000,-0.229000000000
22.766260890000,-0.214000000000
22.773946757000,-0.214000000000
22.781632624000,-0.219000000000
22.789318543000,-0.214000000000
22.797004828000,-0.202000000000
22.804691113000,-0.197000000000
22.812377398000,-0.202000000000
22.820063683000,-0.207000000000
22.827749968000,-0.202000000000
22.835436253000,-0.200000000000
22.843122538000,-0.202000000000
22.850808823000,-0.202000000000
22.858495108000,-0.200000000000
22.866181393000,-0.202000000000
22.873867678000,-0.202000000000
22.881553963000,-0.195000000000
22.889240248000,-0.175000000000
22.896926533000,-0.158000000000
22.904612818000,-0.148000000000
22.912299103000,-0.130000000000
22.919985388000,-0.123000000000
22.927671673000,-0.145000000000
22.935357958000,-0.177000000000
22.943044243000,-0.180000000000
22.950730528000,-0.170000000000
22.958416813000,-0.170000000000
22.966103098000,-0.167000000000
22.973789383000,-0.155000000000
22.981475668000,-0.148000000000
22.989161953000,-0.145000000000
22.996848238000,-0.145000000000
23.004534523000,-0.150000000000
23.012220808000,-0.167000000000
23.019907093000,-0.217000000000
23.027593378000,-0.187000000000
23.035279663000,0.219000000000
23.042965948000,0.973000000000
23.050652233000,1.546000000000
23.058338518000,1.427000000000
23.066024803000,0.375000000000
23.073711088000,-0.681000000000
23.081397373000,-0.543000000000
23.089083658000,-0.044000000000
23.096769943000,-0.118000000000
23.104456228000,-0.202000000000
23.112142513000,-0.091000000000
23.119828798000,-0.086000000000
23.127515083000,-0.113000000000
23.135201368000,-0.069000000000
23.142887653000,-0.039000000000
23.150573938000,-0.024000000000
23.158260223000,0.012000000000
23.165946508000,0.041000000000
23.173632793000,0.066000000000
23.181319078000,0.101000000000
23.189005363000,0.130000000000
23.196691648000,0.160000000000
23.204377933000,0.209000000000
23.212064218000,0.261000000000
23.219750503000,0.303000000000
23.227436788000,0.338000000000
23.235123073000,0.368000000000
23.242809358000,0.382000000000
23.250495643000,0.380000000000
23.258181928000,0.363000000000
23.265868213000,0.345000000000
23.273554498000,0.323000000000
23.281240783000,0.274000000000
23.288927068000,0.195000000000
23.296613353000,0.096000000000
23.304299638000,-0.012000000000
23.311985923000,-0.128000000000
23.319672208000,-0.234000000000
23.327358493000,-0.303000000000
23.335044778000,-0.340000000000
23.342731063000,-0.360000000000
23.350417404000,-0.360000000000
23.358103689000,-0.348000000000
23.365789974000,-0.340000000000
23.373476259000,-0.338000000000
23.381162544000,-0.328000000000
23.388848829000,-0.313000000000
23.396535114000,-0.303000000000
23.404221399000,-0.296000000000
23.411907684000,-0.281000000000
23.419593969000,-0.259000000000
23.427280254000,-0.244000000000
23.434966539000,-0.234000000000
23.442652824000,-0.224000000000
23.450339109000,-0.227000000000
23.458025394000,-0.232000000000
23.465711679000,-0.214000000000
23.473397964000,-0.202000000000
23.481084249000,-0.207000000000
23.488770534000,-0.209000000000
23.496456819000,-0.202000000000
23.504143104000,-0.200000000000
23.511829389000,-0.205000000000
23.519515674000,-0.209000000000
23.527201959000,-0.212000000000
23.534888244000,-0.205000000000
23.542574529000,-0.187000000000
23.550260814000,-0.182000000000
23.557947099000,-0.170000000000
23.565633384000,-0.153000000000
23.573319669000,-0.140000000000
23.581005954000,-0.138000000000
23.588692239000,-0.160000000000
23.596378524000,-0.200000000000
23.604064809000,-0.197000000000
23.611751094000,-0.175000000000
23.619437379000,-0.175000000000
23.627123664000,-0.180000000000
23.634809949000,-0.170000000000
23.642496234000,-0.160000000000
23.650182519000,-0.148000000000
23.657868804000,-0.145000000000
23.665555089000,-0.170000000000
23.673241374000,-0.192000000000
23.680927659000,-0.217000000000
23.688613944000,-0.101000000000
23.696300229000,0.424000000000
23.703986514000,1.074000000000
23.711672799000,1.257000000000
23.719359084000,0.782000000000
23.727045369000,-0.155000000000
23.734731654000,-0.679000000000
23.742417939000,-0.348000000000
23.750104224000,-0.056000000000
23.757790509000,-0.138000000000
23.765476794000,-0.125000000000
23.773163079000,-0.056000000000
23.780849364000,-0.076000000000
23.788535649000,-0.069000000000
23.796221934000,-0.027000000000
23.803908219000,-0.012000000000
23.811594504000,0.000000000000
23.819280789000,0.029000000000
23.826967074000,0.059000000000
23.834653359000,0.083000000000
23.842339644000,0.118000000000
23.850025929000,0.153000000000
23.857712214000,0.190000000000
23.865398499000,0.232000000000
23.873084784000,0.274000000000
23.880771069000,0.311000000000
23.888457354000,0.340000000000
23.896143639000,0.358000000000
23.903829924000,0.358000000000
23.911516269000,0.350000000000
23.919202136000,0.335000000000
23.926888003000,0.311000000000
23.934573870000,0.274000000000
23.942259737000,0.217000000000
23.949945604000,0.125000000000
23.957631471000,0.019000000000
23.965317338000,-0.083000000000
23.973003205000,-0.187000000000
23.980689072000,-0.271000000000
23.988374939000,-0.321000000000
23.996060806000,-0.350000000000
24.003746673000,-0.368000000000
24.011432540000,-0.365000000000
24.019118407000,-0.358000000000
24.026804274000,-0.353000000000
24.034490141000,-0.343000000000
24.042176008000,-0.326000000000
24.049861875000,-0.313000000000
24.057547742000,-0.301000000000
24.065233609000,-0.288000000000
24.072919476000,-0.274000000000
24.080605343000,-0.264000000000
24.088291210000,-0.254000000000
24.095977077000,-0.244000000000
24.103662944000,-0.239000000000
24.111348811000,-0.234000000000
24.119034678000,-0.229000000000
24.126720545000,-0.227000000000
24.134406412000,-0.224000000000
24.142092279000,-0.222000000000
24.149778146000,-0.222000000000
24.157464013000,-0.219000000000
24.165149880000,-0.219000000000
24.172835747000,-0.219000000000
24.180521614000,-0.217000000000
24.188207481000,-0.217000000000
24.195893348000,-0.227000000000
24.203579215000,-0.229000000000
24.211265082000,-0.219000000000
24.218950949000,-0.207000000000
24.226636816000,-0.195000000000
24.234322683000,-0.185000000000
24.242008550000,-0.170000000000
24.249694417000,-0.153000000000
24.257380284000,-0.153000000000
24.265066151000,-0.185000000000
24.272752018000,-0.209000000000
24.280437885000,-0.200000000000
24.288123752000,-0.190000000000
24.295809619000,-0.190000000000
24.303495486000,-0.185000000000
24.311181353000,-0.177000000000
24.318867220000,-0.175000000000
24.326553087000,-0.172000000000
24.334238954000,-0.172000000000
24.341924821000,-0.182000000000
24.349610688000,-0.219000000000
24.357296555000,-0.242000000000
24.364982422000,0.002000000000
24.372668289000,0.642000000000
24.380354156000,1.284000000000
24.388040023000,1.452000000000
24.395725890000,0.775000000000
24.403411757000,-0.405000000000
24.411097624000,-0.721000000000
24.418783491000,-0.190000000000
24.426469358000,-0.059000000000
24.434155225000,-0.222000000000
24.441841092000,-0.153000000000
24.449526959000,-0.088000000000
24.457212826000,-0.133000000000
24.464898693000,-0.108000000000
24.472584612000,-0.059000000000
24.480270897000,-0.054000000000
24.487957182000,-0.034000000000
24.495643467000,0.004000000000
24.503329752000,0.029000000000
24.511016037000,0.051000000000
24.518702322000,0.088000000000
24.526388607000,0.125000000000
24.534074892000,0.160000000000
24.541761177000,0.202000000000
24.549447462000,0.244000000000
24.557133747000,0.281000000000
24.564820032000,0.311000000000
24.572506317000,0.328000000000
24.580192602000,0.330000000000
24.587878887000,0.321000000000
24.595565172000,0.308000000000
24.603251457000,0.286000000000
24.610937742000,0.249000000000
24.618624027000,0.182000000000
24.626310312000,0.091000000000
24.633996597000,-0.014000000000
24.641682882000,-0.123000000000
24.649369167000,-0.222000000000
24.657055452000,-0.301000000000
24.664741737000,-0.348000000000
24.672428022000,-0.372000000000
24.680114307000,-0.377000000000
24.687800592000,-0.377000000000
24.695486877000,-0.372000000000
24.703173162000,-0.360000000000
24.710859447000,-0.345000000000
24.718545732000,-0.333000000000
24.726232017000,-0.321000000000
24.733918302000,-0.306000000000
24.741604587000,-0.293000000000
24.749290872000,-0.281000000000
24.756977157000,-0.266000000000
24.764663442000,-0.256000000000
24.772349727000,-0.246000000000
24.780036012000,-0.242000000000
24.787722297000,-0.239000000000
24.795408582000,-0.234000000000
24.803094867000,-0.229000000000
24.810781152000,-0.227000000000
24.818467437000,-0.227000000000
24.826153722000,-0.224000000000
24.833840007000,-0.222000000000
24.841526292000,-0.219000000000
24.849212577000,-0.219000000000
24.856898862000,-0.217000000000
24.864585147000,-0.212000000000
24.872271432000,-0.212000000000
24.879957717000,-0.207000000000
24.887644002000,-0.207000000000
24.895330287000,-0.212000000000
24.903016572000,-0.217000000000
24.910702857000,-0.212000000000
24.918389142000,-0.195000000000
24.926075427000,-0.177000000000
24.933761712000,-0.163000000000
24.941447997000,-0.148000000000
24.949134282000,-0.130000000000
24.956820567000,-0.128000000000
24.964506852000,-0.165000000000
24.972193137000,-0.195000000000
24.979879422000,-0.187000000000
24.987565707000,-0.175000000000
24.995251992000,-0.177000000000
25.002938277000,-0.172000000000
25.010624562000,-0.165000000000
25.018310847000,-0.160000000000
25.025997132000,-0.158000000000
25.033683473000,-0.155000000000
25.041369758000,-0.163000000000
25.049056043000,-0.195000000000
25.056742328000,-0.246000000000
25.064428613000,-0.153000000000
25.072114898000,0.348000000000
25.079801183000,1.108000000000
25.087487468000,1.640000000000
25.095173753000,1.402000000000
25.102860038000,0.172000000000
25.110546323000,-0.787000000000
25.118232608000,-0.449000000000
25.125918893000,-0.014000000000
25.133605178000,-0.180000000000
25.141291463000,-0.224000000000
25.148977748000,-0.096000000000
25.156664033000,-0.116000000000
25.164350318000,-0.138000000000
25.172036603000,-0.079000000000
25.179722888000,-0.054000000000
25.187409173000,-0.049000000000
25.195095458000,-0.012000000000
25.202781743000,0.022000000000
25.210468028000,0.044000000000
25.218154313000,0.076000000000
25.225840598000,0.116000000000
25.233526883000,0.153000000000
25.241213168000,0.195000000000
25.248899453000,0.239000000000
25.256585738000,0.281000000000
25.264272023000,0.316000000000
25.271958308000,0.343000000000
25.279644593000,0.355000000000
25.287330878000,0.355000000000
25.295017163000,0.348000000000
25.302703448000,0.333000000000
25.310389733000,0.303000000000
25.318076018000,0.251000000000
25.325762303000,0.170000000000
25.333448588000,0.066000000000
25.341134873000,-0.046000000000
25.348821158000,-0.160000000000
25.356507443000,-0.254000000000
25.364193728000,-0.318000000000
25.371880013000,-0.355000000000
25.379566298000,-0.375000000000
25.387252583000,-0.380000000000
25.394938868000,-0.372000000000
25.402625153000,-0.365000000000
25.410311438000,-0.355000000000
25.417997723000,-0.340000000000
25.425684008000,-0.326000000000
25.433370293000,-0.311000000000
25.441056578000,-0.298000000000
25.448742863000,-0.286000000000
25.456429148000,-0.271000000000
25.464115433000,-0.261000000000
25.471801718000,-0.254000000000
25.479488003000,-0.244000000000
25.487174288000,-0.237000000000
25.494860573000,-0.234000000000
25.502546858000,-0.229000000000
25.510233143000,-0.227000000000
25.517919428000,-0.227000000000
25.525605713000,-0.224000000000
25.533291998000,-0.222000000000
25.540978283000,-0.219000000000
25.548664568000,-0.217000000000
25.556350853000,-0.214000000000
25.564037138000,-0.212000000000
25.571723423000,-0.209000000000
25.579409708000,-0.205000000000
25.587095993000,-0.202000000000
25.594782334000,-0.200000000000
25.602468550000,-0.200000000000
25.610154766000,-0.195000000000
25.617840982000,-0.195000000000
25.625527198000,-0.200000000000
25.633213414000,-0.202000000000
25.640899630000,-0.190000000000
25.648585846000,-0.167000000000
25.656272062000,-0.150000000000
25.663958278000,-0.143000000000
25.671644494000,-0.125000000000
25.679330710000,-0.111000000000
25.687016926000,-0.130000000000
25.694703142000,-0.167000000000
25.702389358000,-0.175000000000
25.710075574000,-0.165000000000
25.717761790000,-0.163000000000
25.725448006000,-0.160000000000
25.733134222000,-0.155000000000
25.740820438000,-0.150000000000
25.748506654000,-0.148000000000
25.756192870000,-0.140000000000
25.763879086000,-0.143000000000
25.771565302000,-0.158000000000
25.779251518000,-0.195000000000
25.786937734000,-0.234000000000
25.794623950000,-0.066000000000
25.802310166000,0.526000000000
25.809996382000,1.286000000000
25.817682598000,1.716000000000
25.825368814000,1.239000000000
25.833055030000,-0.113000000000
25.840741246000,-0.802000000000
25.848427462000,-0.288000000000
25.856113678000,-0.012000000000
25.863799894000,-0.214000000000
25.871486110000,-0.182000000000
25.879172326000,-0.076000000000
25.886858542000,-0.121000000000
25.894544758000,-0.118000000000
25.902230974000,-0.056000000000
25.909917190000,-0.044000000000
25.917603406000,-0.034000000000
25.925289622000,0.007000000000
25.932975838000,0.034000000000
25.940662054000,0.056000000000
25.948348270000,0.093000000000
25.956034486000,0.133000000000
25.963720702000,0.170000000000
25.971406918000,0.212000000000
25.979093134000,0.256000000000
25.986779350000,0.298000000000
25.994465566000,0.333000000000
26.002151782000,0.355000000000
26.009837998000,0.365000000000
26.017524214000,0.363000000000
26.025210430000,0.353000000000
26.032896646000,0.333000000000
26.040582862000,0.306000000000
26.048269078000,0.251000000000
26.055955294000,0.165000000000
26.063641510000,0.059000000000
26.071327726000,-0.054000000000
26.079013942000,-0.165000000000
26.086700158000,-0.259000000000
26.094386374000,-0.321000000000
26.102072590000,-0.360000000000
26.109758806000,-0.377000000000
26.117445022000,-0.377000000000
26.125131238000,-0.372000000000
26.132817454000,-0.363000000000
26.140503670000,-0.353000000000
26.148189886000,-0.338000000000
26.155876112000,-0.326000000000
26.163562049000,-0.311000000000
26.171247986000,-0.296000000000
26.178933923000,-0.284000000000
26.186619860000,-0.276000000000
26.194305797000,-0.264000000000
26.201991734000,-0.249000000000
26.209677671000,-0.242000000000
26.217363608000,-0.237000000000
26.225049545000,-0.234000000000
26.232735482000,-0.232000000000
26.240421419000,-0.227000000000
26.248107356000,-0.222000000000
26.255793293000,-0.222000000000
26.263479230000,-0.217000000000
26.271165167000,-0.214000000000
26.278851104000,-0.214000000000
26.286537041000,-0.214000000000
26.294222978000,-0.212000000000
26.301908915000,-0.207000000000
26.309594852000,-0.205000000000
26.317280789000,-0.200000000000
26.324966726000,-0.190000000000
26.332652663000,-0.190000000000
26.340338600000,-0.195000000000
26.348024537000,-0.202000000000
26.355710474000,-0.200000000000
26.363396411000,-0.190000000000
26.371082348000,-0.167000000000
26.378768285000,-0.150000000000
26.386454222000,-0.140000000000
26.394140159000,-0.125000000000
26.401826096000,-0.106000000000
26.409512033000,-0.111000000000
26.417197970000,-0.155000000000
26.424883907000,-0.182000000000
26.432569844000,-0.165000000000
26.440255781000,-0.148000000000
26.447941718000,-0.150000000000
26.455627655000,-0.148000000000
26.463313592000,-0.143000000000
26.470999529000,-0.140000000000
26.478685466000,-0.133000000000
26.486371403000,-0.130000000000
26.494057340000,-0.145000000000
26.501743277000,-0.172000000000
26.509429214000,-0.214000000000
26.517115151000,-0.113000000000
26.524801088000,0.407000000000
26.532487025000,1.175000000000
26.540172962000,1.684000000000
26.547858899000,1.395000000000
26.555544836000,0.138000000000
26.563230773000,-0.768000000000
26.570916710000,-0.390000000000
26.578602647000,0.012000000000
26.586288584000,-0.158000000000
26.593974521000,-0.180000000000
26.601660458000,-0.064000000000
26.609346395000,-0.096000000000
26.617032332000,-0.103000000000
26.624718269000,-0.044000000000
26.632404206000,-0.032000000000
26.640090143000,-0.027000000000
26.647776080000,0.014000000000
26.655462017000,0.054000000000
26.663147954000,0.086000000000
26.670833891000,0.128000000000
26.678519828000,0.163000000000
26.686205765000,0.182000000000
26.693891702000,0.217000000000
26.701577639000,0.274000000000
26.709263576000,0.321000000000
26.716949538000,0.355000000000
26.724635823000,0.387000000000
26.732322108000,0.407000000000
26.740008393000,0.417000000000
26.747694678000,0.402000000000
26.755380963000,0.368000000000
26.763067248000,0.338000000000
26.770753533000,0.293000000000
26.778439818000,0.205000000000
26.786126103000,0.096000000000
26.793812388000,-0.009000000000
26.801498673000,-0.118000000000
26.809184958000,-0.219000000000
26.816871243000,-0.301000000000
26.824557528000,-0.343000000000
26.832243813000,-0.358000000000
26.839930098000,-0.365000000000
26.847616383000,-0.360000000000
26.855302668000,-0.348000000000
26.862988953000,-0.340000000000
26.870675238000,-0.326000000000
26.878361523000,-0.306000000000
26.886047808000,-0.298000000000
26.893734093000,-0.293000000000
26.901420378000,-0.276000000000
26.909106663000,-0.259000000000
26.916792948000,-0.242000000000
26.924479233000,-0.227000000000
26.932165518000,-0.224000000000
26.939851803000,-0.224000000000
26.947538088000,-0.212000000000
26.955224373000,-0.205000000000
26.962910658000,-0.209000000000
26.970596943000,-0.209000000000
26.978283228000,-0.200000000000
26.985969513000,-0.197000000000
26.993655798000,-0.195000000000
27.001342083000,-0.185000000000
27.009028368000,-0.187000000000
27.016714653000,-0.195000000000
27.024400938000,-0.192000000000
27.032087223000,-0.192000000000
27.039773508000,-0.195000000000
27.047459793000,-0.190000000000
27.055146078000,-0.180000000000
27.062832363000,-0.163000000000
27.070518648000,-0.145000000000
27.078204933000,-0.135000000000
27.085891218000,-0.130000000000
27.093577503000,-0.113000000000
27.101263788000,-0.113000000000
27.108950073000,-0.150000000000
27.116636358000,-0.177000000000
27.124322643000,-0.172000000000
27.132008928000,-0.153000000000
27.139695213000,-0.143000000000
27.147381498000,-0.148000000000
27.155067783000,-0.148000000000
27.162754068000,-0.133000000000
27.170440353000,-0.130000000000
27.178126638000,-0.140000000000
27.185812923000,-0.148000000000
27.193499208000,-0.163000000000
27.201185493000,-0.202000000000
27.208871778000,-0.148000000000
27.216558063000,0.269000000000
27.224244348000,0.943000000000
27.231930633000,1.289000000000
27.239616918000,0.958000000000
27.247303203000,0.054000000000
27.254989488000,-0.639000000000
27.262675773000,-0.429000000000
27.270362058000,-0.054000000000
27.278048403000,-0.098000000000
27.285734410000,-0.118000000000
27.293420417000,-0.027000000000
27.301106424000,-0.039000000000
27.308792431000,-0.061000000000
27.316478438000,-0.019000000000
27.324164445000,0.002000000000
27.331850452000,0.012000000000
27.339536459000,0.044000000000
27.347222466000,0.071000000000
27.354908473000,0.098000000000
27.362594480000,0.138000000000
27.370280487000,0.165000000000
27.377966494000,0.197000000000
27.385652501000,0.239000000000
27.393338508000,0.286000000000
27.401024515000,0.326000000000
27.408710522000,0.360000000000
27.416396529000,0.385000000000
27.424082536000,0.395000000000
27.431768543000,0.397000000000
27.439454550000,0.377000000000
27.447140557000,0.348000000000
27.454826564000,0.323000000000
27.462512571000,0.276000000000
27.470198578000,0.192000000000
27.477884585000,0.081000000000
27.485570592000,-0.034000000000
27.493256599000,-0.150000000000
27.500942606000,-0.242000000000
27.508628613000,-0.301000000000
27.516314620000,-0.343000000000
27.524000627000,-0.363000000000
27.531686634000,-0.363000000000
27.539372641000,-0.363000000000
27.547058648000,-0.360000000000
27.554744655000,-0.343000000000
27.562430662000,-0.323000000000
27.570116669000,-0.316000000000
27.577802676000,-0.308000000000
27.585488683000,-0.293000000000
27.593174690000,-0.279000000000
27.600860697000,-0.269000000000
27.608546704000,-0.259000000000
27.616232711000,-0.249000000000
27.623918718000,-0.244000000000
27.631604725000,-0.239000000000
27.639290732000,-0.229000000000
27.646976739000,-0.224000000000
27.654662746000,-0.222000000000
27.662348753000,-0.217000000000
27.670034760000,-0.209000000000
27.677720767000,-0.209000000000
27.685406774000,-0.214000000000
27.693092781000,-0.209000000000
27.700778788000,-0.209000000000
27.708464795000,-0.214000000000
27.716150802000,-0.207000000000
27.723836809000,-0.197000000000
27.731522816000,-0.202000000000
27.739208823000,-0.214000000000
27.746894830000,-0.209000000000
27.754580837000,-0.197000000000
27.762266844000,-0.187000000000
27.769952851000,-0.170000000000
27.777638858000,-0.160000000000
27.785324865000,-0.145000000000
27.793010872000,-0.128000000000
27.800696879000,-0.138000000000
27.808382886000,-0.180000000000
27.816068893000,-0.197000000000
27.823754900000,-0.180000000000
27.831440907000,-0.172000000000
27.839126920000,-0.172000000000
27.846813484000,-0.167000000000
27.854500048000,-0.163000000000
27.862186612000,-0.160000000000
27.869873176000,-0.153000000000
27.877559740000,-0.155000000000
27.885246304000,-0.165000000000
27.892932868000,-0.197000000000
27.900619432000,-0.224000000000
27.908305996000,0.002000000000
27.915992560000,0.624000000000
27.923679124000,1.232000000000
27.931365688000,1.348000000000
27.939052252000,0.703000000000
27.946738816000,-0.385000000000
27.954425380000,-0.698000000000
27.962111944000,-0.205000000000
27.969798508000,-0.049000000000
27.977485072000,-0.185000000000
27.985171636000,-0.128000000000
27.992858200000,-0.071000000000
28.000544764000,-0.106000000000
28.008231328000,-0.086000000000
28.015917892000,-0.041000000000
28.023604456000,-0.034000000000
28.031291020000,-0.014000000000
28.038977584000,0.019000000000
28.046664148000,0.046000000000
28.054350712000,0.071000000000
28.062037276000,0.106000000000
28.069723840000,0.143000000000
28.077410404000,0.180000000000
28.085096968000,0.219000000000
28.092783532000,0.259000000000
28.100470096000,0.296000000000
28.108156660000,0.326000000000
28.115843224000,0.343000000000
28.123529788000,0.348000000000
28.131216352000,0.338000000000
28.138902916000,0.323000000000
28.146589480000,0.301000000000
28.154276044000,0.264000000000
28.161962608000,0.200000000000
28.169649172000,0.106000000000
28.177335736000,0.002000000000
28.185022300000,-0.103000000000
28.192708864000,-0.202000000000
28.200395428000,-0.279000000000
28.208081992000,-0.323000000000
28.215768556000,-0.350000000000
28.223455120000,-0.363000000000
28.231141684000,-0.360000000000
28.238828248000,-0.353000000000
28.246514812000,-0.345000000000
28.254201376000,-0.335000000000
28.261887940000,-0.323000000000
28.269574504000,-0.306000000000
28.277261068000,-0.293000000000
28.284947632000,-0.281000000000
28.292634196000,-0.269000000000
28.300320760000,-0.254000000000
28.308007324000,-0.239000000000
28.315693888000,-0.229000000000
28.323380452000,-0.224000000000
28.331067016000,-0.217000000000
28.338753580000,-0.212000000000
28.346440144000,-0.214000000000
28.354126708000,-0.214000000000
28.361813272000,-0.207000000000
28.369499836000,-0.205000000000
28.377186400000,-0.205000000000
28.384872964000,-0.202000000000
28.392559528000,-0.200000000000
28.400246126000,-0.197000000000
28.407931993000,-0.197000000000
28.415617860000,-0.197000000000
28.423303727000,-0.192000000000
28.430989594000,-0.185000000000
28.438675461000,-0.187000000000
28.446361328000,-0.192000000000
28.454047195000,-0.195000000000
28.461733062000,-0.190000000000
28.469418929000,-0.170000000000
28.477104796000,-0.153000000000
28.484790663000,-0.143000000000
28.492476530000,-0.130000000000
28.500162397000,-0.113000000000
28.507848264000,-0.116000000000
28.515534131000,-0.150000000000
28.523219998000,-0.175000000000
28.530905865000,-0.167000000000
28.538591732000,-0.158000000000
28.546277599000,-0.160000000000
28.553963466000,-0.153000000000
28.561649333000,-0.145000000000
28.569335200000,-0.145000000000
28.577021067000,-0.143000000000
28.584706934000,-0.140000000000
28.592392801000,-0.148000000000
28.600078668000,-0.182000000000
28.607764535000,-0.219000000000
28.615450402000,-0.056000000000
28.623136269000,0.521000000000
28.630822136000,1.249000000000
28.638508003000,1.635000000000
28.646193870000,1.175000000000
28.653879737000,-0.101000000000
28.661565604000,-0.775000000000
28.669251471000,-0.296000000000
28.676937338000,-0.004000000000
28.684623205000,-0.197000000000
28.692309072000,-0.180000000000
28.699994939000,-0.074000000000
28.707680806000,-0.111000000000
28.715366673000,-0.113000000000
28.723052540000,-0.054000000000
28.730738407000,-0.039000000000
28.738424274000,-0.029000000000
28.746110141000,0.007000000000
28.753796008000,0.037000000000
28.761481875000,0.061000000000
28.769167742000,0.096000000000
28.776853609000,0.133000000000
28.784539476000,0.170000000000
28.792225343000,0.209000000000
28.799911210000,0.254000000000
28.807597077000,0.296000000000
28.815282944000,0.330000000000
28.822968811000,0.355000000000
28.830654678000,0.365000000000
28.838340545000,0.365000000000
28.846026412000,0.353000000000
28.853712279000,0.330000000000
28.861398146000,0.296000000000
28.869084013000,0.242000000000
28.876769880000,0.153000000000
28.884455747000,0.044000000000
28.892141614000,-0.074000000000
28.899827481000,-0.185000000000
28.907513348000,-0.276000000000
28.915199215000,-0.335000000000
28.922885082000,-0.370000000000
28.930570949000,-0.382000000000
28.938256816000,-0.385000000000
28.945942683000,-0.380000000000
28.953628550000,-0.370000000000
28.961314468000,-0.360000000000
28.969000335000,-0.348000000000
28.976686202000,-0.330000000000
28.984372069000,-0.313000000000
28.992057936000,-0.301000000000
28.999743803000,-0.291000000000
29.007429670000,-0.276000000000
29.015115537000,-0.264000000000
29.022801404000,-0.256000000000
29.030487271000,-0.246000000000
29.038173138000,-0.239000000000
29.045859005000,-0.234000000000
29.053544872000,-0.232000000000
29.061230739000,-0.227000000000
29.068916606000,-0.227000000000
29.076602473000,-0.224000000000
29.084288340000,-0.222000000000
29.091974207000,-0.219000000000
29.099660074000,-0.217000000000
29.107345941000,-0.214000000000
29.115031808000,-0.212000000000
29.122717675000,-0.209000000000
29.130403542000,-0.207000000000
29.138089409000,-0.202000000000
29.145775276000,-0.197000000000
29.153461143000,-0.202000000000
29.161147010000,-0.209000000000
29.168832877000,-0.207000000000
29.176518744000,-0.195000000000
29.184204611000,-0.175000000000
29.191890478000,-0.158000000000
29.199576345000,-0.148000000000
29.207262212000,-0.128000000000
29.214948079000,-0.118000000000
29.222633946000,-0.148000000000
29.230319813000,-0.185000000000
29.238005680000,-0.182000000000
29.245691547000,-0.167000000000
29.253377414000,-0.170000000000
29.261063281000,-0.167000000000
29.268749148000,-0.158000000000
29.276435015000,-0.155000000000
29.284120882000,-0.153000000000
29.291806749000,-0.148000000000
29.299492616000,-0.150000000000
29.307178483000,-0.170000000000
29.314864350000,-0.219000000000
29.322550217000,-0.217000000000
29.330236084000,0.103000000000
29.337921951000,0.810000000000
29.345607818000,1.501000000000
29.353293685000,1.652000000000
