time,LSB
0.000000000000,1.244000000000
0.007686285000,1.398000000000
0.015372570000,0.600000000000
0.023058855000,-0.546000000000
0.030745140000,-0.636000000000
0.038431425000,-0.112000000000
0.046117710000,-0.115000000000
0.053803995000,-0.235000000000
0.061490280000,-0.122000000000
0.069176565000,-0.105000000000
0.076862850000,-0.151000000000
0.084549135000,-0.105000000000
0.092235420000,-0.068000000000
0.099921705000,-0.071000000000
0.107607990000,-0.044000000000
0.115294275000,-0.009000000000
0.122980560000,-0.002000000000
0.130666845000,0.014000000000
0.138353130000,0.048000000000
0.146039415000,0.071000000000
0.153725700000,0.080000000000
0.161411985000,0.102000000000
0.169098270000,0.124000000000
0.176784555000,0.137000000000
0.184470840000,0.144000000000
0.192157125000,0.144000000000
0.199843410000,0.129000000000
0.207529695000,0.115000000000
0.215215980000,0.102000000000
0.222902265000,0.080000000000
0.230588550000,0.061000000000
0.238274835000,0.046000000000
0.245961120000,0.004000000000
0.253647405000,-0.053000000000
0.261333690000,-0.112000000000
0.269019975000,-0.171000000000
0.276706260000,-0.225000000000
0.284392545000,-0.267000000000
0.292078830000,-0.291000000000
0.299765115000,-0.301000000000
0.307451400000,-0.298000000000
0.315137685000,-0.286000000000
0.322823970000,-0.276000000000
0.330510255000,-0.269000000000
0.338196540000,-0.259000000000
0.345882825000,-0.247000000000
0.353569110000,-0.240000000000
0.361255395000,-0.237000000000
0.368941680000,-0.230000000000
0.376627965000,-0.222000000000
0.384314250000,-0.220000000000
0.392000535000,-0.220000000000
0.399686820000,-0.220000000000
0.407373105000,-0.220000000000
0.415059390000,-0.220000000000
0.422745675000,-0.218000000000
0.430431960000,-0.215000000000
0.438118245000,-0.218000000000
0.445804530000,-0.225000000000
0.453490815000,-0.227000000000
0.461177100000,-0.218000000000
0.468863385000,-0.205000000000
0.476549670000,-0.193000000000
0.484235955000,-0.186000000000
0.491922240000,-0.178000000000
0.499608525000,-0.169000000000
0.507294810000,-0.161000000000
0.514981095000,-0.178000000000
0.522667380000,-0.215000000000
0.530353721000,-0.220000000000
0.538040424000,-0.203000000000
0.545727127000,-0.195000000000
0.553413830000,-0.191000000000
0.561100533000,-0.186000000000
0.568787236000,-0.195000000000
0.576473939000,-0.220000000000
0.584160642000,-0.279000000000
0.591847345000,-0.325000000000
0.599534048000,-0.061000000000
0.607220751000,0.624000000000
0.614907454000,1.286000000000
0.622594157000,1.388000000000
0.630280860000,0.529000000000
0.637967563000,-0.597000000000
0.645654266000,-0.609000000000
0.653340969000,-0.080000000000
0.661027672000,-0.124000000000
0.668714375000,-0.254000000000
0.676401078000,-0.134000000000
0.684087781000,-0.110000000000
0.691774484000,-0.154000000000
0.699461187000,-0.107000000000
0.707147890000,-0.068000000000
0.714834593000,-0.073000000000
0.722521296000,-0.044000000000
0.730207999000,0.000000000000
0.737894702000,0.019000000000
0.745581405000,0.036000000000
0.753268108000,0.051000000000
0.760954811000,0.056000000000
0.768641514000,0.071000000000
0.776328217000,0.085000000000
0.784014920000,0.095000000000
0.791701623000,0.105000000000
0.799388326000,0.107000000000
0.807075029000,0.090000000000
0.814761732000,0.068000000000
0.822448435000,0.048000000000
0.830135138000,0.031000000000
0.837821841000,0.014000000000
0.845508544000,-0.004000000000
0.853195247000,-0.026000000000
0.860881950000,-0.063000000000
0.868568653000,-0.112000000000
0.876255356000,-0.166000000000
0.883942059000,-0.220000000000
0.891628762000,-0.267000000000
0.899315465000,-0.298000000000
0.907002168000,-0.315000000000
0.914688871000,-0.315000000000
0.922375574000,-0.311000000000
0.930062277000,-0.306000000000
0.937748980000,-0.296000000000
0.945435683000,-0.284000000000
0.953122386000,-0.276000000000
0.960809089000,-0.269000000000
0.968495792000,-0.262000000000
0.976182495000,-0.252000000000
0.983869198000,-0.247000000000
0.991555901000,-0.244000000000
0.999242604000,-0.244000000000
1.006929307000,-0.242000000000
1.014616010000,-0.240000000000
1.022302713000,-0.237000000000
1.029989416000,-0.237000000000
1.037676119000,-0.237000000000
1.045362822000,-0.237000000000
1.053049525000,-0.237000000000
1.060736228000,-0.242000000000
1.068422931000,-0.237000000000
1.076109634000,-0.222000000000
1.083796337000,-0.210000000000
1.091483100000,-0.200000000000
1.099169803000,-0.191000000000
1.106856506000,-0.178000000000
1.114543209000,-0.166000000000
1.122229912000,-0.178000000000
1.129916615000,-0.213000000000
1.137603318000,-0.220000000000
1.145290021000,-0.208000000000
1.152976724000,-0.205000000000
1.160663427000,-0.200000000000
1.168350130000,-0.193000000000
1.176036833000,-0.198000000000
1.183723536000,-0.222000000000
1.191410239000,-0.286000000000
1.199096942000,-0.369000000000
1.206783645000,-0.191000000000
1.214470348000,0.453000000000
1.222157051000,1.197000000000
1.229843754000,1.486000000000
1.237530457000,0.808000000000
1.245217160000,-0.431000000000
1.252903863000,-0.693000000000
1.260590566000,-0.129000000000
1.268277269000,-0.078000000000
1.275963972000,-0.279000000000
1.283650675000,-0.183000000000
1.291337378000,-0.120000000000
1.299024081000,-0.173000000000
1.306710784000,-0.144000000000
1.314397487000,-0.093000000000
1.322084190000,-0.090000000000
1.329770893000,-0.075000000000
1.337457596000,-0.044000000000
1.345144299000,-0.024000000000
1.352831002000,-0.004000000000
1.360517705000,0.017000000000
1.368204408000,0.034000000000
1.375891111000,0.053000000000
1.383577814000,0.073000000000
1.391264517000,0.088000000000
1.398951220000,0.100000000000
1.406637923000,0.107000000000
1.414324626000,0.107000000000
1.422011329000,0.097000000000
1.429698032000,0.080000000000
1.437384735000,0.063000000000
1.445071438000,0.048000000000
1.452758141000,0.031000000000
1.460444844000,0.004000000000
1.468131547000,-0.029000000000
1.475818250000,-0.080000000000
1.483504953000,-0.139000000000
1.491191656000,-0.193000000000
1.498878359000,-0.242000000000
1.506565062000,-0.276000000000
1.514251765000,-0.293000000000
1.521938468000,-0.298000000000
1.529625171000,-0.296000000000
1.537311874000,-0.289000000000
1.544998577000,-0.276000000000
1.552685280000,-0.267000000000
1.560371983000,-0.259000000000
1.568058686000,-0.254000000000
1.575745389000,-0.247000000000
1.583432092000,-0.240000000000
1.591118795000,-0.232000000000
1.598805498000,-0.232000000000
1.606492201000,-0.232000000000
1.614178904000,-0.230000000000
1.621865607000,-0.225000000000
1.629552310000,-0.222000000000
1.637239013000,-0.220000000000
1.644925716000,-0.218000000000
1.652612479000,-0.220000000000
1.660299182000,-0.220000000000
1.667985885000,-0.215000000000
1.675672588000,-0.213000000000
1.683359291000,-0.200000000000
1.691045994000,-0.183000000000
1.698732697000,-0.173000000000
1.706419400000,-0.171000000000
1.714106103000,-0.161000000000
1.721792806000,-0.159000000000
1.729479509000,-0.186000000000
1.737166212000,-0.205000000000
1.744852915000,-0.195000000000
1.752539618000,-0.188000000000
1.760226321000,-0.191000000000
1.767913024000,-0.188000000000
1.775599727000,-0.188000000000
1.783286430000,-0.203000000000
1.790973133000,-0.254000000000
1.798659836000,-0.357000000000
1.806346539000,-0.315000000000
1.814033242000,0.181000000000
1.821719945000,0.957000000000
1.829406648000,1.481000000000
1.837093351000,1.173000000000
1.844780054000,-0.041000000000
1.852466757000,-0.756000000000
1.860153460000,-0.301000000000
1.867840163000,-0.004000000000
1.875526866000,-0.227000000000
1.883213569000,-0.218000000000
1.890900272000,-0.090000000000
1.898586975000,-0.132000000000
1.906273678000,-0.151000000000
1.913960381000,-0.090000000000
1.921647084000,-0.071000000000
1.929333787000,-0.073000000000
1.937020490000,-0.046000000000
1.944707193000,-0.014000000000
1.952393896000,0.002000000000
1.960080599000,0.024000000000
1.967767302000,0.051000000000
1.975454005000,0.071000000000
1.983140708000,0.090000000000
1.990827411000,0.107000000000
1.998514114000,0.124000000000
2.006200817000,0.134000000000
2.013887520000,0.139000000000
2.021574223000,0.132000000000
2.029260926000,0.112000000000
2.036947629000,0.095000000000
2.044634332000,0.090000000000
2.052321035000,0.075000000000
2.060007738000,0.046000000000
2.067694441000,0.007000000000
2.075381144000,-0.039000000000
2.083067847000,-0.093000000000
2.090754550000,-0.156000000000
2.098441253000,-0.218000000000
2.106127956000,-0.259000000000
2.113814659000,-0.276000000000
2.121501362000,-0.281000000000
2.129188065000,-0.276000000000
2.136874768000,-0.262000000000
2.144561471000,-0.254000000000
2.152248174000,-0.249000000000
2.159934877000,-0.242000000000
2.167621580000,-0.235000000000
2.175308283000,-0.220000000000
2.182994986000,-0.213000000000
2.190681689000,-0.213000000000
2.198368392000,-0.208000000000
2.206055095000,-0.203000000000
2.213741858000,-0.208000000000
2.221428143000,-0.213000000000
2.229114428000,-0.203000000000
2.236800713000,-0.186000000000
2.244486998000,-0.188000000000
2.252173283000,-0.200000000000
2.259859568000,-0.198000000000
2.267545853000,-0.188000000000
2.275232138000,-0.173000000000
2.282918423000,-0.156000000000
2.290604708000,-0.151000000000
2.298290993000,-0.149000000000
2.305977278000,-0.134000000000
2.313663563000,-0.117000000000
2.321349848000,-0.124000000000
2.329036133000,-0.161000000000
2.336722418000,-0.181000000000
2.344408703000,-0.164000000000
2.352094988000,-0.156000000000
2.359781273000,-0.166000000000
2.367467558000,-0.161000000000
2.375153843000,-0.151000000000
2.382840128000,-0.161000000000
2.390526413000,-0.203000000000
2.398212698000,-0.293000000000
2.405898983000,-0.286000000000
2.413585268000,0.144000000000
2.421271553000,0.889000000000
2.428957838000,1.423000000000
2.436644123000,1.170000000000
2.444330408000,0.046000000000
2.452016693000,-0.720000000000
2.459702978000,-0.345000000000
2.467389263000,-0.009000000000
2.475075548000,-0.191000000000
2.482761833000,-0.188000000000
2.490448118000,-0.058000000000
2.498134403000,-0.078000000000
2.505820688000,-0.068000000000
2.513506973000,0.009000000000
2.521193258000,0.039000000000
2.528879543000,0.031000000000
2.536565828000,0.017000000000
2.544252113000,0.000000000000
2.551938398000,0.002000000000
2.559624683000,0.012000000000
2.567310968000,0.022000000000
2.574997253000,0.044000000000
2.582683538000,0.066000000000
2.590369823000,0.083000000000
2.598056108000,0.095000000000
2.605742393000,0.107000000000
2.613428678000,0.107000000000
2.621114963000,0.093000000000
2.628801248000,0.078000000000
2.636487533000,0.068000000000
2.644173818000,0.058000000000
2.651860103000,0.039000000000
2.659546388000,0.007000000000
2.667232673000,-0.022000000000
2.674918958000,-0.058000000000
2.682605243000,-0.122000000000
2.690291528000,-0.186000000000
2.697977813000,-0.235000000000
2.705664098000,-0.274000000000
2.713350383000,-0.306000000000
2.721036668000,-0.320000000000
2.728722953000,-0.311000000000
2.736409238000,-0.296000000000
2.744095523000,-0.293000000000
2.751781808000,-0.284000000000
2.759468093000,-0.269000000000
2.767154378000,-0.262000000000
2.774840719000,-0.254000000000
2.782527422000,-0.244000000000
2.790214125000,-0.237000000000
2.797900828000,-0.232000000000
2.805587531000,-0.227000000000
2.813274234000,-0.230000000000
2.820960937000,-0.235000000000
2.828647640000,-0.232000000000
2.836334343000,-0.225000000000
2.844021046000,-0.220000000000
2.851707749000,-0.227000000000
2.859394452000,-0.237000000000
2.867081155000,-0.225000000000
2.874767858000,-0.208000000000
2.882454561000,-0.205000000000
2.890141264000,-0.198000000000
2.897827967000,-0.186000000000
2.905514670000,-0.176000000000
2.913201373000,-0.164000000000
2.920888076000,-0.171000000000
2.928574779000,-0.205000000000
2.936261482000,-0.213000000000
2.943948185000,-0.205000000000
2.951634888000,-0.208000000000
2.959321591000,-0.208000000000
2.967008294000,-0.203000000000
2.974694997000,-0.208000000000
2.982381700000,-0.222000000000
2.990068403000,-0.264000000000
2.997755106000,-0.347000000000
3.005441809000,-0.225000000000
3.013128512000,0.360000000000
3.020815215000,1.072000000000
3.028501918000,1.376000000000
3.036188621000,0.847000000000
3.043875324000,-0.308000000000
3.051562027000,-0.732000000000
3.059248730000,-0.240000000000
3.066935433000,-0.078000000000
3.074622136000,-0.247000000000
3.082308839000,-0.186000000000
3.089995542000,-0.117000000000
3.097682245000,-0.159000000000
3.105368948000,-0.137000000000
3.113055651000,-0.093000000000
3.120742354000,-0.093000000000
3.128429057000,-0.078000000000
3.136115760000,-0.046000000000
3.143802463000,-0.029000000000
3.151489166000,-0.012000000000
3.159175869000,0.009000000000
3.166862572000,0.034000000000
3.174549275000,0.058000000000
3.182235978000,0.073000000000
3.189922681000,0.088000000000
3.197609384000,0.102000000000
3.205296087000,0.105000000000
3.212982790000,0.100000000000
3.220669493000,0.088000000000
3.228356196000,0.068000000000
3.236042899000,0.048000000000
3.243729602000,0.034000000000
3.251416305000,0.019000000000
3.259103008000,-0.002000000000
3.266789711000,-0.036000000000
3.274476414000,-0.085000000000
3.282163117000,-0.139000000000
3.289849820000,-0.193000000000
3.297536523000,-0.242000000000
3.305223226000,-0.276000000000
3.312909929000,-0.293000000000
3.320596632000,-0.296000000000
3.328283335000,-0.291000000000
3.335970102000,-0.284000000000
3.343656527000,-0.276000000000
3.351342952000,-0.269000000000
3.359029377000,-0.257000000000
3.366715802000,-0.242000000000
3.374402227000,-0.237000000000
3.382088652000,-0.235000000000
3.389775077000,-0.230000000000
3.397461502000,-0.222000000000
3.405147927000,-0.222000000000
3.412834352000,-0.222000000000
3.420520777000,-0.218000000000
3.428207202000,-0.215000000000
3.435893627000,-0.213000000000
3.443580052000,-0.208000000000
3.451266477000,-0.213000000000
3.458952902000,-0.220000000000
3.466639327000,-0.218000000000
3.474325752000,-0.208000000000
3.482012177000,-0.198000000000
3.489698602000,-0.191000000000
3.497385027000,-0.186000000000
3.505071452000,-0.173000000000
3.512757877000,-0.156000000000
3.520444302000,-0.166000000000
3.528130727000,-0.200000000000
3.535817152000,-0.213000000000
3.543503577000,-0.203000000000
3.551190002000,-0.195000000000
3.558876427000,-0.195000000000
3.566562852000,-0.191000000000
3.574249277000,-0.195000000000
3.581935702000,-0.218000000000
3.589622127000,-0.276000000000
3.597308552000,-0.369000000000
3.604994977000,-0.267000000000
3.612681402000,0.306000000000
3.620367827000,1.077000000000
3.628054252000,1.499000000000
3.635740677000,1.038000000000
3.643427102000,-0.191000000000
3.651113527000,-0.734000000000
3.658799952000,-0.225000000000
3.666486377000,-0.022000000000
3.674172802000,-0.240000000000
3.681859227000,-0.198000000000
3.689545652000,-0.097000000000
3.697232077000,-0.144000000000
3.704918502000,-0.137000000000
3.712604927000,-0.080000000000
3.720291352000,-0.075000000000
3.727977777000,-0.068000000000
3.735664202000,-0.034000000000
3.743350627000,-0.012000000000
3.751037052000,0.002000000000
3.758723477000,0.019000000000
3.766409902000,0.034000000000
3.774096327000,0.044000000000
3.781782752000,0.058000000000
3.789469177000,0.075000000000
3.797155602000,0.085000000000
3.804842027000,0.093000000000
3.812528452000,0.088000000000
3.820214877000,0.078000000000
3.827901302000,0.063000000000
3.835587727000,0.048000000000
3.843274152000,0.029000000000
3.850960577000,0.012000000000
3.858647002000,-0.012000000000
3.866333427000,-0.051000000000
3.874019852000,-0.100000000000
3.881706277000,-0.154000000000
3.889392702000,-0.210000000000
3.897079137000,-0.262000000000
3.904765701000,-0.293000000000
3.912452265000,-0.311000000000
3.920138829000,-0.315000000000
3.927825393000,-0.308000000000
3.935511957000,-0.296000000000
3.943198521000,-0.289000000000
3.950885085000,-0.281000000000
3.958571649000,-0.271000000000
3.966258213000,-0.262000000000
3.973944777000,-0.252000000000
3.981631341000,-0.249000000000
3.989317905000,-0.249000000000
3.997004469000,-0.247000000000
4.004691033000,-0.242000000000
4.012377597000,-0.240000000000
4.020064161000,-0.237000000000
4.027750725000,-0.237000000000
4.035437289000,-0.235000000000
4.043123853000,-0.232000000000
4.050810417000,-0.240000000000
4.058496981000,-0.242000000000
4.066183545000,-0.237000000000
4.073870109000,-0.220000000000
4.081556673000,-0.205000000000
4.089243237000,-0.200000000000
4.096929801000,-0.193000000000
4.104616365000,-0.176000000000
4.112302929000,-0.166000000000
4.119989493000,-0.191000000000
4.127676057000,-0.222000000000
4.135362621000,-0.222000000000
4.143049185000,-0.208000000000
4.150735749000,-0.205000000000
4.158422313000,-0.200000000000
4.166108877000,-0.195000000000
4.173795441000,-0.205000000000
4.181482005000,-0.240000000000
4.189168569000,-0.325000000000
4.196855133000,-0.413000000000
4.204541697000,-0.176000000000
4.212228261000,0.536000000000
4.219914825000,1.290000000000
4.227601389000,1.506000000000
4.235287953000,0.693000000000
4.242974517000,-0.531000000000
4.250661081000,-0.641000000000
4.258347645000,-0.078000000000
4.266034209000,-0.110000000000
4.273720773000,-0.286000000000
4.281407337000,-0.164000000000
4.289093901000,-0.120000000000
4.296780465000,-0.176000000000
4.304467029000,-0.139000000000
4.312153593000,-0.095000000000
4.319840157000,-0.093000000000
4.327526721000,-0.073000000000
4.335213285000,-0.039000000000
4.342899849000,-0.024000000000
4.350586413000,-0.007000000000
4.358272977000,0.017000000000
4.365959541000,0.036000000000
4.373646105000,0.058000000000
4.381332669000,0.078000000000
4.389019233000,0.095000000000
4.396705797000,0.107000000000
4.404392361000,0.115000000000
4.412078925000,0.110000000000
4.419765489000,0.097000000000
4.427452053000,0.083000000000
4.435138617000,0.063000000000
4.442825181000,0.046000000000
4.450511745000,0.024000000000
4.458198342000,-0.007000000000
4.465885045000,-0.051000000000
4.473571748000,-0.110000000000
4.481258451000,-0.171000000000
4.488945154000,-0.227000000000
4.496631857000,-0.271000000000
4.504318560000,-0.301000000000
4.512005263000,-0.313000000000
4.519691966000,-0.311000000000
4.527378669000,-0.301000000000
4.535065372000,-0.293000000000
4.542752075000,-0.284000000000
4.550438778000,-0.274000000000
4.558125481000,-0.267000000000
4.565812184000,-0.262000000000
4.573498887000,-0.254000000000
4.581185590000,-0.247000000000
4.588872293000,-0.244000000000
4.596558996000,-0.242000000000
4.604245699000,-0.240000000000
4.611932402000,-0.240000000000
4.619619105000,-0.237000000000
4.627305808000,-0.232000000000
4.634992511000,-0.230000000000
4.642679214000,-0.232000000000
4.650365917000,-0.237000000000
4.658052620000,-0.237000000000
4.665739323000,-0.227000000000
4.673426026000,-0.213000000000
4.681112729000,-0.200000000000
4.688799432000,-0.198000000000
4.696486135000,-0.186000000000
4.704172838000,-0.166000000000
4.711859541000,-0.169000000000
4.719546244000,-0.203000000000
4.727232947000,-0.222000000000
4.734919650000,-0.215000000000
4.742606353000,-0.208000000000
4.750293056000,-0.205000000000
4.757979759000,-0.198000000000
4.765666462000,-0.195000000000
4.773353165000,-0.213000000000
4.781039868000,-0.262000000000
4.788726571000,-0.367000000000
4.796413274000,-0.396000000000
4.804099977000,0.002000000000
4.811786680000,0.801000000000
4.819473383000,1.462000000000
4.827160086000,1.369000000000
4.834846789000,0.244000000000
4.842533492000,-0.734000000000
4.850220195000,-0.448000000000
4.857906898000,-0.012000000000
4.865593601000,-0.198000000000
4.873280304000,-0.262000000000
4.880967007000,-0.122000000000
4.888653710000,-0.142000000000
4.896340413000,-0.173000000000
4.904027116000,-0.115000000000
4.911713819000,-0.090000000000
4.919400522000,-0.093000000000
4.927087225000,-0.061000000000
4.934773928000,-0.029000000000
4.942460631000,-0.017000000000
4.950147334000,0.002000000000
4.957834037000,0.026000000000
4.965520740000,0.046000000000
4.973207443000,0.063000000000
4.980894146000,0.083000000000
4.988580849000,0.097000000000
4.996267552000,0.107000000000
5.003954255000,0.107000000000
5.011640958000,0.102000000000
5.019327721000,0.090000000000
5.027014006000,0.073000000000
5.034700291000,0.056000000000
5.042386576000,0.036000000000
5.050072861000,0.012000000000
5.057759146000,-0.022000000000
5.065445431000,-0.071000000000
5.073131716000,-0.127000000000
5.080818001000,-0.183000000000
5.088504286000,-0.237000000000
5.096190571000,-0.279000000000
5.103876856000,-0.298000000000
5.111563141000,-0.303000000000
5.119249426000,-0.301000000000
5.126935711000,-0.291000000000
5.134621996000,-0.284000000000
5.142308281000,-0.276000000000
5.149994566000,-0.264000000000
5.157680851000,-0.254000000000
5.165367136000,-0.252000000000
5.173053421000,-0.247000000000
5.180739706000,-0.240000000000
5.188425991000,-0.235000000000
5.196112276000,-0.232000000000
5.203798561000,-0.230000000000
5.211484846000,-0.230000000000
5.219171131000,-0.230000000000
5.226857416000,-0.227000000000
5.234543701000,-0.225000000000
5.242229986000,-0.230000000000
5.249916271000,-0.237000000000
5.257602556000,-0.232000000000
5.265288841000,-0.220000000000
5.272975126000,-0.208000000000
5.280661411000,-0.198000000000
5.288347696000,-0.188000000000
5.296033981000,-0.178000000000
5.303720266000,-0.161000000000
5.311406551000,-0.169000000000
5.319092836000,-0.203000000000
5.326779121000,-0.220000000000
5.334465406000,-0.208000000000
5.342151691000,-0.198000000000
5.349837976000,-0.195000000000
5.357524261000,-0.191000000000
5.365210546000,-0.188000000000
5.372896831000,-0.205000000000
5.380583116000,-0.257000000000
5.388269401000,-0.367000000000
5.395955686000,-0.360000000000
5.403641971000,0.102000000000
5.411328256000,0.901000000000
5.419014541000,1.494000000000
5.426700826000,1.271000000000
5.434387111000,0.068000000000
5.442073396000,-0.761000000000
5.449759681000,-0.360000000000
5.457445966000,-0.012000000000
5.465132251000,-0.222000000000
5.472818536000,-0.240000000000
5.480504821000,-0.110000000000
5.488191106000,-0.144000000000
5.495877391000,-0.164000000000
5.503563676000,-0.105000000000
5.511249961000,-0.088000000000
5.518936246000,-0.083000000000
5.526622531000,-0.051000000000
5.534308816000,-0.026000000000
5.541995101000,-0.012000000000
5.549681386000,0.012000000000
5.557367671000,0.034000000000
5.565053956000,0.051000000000
5.572740241000,0.068000000000
5.580426582000,0.088000000000
5.588113285000,0.100000000000
5.595799988000,0.107000000000
5.603486691000,0.107000000000
5.611173394000,0.100000000000
5.618860097000,0.083000000000
5.626546800000,0.066000000000
5.634233503000,0.048000000000
5.641920206000,0.031000000000
5.649606909000,0.004000000000
5.657293612000,-0.026000000000
5.664980315000,-0.068000000000
5.672667018000,-0.120000000000
5.680353721000,-0.178000000000
5.688040424000,-0.227000000000
5.695727127000,-0.264000000000
5.703413830000,-0.289000000000
5.711100533000,-0.298000000000
5.718787236000,-0.293000000000
5.726473939000,-0.279000000000
5.734160642000,-0.269000000000
5.741847345000,-0.269000000000
5.749534048000,-0.262000000000
5.757220751000,-0.249000000000
5.764907454000,-0.237000000000
5.772594157000,-0.232000000000
5.780280860000,-0.227000000000
5.787967563000,-0.222000000000
5.795654266000,-0.222000000000
5.803340969000,-0.222000000000
5.811027672000,-0.220000000000
5.818714375000,-0.220000000000
5.826401078000,-0.220000000000
5.834087781000,-0.222000000000
5.841774484000,-0.220000000000
5.849461187000,-0.215000000000
5.857147890000,-0.210000000000
5.864834593000,-0.205000000000
5.872521296000,-0.198000000000
5.880207999000,-0.186000000000
5.887894702000,-0.178000000000
5.895581405000,-0.169000000000
5.903268108000,-0.151000000000
5.910954811000,-0.156000000000
5.918641514000,-0.191000000000
5.926328217000,-0.210000000000
5.934014920000,-0.200000000000
5.941701623000,-0.186000000000
5.949388326000,-0.181000000000
5.957075029000,-0.176000000000
5.964761732000,-0.178000000000
5.972448435000,-0.191000000000
5.980135138000,-0.225000000000
5.987821841000,-0.318000000000
5.995508544000,-0.357000000000
6.003195247000,0.002000000000
6.010881950000,0.764000000000
6.018568653000,1.425000000000
6.026255356000,1.371000000000
6.033942059000,0.291000000000
6.041628762000,-0.703000000000
6.049315465000,-0.455000000000
6.057002168000,-0.009000000000
6.064688871000,-0.169000000000
6.072375574000,-0.232000000000
6.080062277000,-0.105000000000
6.087748980000,-0.127000000000
6.095435683000,-0.154000000000
6.103122386000,-0.093000000000
6.110809089000,-0.071000000000
6.118495792000,-0.066000000000
6.126182495000,-0.031000000000
6.133869198000,-0.007000000000
6.141555961000,0.004000000000
6.149242316000,0.024000000000
6.156928671000,0.046000000000
6.164615026000,0.068000000000
6.172301381000,0.088000000000
6.179987736000,0.107000000000
6.187674091000,0.120000000000
6.195360446000,0.127000000000
6.203046801000,0.132000000000
6.210733156000,0.122000000000
6.218419511000,0.105000000000
6.226105866000,0.095000000000
6.233792221000,0.083000000000
6.241478576000,0.063000000000
6.249164931000,0.041000000000
6.256851286000,0.004000000000
6.264537641000,-0.041000000000
6.272223996000,-0.095000000000
6.279910351000,-0.156000000000
6.287596706000,-0.210000000000
6.295283061000,-0.249000000000
6.302969416000,-0.279000000000
6.310655771000,-0.286000000000
6.318342126000,-0.281000000000
6.326028481000,-0.276000000000
6.333714836000,-0.269000000000
6.341401191000,-0.257000000000
6.349087546000,-0.252000000000
6.356773901000,-0.247000000000
6.364460256000,-0.227000000000
6.372146611000,-0.218000000000
6.379832966000,-0.220000000000
6.387519321000,-0.220000000000
6.395205676000,-0.220000000000
6.402892031000,-0.215000000000
6.410578386000,-0.210000000000
6.418264741000,-0.213000000000
6.425951096000,-0.208000000000
6.433637451000,-0.203000000000
6.441323806000,-0.205000000000
6.449010161000,-0.215000000000
6.456696516000,-0.213000000000
6.464382871000,-0.198000000000
6.472069226000,-0.188000000000
6.479755581000,-0.181000000000
6.487441936000,-0.171000000000
6.495128291000,-0.154000000000
6.502814646000,-0.144000000000
6.510501001000,-0.171000000000
6.518187356000,-0.208000000000
6.525873711000,-0.205000000000
6.533560066000,-0.193000000000
6.541246421000,-0.191000000000
6.548932776000,-0.183000000000
6.556619131000,-0.173000000000
6.564305486000,-0.183000000000
6.571991841000,-0.203000000000
6.579678196000,-0.252000000000
6.587364551000,-0.340000000000
6.595050906000,-0.242000000000
6.602737261000,0.323000000000
6.610423616000,1.070000000000
6.618109971000,1.440000000000
6.625796326000,0.911000000000
6.633482681000,-0.293000000000
6.641169036000,-0.725000000000
6.648855391000,-0.205000000000
6.656541746000,-0.051000000000
6.664228101000,-0.237000000000
6.671914456000,-0.166000000000
6.679600811000,-0.093000000000
6.687287166000,-0.146000000000
6.694973521000,-0.132000000000
6.702659913000,-0.083000000000
6.710346547000,-0.078000000000
6.718033181000,-0.061000000000
6.725719815000,-0.029000000000
6.733406449000,-0.012000000000
6.741093083000,0.004000000000
6.748779717000,0.026000000000
6.756466351000,0.046000000000
6.764152985000,0.063000000000
6.771839619000,0.083000000000
6.779526253000,0.100000000000
6.787212887000,0.110000000000
6.794899521000,0.115000000000
6.802586155000,0.112000000000
6.810272789000,0.097000000000
6.817959423000,0.078000000000
6.825646057000,0.061000000000
6.833332691000,0.046000000000
6.841019325000,0.029000000000
6.848705959000,0.002000000000
6.856392593000,-0.031000000000
6.864079227000,-0.078000000000
6.871765861000,-0.137000000000
6.879452495000,-0.193000000000
6.887139129000,-0.242000000000
6.894825763000,-0.274000000000
6.902512397000,-0.291000000000
6.910199031000,-0.296000000000
6.917885665000,-0.291000000000
6.925572299000,-0.281000000000
6.933258933000,-0.274000000000
6.940945567000,-0.267000000000
6.948632201000,-0.257000000000
6.956318835000,-0.244000000000
6.964005469000,-0.237000000000
6.971692103000,-0.232000000000
6.979378737000,-0.227000000000
6.987065371000,-0.225000000000
6.994752005000,-0.222000000000
7.002438639000,-0.220000000000
7.010125273000,-0.220000000000
7.017811907000,-0.218000000000
7.025498541000,-0.215000000000
7.033185175000,-0.215000000000
7.040871809000,-0.222000000000
7.048558443000,-0.227000000000
7.056245077000,-0.222000000000
7.063931711000,-0.213000000000
7.071618345000,-0.200000000000
7.079304979000,-0.191000000000
7.086991613000,-0.183000000000
7.094678247000,-0.173000000000
7.102364881000,-0.159000000000
7.110051515000,-0.173000000000
7.117738149000,-0.210000000000
7.125424783000,-0.220000000000
7.133111417000,-0.203000000000
7.140798051000,-0.200000000000
7.148484685000,-0.198000000000
7.156171319000,-0.191000000000
7.163857953000,-0.193000000000
7.171544587000,-0.218000000000
7.179231221000,-0.279000000000
7.186917855000,-0.374000000000
7.194604489000,-0.259000000000
7.202291123000,0.325000000000
7.209977757000,1.087000000000
7.217664391000,1.477000000000
7.225351025000,0.965000000000
7.233037659000,-0.271000000000
7.240724293000,-0.739000000000
7.248410927000,-0.205000000000
7.256097561000,-0.048000000000
7.263784205000,-0.264000000000
7.271470908000,-0.200000000000
7.279157611000,-0.110000000000
7.286844314000,-0.164000000000
7.294531017000,-0.151000000000
7.302217720000,-0.093000000000
7.309904423000,-0.088000000000
7.317591126000,-0.080000000000
7.325277829000,-0.046000000000
7.332964532000,-0.024000000000
7.340651235000,-0.012000000000
7.348337938000,0.012000000000
7.356024641000,0.034000000000
7.363711344000,0.051000000000
7.371398047000,0.068000000000
7.379084750000,0.083000000000
7.386771453000,0.097000000000
7.394458156000,0.102000000000
7.402144859000,0.097000000000
7.409831562000,0.088000000000
7.417518265000,0.075000000000
7.425204968000,0.056000000000
7.432891671000,0.036000000000
7.440578374000,0.019000000000
7.448265077000,-0.004000000000
7.455951780000,-0.044000000000
7.463638483000,-0.093000000000
7.471325186000,-0.149000000000
7.479011889000,-0.203000000000
7.486698592000,-0.247000000000
7.494385295000,-0.284000000000
7.502071998000,-0.301000000000
7.509758701000,-0.301000000000
7.517445404000,-0.293000000000
7.525132107000,-0.286000000000
7.532818810000,-0.276000000000
7.540505513000,-0.264000000000
7.548192216000,-0.257000000000
7.555878919000,-0.249000000000
7.563565622000,-0.242000000000
7.571252325000,-0.237000000000
7.578939028000,-0.235000000000
7.586625731000,-0.232000000000
7.594312434000,-0.230000000000
7.601999137000,-0.230000000000
7.609685840000,-0.227000000000
7.617372543000,-0.225000000000
7.625059246000,-0.222000000000
7.632745949000,-0.220000000000
7.640432652000,-0.227000000000
7.648119355000,-0.232000000000
7.655806058000,-0.222000000000
7.663492761000,-0.208000000000
7.671179464000,-0.198000000000
7.678866167000,-0.191000000000
7.686552870000,-0.183000000000
7.694239573000,-0.166000000000
7.701926276000,-0.159000000000
7.709612979000,-0.186000000000
7.717299682000,-0.215000000000
7.724986385000,-0.213000000000
7.732673088000,-0.198000000000
7.740359791000,-0.195000000000
7.748046494000,-0.191000000000
7.755733197000,-0.186000000000
7.763419900000,-0.200000000000
7.771106603000,-0.237000000000
7.778793306000,-0.330000000000
7.786480009000,-0.411000000000
7.794166712000,-0.159000000000
7.801853415000,0.565000000000
7.809540118000,1.322000000000
7.817226821000,1.508000000000
7.824913584000,0.634000000000
7.832599869000,-0.578000000000
7.840286154000,-0.617000000000
7.847972439000,-0.063000000000
7.855658724000,-0.120000000000
7.863345009000,-0.279000000000
7.871031294000,-0.151000000000
7.878717579000,-0.120000000000
7.886403864000,-0.173000000000
7.894090149000,-0.129000000000
7.901776434000,-0.088000000000
7.909462719000,-0.090000000000
7.917149004000,-0.068000000000
7.924835289000,-0.036000000000
7.932521574000,-0.022000000000
7.940207859000,-0.002000000000
7.947894144000,0.022000000000
7.955580429000,0.041000000000
7.963266714000,0.063000000000
7.970952999000,0.085000000000
7.978639284000,0.097000000000
7.986325569000,0.107000000000
7.994011854000,0.110000000000
8.001698139000,0.105000000000
8.009384424000,0.093000000000
8.017070709000,0.075000000000
8.024756994000,0.056000000000
8.032443279000,0.036000000000
8.040129564000,0.019000000000
8.047815849000,-0.009000000000
8.055502134000,-0.053000000000
8.063188419000,-0.105000000000
8.070874704000,-0.161000000000
8.078560989000,-0.218000000000
8.086247274000,-0.262000000000
8.093933559000,-0.286000000000
8.101619844000,-0.298000000000
8.109306129000,-0.296000000000
8.116992414000,-0.289000000000
8.124678699000,-0.279000000000
8.132364984000,-0.269000000000
8.140051269000,-0.259000000000
8.147737554000,-0.249000000000
8.155423839000,-0.244000000000
8.163110124000,-0.237000000000
8.170796409000,-0.232000000000
8.178482694000,-0.230000000000
8.186168979000,-0.230000000000
8.193855264000,-0.227000000000
8.201541549000,-0.225000000000
8.209227834000,-0.225000000000
8.216914119000,-0.222000000000
8.224600404000,-0.220000000000
8.232286689000,-0.222000000000
8.239972974000,-0.225000000000
8.247659259000,-0.227000000000
8.255345544000,-0.220000000000
8.263031829000,-0.205000000000
8.270718114000,-0.193000000000
8.278404399000,-0.188000000000
8.286090684000,-0.181000000000
8.293776969000,-0.161000000000
8.301463254000,-0.164000000000
8.309149539000,-0.198000000000
8.316835824000,-0.220000000000
8.324522109000,-0.208000000000
8.332208394000,-0.195000000000
8.339894679000,-0.195000000000
8.347580964000,-0.188000000000
8.355267249000,-0.188000000000
8.362953534000,-0.203000000000
8.370639819000,-0.244000000000
8.378326104000,-0.352000000000
8.386012445000,-0.401000000000
8.393699079000,-0.026000000000
8.401385713000,0.771000000000
8.409072347000,1.481000000000
8.416758981000,1.459000000000
8.424445615000,0.350000000000
8.432132249000,-0.715000000000
8.439818883000,-0.485000000000
8.447505517000,-0.017000000000
8.455192151000,-0.186000000000
8.462878785000,-0.264000000000
8.470565419000,-0.124000000000
8.478252053000,-0.137000000000
8.485938687000,-0.171000000000
8.493625321000,-0.115000000000
8.501311955000,-0.090000000000
8.508998589000,-0.090000000000
8.516685223000,-0.058000000000
8.524371857000,-0.029000000000
8.532058491000,-0.014000000000
8.539745125000,0.004000000000
8.547431759000,0.026000000000
8.555118393000,0.046000000000
8.562805027000,0.066000000000
8.570491661000,0.085000000000
8.578178295000,0.097000000000
8.585864929000,0.107000000000
8.593551563000,0.110000000000
8.601238197000,0.100000000000
8.608924831000,0.085000000000
8.616611465000,0.073000000000
8.624298099000,0.056000000000
8.631984733000,0.034000000000
8.639671367000,0.014000000000
8.647358001000,-0.012000000000
8.655044635000,-0.053000000000
8.662731269000,-0.110000000000
8.670417903000,-0.169000000000
8.678104537000,-0.218000000000
8.685791171000,-0.257000000000
8.693477805000,-0.284000000000
8.701164439000,-0.296000000000
8.708851073000,-0.291000000000
8.716537707000,-0.281000000000
8.724224341000,-0.269000000000
8.731910975000,-0.254000000000
8.739597609000,-0.249000000000
8.747284243000,-0.244000000000
8.754970877000,-0.235000000000
8.762657511000,-0.227000000000
8.770344145000,-0.222000000000
8.778030779000,-0.222000000000
8.785717413000,-0.220000000000
8.793404047000,-0.220000000000
8.801090681000,-0.220000000000
8.808777315000,-0.222000000000
8.816463949000,-0.218000000000
8.824150583000,-0.210000000000
8.831837217000,-0.215000000000
8.839523851000,-0.220000000000
8.847210485000,-0.215000000000
8.854897119000,-0.200000000000
8.862583753000,-0.186000000000
8.870270387000,-0.181000000000
8.877957021000,-0.178000000000
8.885643655000,-0.161000000000
8.893330289000,-0.142000000000
8.901016923000,-0.159000000000
8.908703557000,-0.195000000000
8.916390191000,-0.213000000000
8.924076825000,-0.203000000000
8.931763459000,-0.188000000000
8.939450093000,-0.181000000000
8.947136741000,-0.178000000000
8.954823096000,-0.186000000000
8.962509451000,-0.200000000000
8.970195806000,-0.257000000000
8.977882161000,-0.360000000000
8.985568516000,-0.286000000000
8.993254871000,0.257000000000
9.000941226000,1.038000000000
9.008627581000,1.508000000000
9.016313936000,1.050000000000
9.024000291000,-0.213000000000
9.031686646000,-0.747000000000
9.039373001000,-0.220000000000
9.047059356000,-0.022000000000
9.054745711000,-0.240000000000
9.062432066000,-0.183000000000
9.070118421000,-0.078000000000
9.077804776000,-0.132000000000
9.085491131000,-0.132000000000
9.093177486000,-0.071000000000
9.100863841000,-0.061000000000
9.108550196000,-0.053000000000
9.116236551000,-0.022000000000
9.123922906000,0.000000000000
9.131609261000,0.012000000000
9.139295616000,0.036000000000
9.146981971000,0.063000000000
9.154668326000,0.080000000000
9.162354681000,0.102000000000
9.170041036000,0.132000000000
9.177727391000,0.142000000000
9.185413746000,0.139000000000
9.193100101000,0.139000000000
9.200786456000,0.129000000000
9.208472811000,0.107000000000
9.216159166000,0.083000000000
9.223845521000,0.071000000000
9.231531876000,0.058000000000
9.239218231000,0.039000000000
9.246904586000,0.004000000000
9.254590941000,-0.058000000000
9.262277296000,-0.122000000000
9.269963651000,-0.166000000000
9.277650006000,-0.215000000000
9.285336361000,-0.267000000000
9.293022716000,-0.289000000000
9.300709071000,-0.286000000000
9.308395426000,-0.281000000000
9.316081781000,-0.279000000000
9.323768136000,-0.262000000000
9.331454491000,-0.242000000000
9.339140846000,-0.235000000000
9.346827201000,-0.235000000000
9.354513556000,-0.225000000000
9.362199911000,-0.220000000000
9.369886266000,-0.220000000000
9.377572621000,-0.210000000000
9.385258976000,-0.205000000000
9.392945331000,-0.215000000000
9.400631686000,-0.213000000000
9.408318041000,-0.200000000000
9.416004396000,-0.205000000000
9.423690751000,-0.210000000000
9.431377106000,-0.208000000000
9.439063461000,-0.208000000000
9.446749816000,-0.203000000000
9.454436171000,-0.193000000000
9.462122526000,-0.176000000000
9.469808881000,-0.166000000000
9.477495236000,-0.156000000000
9.485181591000,-0.142000000000
9.492867946000,-0.159000000000
9.500554301000,-0.198000000000
9.508240685000,-0.203000000000
9.515926970000,-0.188000000000
9.523613255000,-0.191000000000
9.531299540000,-0.188000000000
9.538985825000,-0.176000000000
9.546672110000,-0.173000000000
9.554358395000,-0.188000000000
9.562044680000,-0.222000000000
9.569730965000,-0.311000000000
9.577417250000,-0.313000000000
9.585103535000,0.095000000000
9.592789820000,0.835000000000
9.600476105000,1.381000000000
9.608162390000,1.190000000000
9.615848675000,0.100000000000
9.623534960000,-0.729000000000
9.631221245000,-0.399000000000
9.638907530000,-0.026000000000
9.646593815000,-0.188000000000
9.654280100000,-0.203000000000
9.661966385000,-0.085000000000
9.669652670000,-0.115000000000
9.677338955000,-0.134000000000
9.685025240000,-0.080000000000
9.692711525000,-0.063000000000
9.700397810000,-0.061000000000
9.708084095000,-0.031000000000
9.715770380000,-0.007000000000
9.723456665000,0.009000000000
9.731142950000,0.031000000000
9.738829235000,0.056000000000
9.746515520000,0.075000000000
9.754201805000,0.097000000000
9.761888090000,0.117000000000
9.769574375000,0.122000000000
9.777260660000,0.127000000000
9.784946945000,0.132000000000
9.792633230000,0.117000000000
9.800319515000,0.095000000000
9.808005800000,0.080000000000
9.815692085000,0.061000000000
9.823378370000,0.036000000000
9.831064655000,0.014000000000
9.838750940000,-0.012000000000
9.846437225000,-0.061000000000
9.854123510000,-0.115000000000
9.861809795000,-0.171000000000
9.869496080000,-0.225000000000
9.877182365000,-0.262000000000
9.884868650000,-0.281000000000
9.892554935000,-0.289000000000
9.900241220000,-0.289000000000
9.907927505000,-0.281000000000
9.915613790000,-0.271000000000
9.923300075000,-0.259000000000
9.930986360000,-0.249000000000
9.938672645000,-0.242000000000
9.946358930000,-0.232000000000
9.954045215000,-0.225000000000
9.961731500000,-0.225000000000
9.969417785000,-0.222000000000
9.977104070000,-0.215000000000
9.984790355000,-0.213000000000
9.992476640000,-0.213000000000
10.000162925000,-0.213000000000
10.007849210000,-0.210000000000
10.015535495000,-0.213000000000
10.023221780000,-0.218000000000
10.030908065000,-0.225000000000
10.038594350000,-0.218000000000
10.046280635000,-0.203000000000
10.053966920000,-0.193000000000
10.061653205000,-0.188000000000
10.069339550000,-0.181000000000
10.077026253000,-0.169000000000
10.084712956000,-0.161000000000
10.092399659000,-0.188000000000
10.100086362000,-0.220000000000
10.107773065000,-0.215000000000
10.115459768000,-0.200000000000
10.123146471000,-0.200000000000
10.130833174000,-0.198000000000
10.138519877000,-0.193000000000
10.146206580000,-0.203000000000
10.153893283000,-0.230000000000
10.161579986000,-0.306000000000
10.169266689000,-0.384000000000
10.176953392000,-0.156000000000
10.184640095000,0.524000000000
10.192326798000,1.237000000000
10.200013501000,1.432000000000
10.207700204000,0.656000000000
10.215386907000,-0.531000000000
10.223073610000,-0.654000000000
10.230760313000,-0.100000000000
10.238447016000,-0.107000000000
10.246133719000,-0.274000000000
10.253820422000,-0.161000000000
10.261507125000,-0.117000000000
10.269193828000,-0.171000000000
10.276880531000,-0.134000000000
10.284567234000,-0.090000000000
10.292253937000,-0.093000000000
10.299940640000,-0.075000000000
10.307627343000,-0.044000000000
10.315314046000,-0.029000000000
10.323000749000,-0.012000000000
10.330687452000,0.014000000000
10.338374155000,0.034000000000
10.346060858000,0.051000000000
10.353747561000,0.068000000000
10.361434264000,0.083000000000
10.369120967000,0.093000000000
10.376807670000,0.095000000000
10.384494373000,0.090000000000
10.392181076000,0.075000000000
10.399867779000,0.061000000000
10.407554482000,0.041000000000
10.415241185000,0.022000000000
10.422927888000,0.004000000000
10.430614591000,-0.022000000000
10.438301294000,-0.066000000000
10.445987997000,-0.120000000000
10.453674700000,-0.171000000000
10.461361403000,-0.222000000000
10.469048106000,-0.262000000000
10.476734809000,-0.286000000000
10.484421512000,-0.298000000000
10.492108215000,-0.298000000000
10.499794918000,-0.291000000000
10.507481621000,-0.279000000000
10.515168324000,-0.267000000000
10.522855027000,-0.257000000000
10.530541730000,-0.252000000000
10.538228433000,-0.244000000000
10.545915136000,-0.240000000000
10.553601839000,-0.235000000000
10.561288542000,-0.230000000000
10.568975245000,-0.227000000000
10.576661948000,-0.227000000000
10.584348651000,-0.225000000000
10.592035354000,-0.222000000000
10.599722057000,-0.220000000000
10.607408760000,-0.220000000000
10.615095463000,-0.222000000000
10.622782166000,-0.227000000000
10.630468929000,-0.225000000000
10.638155214000,-0.213000000000
10.645841499000,-0.200000000000
10.653527784000,-0.193000000000
10.661214069000,-0.186000000000
10.668900354000,-0.171000000000
10.676586639000,-0.156000000000
10.684272924000,-0.176000000000
10.691959209000,-0.210000000000
10.699645494000,-0.220000000000
10.707331779000,-0.205000000000
10.715018064000,-0.198000000000
10.722704349000,-0.195000000000
10.730390634000,-0.188000000000
10.738076919000,-0.193000000000
10.745763204000,-0.215000000000
10.753449489000,-0.276000000000
10.761135774000,-0.387000000000
10.768822059000,-0.315000000000
10.776508344000,0.237000000000
10.784194629000,1.033000000000
10.791880914000,1.513000000000
10.799567199000,1.102000000000
10.807253484000,-0.156000000000
10.814939769000,-0.759000000000
10.822626054000,-0.244000000000
10.830312339000,-0.022000000000
10.837998624000,-0.252000000000
10.845684909000,-0.213000000000
10.853371194000,-0.102000000000
10.861057479000,-0.154000000000
10.868743764000,-0.154000000000
10.876430049000,-0.093000000000
10.884116334000,-0.083000000000
10.891802619000,-0.078000000000
10.899488904000,-0.044000000000
10.907175189000,-0.022000000000
10.914861474000,-0.007000000000
10.922547759000,0.019000000000
10.930234044000,0.041000000000
10.937920329000,0.058000000000
10.945606614000,0.078000000000
10.953292899000,0.095000000000
10.960979184000,0.110000000000
10.968665469000,0.112000000000
10.976351754000,0.110000000000
10.984038039000,0.100000000000
10.991724324000,0.083000000000
10.999410609000,0.063000000000
11.007096894000,0.046000000000
11.014783179000,0.026000000000
11.022469464000,0.000000000000
11.030155749000,-0.036000000000
11.037842034000,-0.088000000000
11.045528319000,-0.144000000000
11.053214604000,-0.198000000000
11.060900889000,-0.244000000000
11.068587174000,-0.276000000000
11.076273459000,-0.291000000000
11.083959744000,-0.291000000000
11.091646029000,-0.286000000000
11.099332314000,-0.279000000000
11.107018599000,-0.267000000000
11.114704884000,-0.257000000000
11.122391169000,-0.249000000000
11.130077454000,-0.242000000000
11.137763739000,-0.237000000000
11.145450024000,-0.232000000000
11.153136309000,-0.230000000000
11.160822594000,-0.225000000000
11.168508879000,-0.225000000000
11.176195164000,-0.222000000000
11.183881449000,-0.220000000000
11.191567790000,-0.220000000000
11.199254354000,-0.220000000000
11.206940918000,-0.222000000000
11.214627482000,-0.227000000000
11.222314046000,-0.225000000000
11.230000610000,-0.213000000000
11.237687174000,-0.198000000000
11.245373738000,-0.191000000000
11.253060302000,-0.183000000000
11.260746866000,-0.171000000000
11.268433430000,-0.156000000000
11.276119994000,-0.171000000000
11.283806558000,-0.208000000000
11.291493122000,-0.218000000000
11.299179686000,-0.203000000000
11.306866250000,-0.198000000000
11.314552814000,-0.195000000000
11.322239378000,-0.186000000000
11.329925942000,-0.191000000000
11.337612506000,-0.210000000000
11.345299070000,-0.267000000000
11.352985634000,-0.379000000000
11.360672198000,-0.355000000000
11.368358762000,0.142000000000
11.376045326000,0.947000000000
11.383731890000,1.506000000000
11.391418454000,1.212000000000
11.399105018000,-0.026000000000
11.406791582000,-0.771000000000
11.414478146000,-0.308000000000
11.422164710000,-0.002000000000
11.429851274000,-0.232000000000
11.437537838000,-0.225000000000
11.445224402000,-0.102000000000
11.452910966000,-0.146000000000
11.460597530000,-0.154000000000
11.468284094000,-0.093000000000
11.475970658000,-0.080000000000
11.483657222000,-0.078000000000
11.491343786000,-0.044000000000
11.499030350000,-0.022000000000
11.506716914000,-0.007000000000
11.514403478000,0.017000000000
11.522090042000,0.041000000000
11.529776606000,0.058000000000
11.537463170000,0.078000000000
11.545149734000,0.095000000000
11.552836298000,0.107000000000
11.560522862000,0.112000000000
11.568209426000,0.107000000000
11.575895990000,0.097000000000
11.583582554000,0.080000000000
11.591269118000,0.063000000000
11.598955682000,0.044000000000
11.606642246000,0.029000000000
11.614328810000,0.004000000000
11.622015374000,-0.031000000000
11.629701938000,-0.080000000000
11.637388502000,-0.132000000000
11.645075066000,-0.186000000000
11.652761630000,-0.235000000000
11.660448194000,-0.267000000000
11.668134758000,-0.284000000000
11.675821322000,-0.286000000000
11.683507886000,-0.281000000000
11.691194450000,-0.271000000000
11.698881014000,-0.264000000000
11.706567578000,-0.254000000000
11.714254142000,-0.244000000000
11.721940706000,-0.237000000000
11.729627270000,-0.230000000000
11.737313834000,-0.227000000000
11.745000398000,-0.225000000000
11.752686999000,-0.220000000000
11.760373424000,-0.218000000000
11.768059849000,-0.218000000000
11.775746274000,-0.218000000000
11.783432699000,-0.213000000000
11.791119124000,-0.213000000000
11.798805549000,-0.218000000000
11.806491974000,-0.225000000000
11.814178399000,-0.222000000000
11.821864824000,-0.208000000000
11.829551249000,-0.198000000000
11.837237674000,-0.191000000000
11.844924099000,-0.183000000000
11.852610524000,-0.169000000000
11.860296949000,-0.154000000000
11.867983374000,-0.166000000000
11.875669799000,-0.205000000000
11.883356224000,-0.218000000000
11.891042649000,-0.200000000000
11.898729074000,-0.195000000000
11.906415499000,-0.193000000000
11.914101924000,-0.183000000000
11.921788349000,-0.183000000000
11.929474774000,-0.208000000000
11.937161199000,-0.267000000000
11.944847624000,-0.377000000000
11.952534049000,-0.335000000000
11.960220474000,0.183000000000
11.967906899000,0.994000000000
11.975593324000,1.526000000000
11.983279749000,1.151000000000
11.990966174000,-0.112000000000
11.998652599000,-0.764000000000
12.006339024000,-0.264000000000
12.014025449000,-0.009000000000
12.021711874000,-0.237000000000
12.029398299000,-0.208000000000
12.037084724000,-0.095000000000
12.044771149000,-0.142000000000
12.052457574000,-0.146000000000
12.060143999000,-0.088000000000
12.067830424000,-0.080000000000
12.075516849000,-0.073000000000
12.083203274000,-0.034000000000
12.090889699000,-0.007000000000
12.098576124000,0.004000000000
12.106262549000,0.024000000000
12.113948974000,0.051000000000
12.121635399000,0.068000000000
12.129321824000,0.078000000000
12.137008249000,0.095000000000
12.144694674000,0.110000000000
12.152381099000,0.115000000000
12.160067524000,0.120000000000
12.167753949000,0.110000000000
12.175440374000,0.085000000000
12.183126799000,0.066000000000
12.190813224000,0.053000000000
12.198499649000,0.034000000000
12.206186074000,0.007000000000
12.213872499000,-0.022000000000
12.221558924000,-0.071000000000
12.229245349000,-0.132000000000
12.236931774000,-0.183000000000
12.244618199000,-0.227000000000
12.252304624000,-0.259000000000
12.259991049000,-0.281000000000
12.267677474000,-0.286000000000
12.275363899000,-0.279000000000
12.283050324000,-0.264000000000
12.290736749000,-0.252000000000
12.298423174000,-0.249000000000
12.306109599000,-0.247000000000
12.313796030000,-0.237000000000
12.321482315000,-0.230000000000
12.329168600000,-0.230000000000
12.336854885000,-0.218000000000
12.344541170000,-0.210000000000
12.352227455000,-0.218000000000
12.359913740000,-0.215000000000
12.367600025000,-0.203000000000
12.375286310000,-0.205000000000
12.382972595000,-0.218000000000
12.390658880000,-0.220000000000
12.398345165000,-0.213000000000
12.406031450000,-0.208000000000
12.413717735000,-0.203000000000
12.421404020000,-0.186000000000
12.429090305000,-0.171000000000
12.436776590000,-0.166000000000
12.444462875000,-0.159000000000
12.452149160000,-0.154000000000
12.459835445000,-0.171000000000
12.467521730000,-0.200000000000
12.475208015000,-0.208000000000
12.482894300000,-0.200000000000
12.490580585000,-0.195000000000
12.498266870000,-0.186000000000
12.505953155000,-0.173000000000
12.513639440000,-0.181000000000
12.521325725000,-0.198000000000
12.529012010000,-0.252000000000
12.536698295000,-0.357000000000
12.544384580000,-0.262000000000
12.552070865000,0.308000000000
12.559757150000,1.070000000000
12.567443435000,1.464000000000
12.575129720000,0.933000000000
12.582816005000,-0.311000000000
12.590502290000,-0.739000000000
12.598188575000,-0.198000000000
12.605874860000,-0.046000000000
12.613561145000,-0.242000000000
12.621247430000,-0.169000000000
12.628933715000,-0.088000000000
12.636620000000,-0.144000000000
12.644306285000,-0.129000000000
12.651992570000,-0.075000000000
12.659678855000,-0.068000000000
12.667365140000,-0.061000000000
12.675051425000,-0.034000000000
12.682737710000,-0.014000000000
12.690423995000,0.012000000000
12.698110280000,0.044000000000
12.705796565000,0.058000000000
12.713482850000,0.073000000000
12.721169135000,0.100000000000
12.728855420000,0.117000000000
12.736541705000,0.117000000000
12.744227990000,0.120000000000
12.751914275000,0.120000000000
12.759600560000,0.102000000000
12.767286845000,0.078000000000
12.774973130000,0.063000000000
12.782659415000,0.051000000000
12.790345700000,0.031000000000
12.798031985000,0.004000000000
12.805718270000,-0.031000000000
12.813404555000,-0.085000000000
12.821090840000,-0.137000000000
12.828777125000,-0.191000000000
12.836463410000,-0.240000000000
12.844149695000,-0.271000000000
12.851835980000,-0.284000000000
12.859522265000,-0.284000000000
12.867208550000,-0.276000000000
12.874894891000,-0.271000000000
12.882581594000,-0.267000000000
12.890268297000,-0.257000000000
12.897955000000,-0.244000000000
12.905641703000,-0.240000000000
12.913328406000,-0.235000000000
12.921015109000,-0.222000000000
12.928701812000,-0.218000000000
12.936388515000,-0.220000000000
12.944075218000,-0.220000000000
12.951761921000,-0.215000000000
12.959448624000,-0.213000000000
12.967135327000,-0.213000000000
12.974822030000,-0.210000000000
12.982508733000,-0.218000000000
12.990195436000,-0.227000000000
12.997882139000,-0.218000000000
13.005568842000,-0.203000000000
13.013255545000,-0.198000000000
13.020942248000,-0.193000000000
13.028628951000,-0.183000000000
13.036315654000,-0.169000000000
13.044002357000,-0.164000000000
13.051689060000,-0.186000000000
13.059375763000,-0.215000000000
13.067062466000,-0.218000000000
13.074749169000,-0.203000000000
13.082435872000,-0.198000000000
13.090122575000,-0.193000000000
13.097809278000,-0.191000000000
13.105495981000,-0.198000000000
13.113182684000,-0.215000000000
13.120869387000,-0.279000000000
13.128556090000,-0.372000000000
13.136242793000,-0.213000000000
13.143929496000,0.423000000000
13.151616199000,1.168000000000
13.159302902000,1.445000000000
13.166989605000,0.769000000000
13.174676308000,-0.440000000000
13.182363011000,-0.698000000000
13.190049714000,-0.151000000000
13.197736417000,-0.085000000000
13.205423120000,-0.262000000000
13.213109823000,-0.166000000000
13.220796526000,-0.110000000000
13.228483229000,-0.164000000000
13.236169932000,-0.137000000000
13.243856635000,-0.088000000000
13.251543338000,-0.090000000000
13.259230041000,-0.075000000000
13.266916744000,-0.041000000000
13.274603447000,-0.026000000000
13.282290150000,-0.009000000000
13.289976853000,0.017000000000
13.297663556000,0.036000000000
13.305350259000,0.051000000000
13.313036962000,0.068000000000
13.320723665000,0.080000000000
13.328410368000,0.085000000000
13.336097071000,0.088000000000
13.343783774000,0.080000000000
13.351470477000,0.063000000000
13.359157180000,0.044000000000
13.366843883000,0.029000000000
13.374530586000,0.012000000000
13.382217289000,-0.007000000000
13.389903992000,-0.029000000000
13.397590695000,-0.063000000000
13.405277398000,-0.112000000000
13.412964101000,-0.161000000000
13.420650804000,-0.208000000000
13.428337507000,-0.247000000000
13.436024274000,-0.276000000000
13.443710559000,-0.286000000000
13.451396844000,-0.286000000000
13.459083129000,-0.281000000000
13.466769414000,-0.274000000000
13.474455699000,-0.262000000000
13.482141984000,-0.249000000000
13.489828269000,-0.244000000000
13.497514554000,-0.237000000000
13.505200839000,-0.230000000000
13.512887124000,-0.225000000000
13.520573409000,-0.222000000000
13.528259694000,-0.220000000000
13.535945979000,-0.218000000000
13.543632264000,-0.218000000000
13.551318549000,-0.218000000000
13.559004834000,-0.218000000000
13.566691119000,-0.220000000000
13.574377404000,-0.225000000000
13.582063689000,-0.227000000000
13.589749974000,-0.220000000000
13.597436259000,-0.208000000000
13.605122544000,-0.195000000000
13.612808829000,-0.188000000000
13.620495114000,-0.181000000000
13.628181399000,-0.166000000000
13.635867684000,-0.164000000000
13.643553969000,-0.195000000000
13.651240254000,-0.222000000000
13.658926539000,-0.215000000000
13.666612824000,-0.203000000000
13.674299109000,-0.200000000000
13.681985394000,-0.195000000000
13.689671679000,-0.193000000000
13.697357964000,-0.205000000000
13.705044249000,-0.242000000000
13.712730534000,-0.335000000000
13.720416819000,-0.391000000000
13.728103104000,-0.061000000000
13.735789389000,0.693000000000
13.743475674000,1.379000000000
13.751161959000,1.408000000000
13.758848244000,0.409000000000
13.766534529000,-0.671000000000
13.774220814000,-0.521000000000
13.781907099000,-0.024000000000
13.789593384000,-0.161000000000
13.797279669000,-0.269000000000
13.804965954000,-0.132000000000
13.812652239000,-0.129000000000
13.820338524000,-0.173000000000
13.828024809000,-0.120000000000
13.835711094000,-0.088000000000
13.843397379000,-0.093000000000
13.851083664000,-0.066000000000
13.858769949000,-0.034000000000
13.866456234000,-0.019000000000
13.874142519000,0.000000000000
13.881828804000,0.024000000000
13.889515089000,0.044000000000
13.897201374000,0.061000000000
13.904887659000,0.078000000000
13.912573944000,0.090000000000
13.920260229000,0.097000000000
13.927946514000,0.097000000000
13.935632799000,0.088000000000
13.943319084000,0.071000000000
13.951005369000,0.053000000000
13.958691654000,0.034000000000
13.966377939000,0.014000000000
13.974064224000,-0.007000000000
13.981750509000,-0.036000000000
13.989436794000,-0.080000000000
13.997123135000,-0.132000000000
14.004809420000,-0.183000000000
14.012495705000,-0.232000000000
14.020181990000,-0.269000000000
14.027868275000,-0.286000000000
14.035554560000,-0.293000000000
14.043240845000,-0.293000000000
14.050927130000,-0.284000000000
14.058613415000,-0.271000000000
14.066299700000,-0.264000000000
14.073985985000,-0.257000000000
14.081672270000,-0.249000000000
14.089358555000,-0.244000000000
14.097044840000,-0.237000000000
14.104731125000,-0.230000000000
14.112417410000,-0.230000000000
14.120103695000,-0.230000000000
14.127789980000,-0.225000000000
14.135476265000,-0.222000000000
14.143162550000,-0.222000000000
14.150848835000,-0.220000000000
14.158535120000,-0.225000000000
14.166221405000,-0.232000000000
14.173907690000,-0.227000000000
14.181593975000,-0.215000000000
14.189280260000,-0.203000000000
14.196966545000,-0.193000000000
14.204652830000,-0.188000000000
14.212339115000,-0.173000000000
14.220025400000,-0.159000000000
14.227711685000,-0.178000000000
14.235397970000,-0.213000000000
14.243084255000,-0.218000000000
14.250770540000,-0.200000000000
14.258456825000,-0.198000000000
14.266143110000,-0.195000000000
14.273829395000,-0.191000000000
14.281515680000,-0.195000000000
14.289201965000,-0.220000000000
14.296888250000,-0.293000000000
14.304574535000,-0.406000000000
14.312260820000,-0.291000000000
14.319947105000,0.318000000000
14.327633390000,1.121000000000
14.335319675000,1.543000000000
14.343005960000,0.992000000000
14.350692245000,-0.301000000000
14.358378530000,-0.739000000000
14.366064815000,-0.178000000000
14.373751100000,-0.046000000000
14.381437385000,-0.267000000000
14.389123670000,-0.188000000000
14.396809955000,-0.105000000000
14.404496240000,-0.161000000000
14.412182525000,-0.146000000000
14.419868810000,-0.090000000000
14.427555095000,-0.085000000000
14.435241380000,-0.073000000000
14.442927665000,-0.041000000000
14.450613950000,-0.022000000000
14.458300235000,-0.007000000000
14.465986520000,0.017000000000
14.473672805000,0.039000000000
14.481359090000,0.058000000000
14.489045375000,0.078000000000
14.496731660000,0.095000000000
14.504417945000,0.105000000000
14.512104230000,0.105000000000
14.519790515000,0.100000000000
14.527476800000,0.085000000000
14.535163085000,0.066000000000
14.542849370000,0.046000000000
14.550535655000,0.029000000000
14.558221996000,0.009000000000
14.565908560000,-0.014000000000
14.573595124000,-0.053000000000
14.581281688000,-0.105000000000
14.588968252000,-0.159000000000
14.596654816000,-0.208000000000
14.604341380000,-0.247000000000
14.612027944000,-0.276000000000
14.619714508000,-0.289000000000
14.627401072000,-0.289000000000
14.635087636000,-0.279000000000
14.642774200000,-0.271000000000
14.650460764000,-0.264000000000
14.658147328000,-0.252000000000
14.665833892000,-0.242000000000
14.673520456000,-0.237000000000
14.681207020000,-0.230000000000
14.688893584000,-0.225000000000
14.696580148000,-0.225000000000
14.704266712000,-0.222000000000
14.711953276000,-0.218000000000
14.719639840000,-0.218000000000
14.727326404000,-0.215000000000
14.735012968000,-0.213000000000
14.742699532000,-0.215000000000
14.750386096000,-0.220000000000
14.758072660000,-0.222000000000
14.765759224000,-0.210000000000
14.773445788000,-0.198000000000
14.781132352000,-0.188000000000
14.788818916000,-0.181000000000
14.796505480000,-0.173000000000
14.804192044000,-0.154000000000
14.811878608000,-0.156000000000
14.819565172000,-0.191000000000
14.827251736000,-0.218000000000
14.834938300000,-0.208000000000
14.842624864000,-0.195000000000
14.850311428000,-0.195000000000
14.857997992000,-0.191000000000
14.865684556000,-0.183000000000
14.873371120000,-0.195000000000
14.881057684000,-0.244000000000
14.888744248000,-0.350000000000
14.896430812000,-0.384000000000
14.904117376000,-0.002000000000
14.911803940000,0.786000000000
14.919490504000,1.457000000000
14.927177068000,1.374000000000
14.934863632000,0.237000000000
14.942550196000,-0.737000000000
14.950236760000,-0.433000000000
14.957923324000,0.000000000000
14.965609888000,-0.188000000000
14.973296452000,-0.244000000000
14.980983016000,-0.107000000000
14.988669580000,-0.134000000000
14.996356144000,-0.161000000000
15.004042708000,-0.100000000000
15.011729272000,-0.078000000000
15.019415836000,-0.080000000000
15.027102400000,-0.046000000000
15.034788964000,-0.017000000000
15.042475528000,-0.007000000000
15.050162092000,0.017000000000
15.057848656000,0.044000000000
15.065535220000,0.058000000000
15.073221784000,0.071000000000
15.080908348000,0.095000000000
15.088594912000,0.117000000000
15.096281476000,0.117000000000
15.103968040000,0.107000000000
15.111654604000,0.100000000000
15.119341205000,0.088000000000
15.127027630000,0.063000000000
15.134714055000,0.048000000000
15.142400480000,0.036000000000
15.150086905000,0.009000000000
15.157773330000,-0.024000000000
15.165459755000,-0.068000000000
15.173146180000,-0.122000000000
15.180832605000,-0.169000000000
15.188519030000,-0.210000000000
15.196205455000,-0.244000000000
15.203891880000,-0.269000000000
15.211578305000,-0.279000000000
15.219264730000,-0.271000000000
15.226951155000,-0.262000000000
15.234637580000,-0.257000000000
15.242324005000,-0.247000000000
15.250010430000,-0.235000000000
15.257696855000,-0.227000000000
15.265383280000,-0.220000000000
15.273069705000,-0.210000000000
15.280756130000,-0.208000000000
15.288442555000,-0.210000000000
15.296128980000,-0.208000000000
15.303815405000,-0.205000000000
15.311501830000,-0.205000000000
15.319188255000,-0.200000000000
15.326874680000,-0.205000000000
15.334561105000,-0.218000000000
15.342247530000,-0.210000000000
15.349933955000,-0.198000000000
15.357620380000,-0.193000000000
15.365306805000,-0.183000000000
15.372993230000,-0.171000000000
15.380679655000,-0.161000000000
15.388366080000,-0.144000000000
15.396052505000,-0.146000000000
15.403738930000,-0.183000000000
15.411425355000,-0.205000000000
15.419111780000,-0.191000000000
15.426798205000,-0.178000000000
15.434484630000,-0.188000000000
15.442171055000,-0.186000000000
15.449857480000,-0.171000000000
15.457543905000,-0.173000000000
15.465230330000,-0.203000000000
15.472916755000,-0.284000000000
15.480603180000,-0.345000000000
15.488289605000,-0.073000000000
15.495976030000,0.629000000000
15.503662455000,1.315000000000
15.511348880000,1.393000000000
15.519035305000,0.460000000000
15.526721730000,-0.631000000000
15.534408155000,-0.536000000000
15.542094580000,-0.029000000000
15.549781005000,-0.127000000000
15.557467430000,-0.227000000000
15.565153855000,-0.097000000000
15.572840280000,-0.093000000000
15.580526705000,-0.137000000000
15.588213130000,-0.090000000000
15.595899555000,-0.056000000000
15.603585980000,-0.053000000000
15.611272405000,-0.034000000000
15.618958830000,-0.014000000000
15.626645255000,0.007000000000
15.634331680000,0.036000000000
15.642018105000,0.058000000000
15.649704530000,0.075000000000
15.657390955000,0.095000000000
15.665077380000,0.110000000000
15.672763805000,0.120000000000
15.680450236000,0.129000000000
15.688136521000,0.127000000000
15.695822806000,0.110000000000
15.703509091000,0.093000000000
15.711195376000,0.083000000000
15.718881661000,0.058000000000
15.726567946000,0.034000000000
15.734254231000,0.017000000000
15.741940516000,-0.007000000000
15.749626801000,-0.051000000000
15.757313086000,-0.095000000000
15.764999371000,-0.137000000000
15.772685656000,-0.186000000000
15.780371941000,-0.232000000000
15.788058226000,-0.259000000000
15.795744511000,-0.267000000000
15.803430796000,-0.259000000000
15.811117081000,-0.244000000000
15.818803366000,-0.240000000000
15.826489651000,-0.240000000000
15.834175936000,-0.227000000000
15.841862221000,-0.213000000000
15.849548506000,-0.210000000000
15.857234791000,-0.210000000000
15.864921076000,-0.208000000000
15.872607361000,-0.208000000000
15.880293646000,-0.205000000000
15.887979931000,-0.195000000000
15.895666216000,-0.195000000000
15.903352501000,-0.198000000000
15.911038786000,-0.200000000000
15.918725071000,-0.205000000000
15.926411356000,-0.210000000000
15.934097641000,-0.198000000000
15.941783926000,-0.188000000000
15.949470211000,-0.181000000000
15.957156496000,-0.166000000000
15.964842781000,-0.156000000000
15.972529066000,-0.144000000000
15.980215351000,-0.137000000000
15.987901636000,-0.156000000000
15.995587921000,-0.188000000000
16.003274206000,-0.193000000000
16.010960491000,-0.186000000000
16.018646776000,-0.173000000000
16.026333061000,-0.164000000000
16.034019346000,-0.164000000000
16.041705631000,-0.173000000000
16.049391916000,-0.186000000000
16.057078201000,-0.235000000000
16.064764486000,-0.330000000000
16.072450771000,-0.210000000000
16.080137056000,0.377000000000
16.087823341000,1.109000000000
16.095509626000,1.447000000000
16.103195911000,0.874000000000
16.110882196000,-0.335000000000
16.118568481000,-0.700000000000
16.126254766000,-0.166000000000
16.133941051000,-0.051000000000
16.141627336000,-0.237000000000
16.149313621000,-0.154000000000
16.156999906000,-0.083000000000
16.164686191000,-0.139000000000
16.172372476000,-0.120000000000
16.180058761000,-0.066000000000
16.187745046000,-0.063000000000
16.195431331000,-0.056000000000
16.203117616000,-0.029000000000
16.210803901000,-0.012000000000
16.218490186000,0.000000000000
16.226176471000,0.019000000000
16.233862756000,0.041000000000
16.241549097000,0.061000000000
16.249235800000,0.073000000000
16.256922503000,0.085000000000
16.264609206000,0.095000000000
16.272295909000,0.093000000000
16.279982612000,0.080000000000
16.287669315000,0.066000000000
16.295356018000,0.048000000000
16.303042721000,0.026000000000
16.310729424000,0.009000000000
16.318416127000,-0.007000000000
16.326102830000,-0.031000000000
16.333789533000,-0.071000000000
16.341476236000,-0.117000000000
16.349162939000,-0.166000000000
16.356849642000,-0.218000000000
16.364536345000,-0.257000000000
16.372223048000,-0.284000000000
16.379909751000,-0.296000000000
16.387596454000,-0.296000000000
16.395283157000,-0.289000000000
16.402969860000,-0.279000000000
16.410656563000,-0.271000000000
16.418343266000,-0.259000000000
16.426029969000,-0.249000000000
16.433716672000,-0.240000000000
16.441403375000,-0.235000000000
16.449090078000,-0.227000000000
16.456776781000,-0.222000000000
16.464463484000,-0.222000000000
16.472150187000,-0.222000000000
16.479836890000,-0.220000000000
16.487523593000,-0.218000000000
16.495210296000,-0.215000000000
16.502896999000,-0.220000000000
16.510583702000,-0.227000000000
16.518270405000,-0.222000000000
16.525957108000,-0.213000000000
16.533643811000,-0.200000000000
16.541330514000,-0.195000000000
16.549017217000,-0.191000000000
16.556703920000,-0.178000000000
16.564390623000,-0.166000000000
16.572077326000,-0.173000000000
16.579764029000,-0.208000000000
16.587450732000,-0.222000000000
16.595137435000,-0.208000000000
16.602824138000,-0.200000000000
16.610510841000,-0.200000000000
16.618197544000,-0.191000000000
16.625884247000,-0.191000000000
16.633570950000,-0.210000000000
16.641257653000,-0.262000000000
16.648944356000,-0.364000000000
16.656631059000,-0.347000000000
16.664317762000,0.124000000000
16.672004465000,0.908000000000
16.679691168000,1.459000000000
16.687377871000,1.217000000000
16.695064574000,0.046000000000
16.702751277000,-0.754000000000
16.710437980000,-0.352000000000
16.718124683000,-0.009000000000
16.725811386000,-0.220000000000
16.733498089000,-0.237000000000
16.741184792000,-0.110000000000
16.748871495000,-0.146000000000
16.756558198000,-0.161000000000
16.764244901000,-0.100000000000
16.771931604000,-0.085000000000
16.779618307000,-0.080000000000
16.787305010000,-0.048000000000
16.794991713000,-0.024000000000
16.802678480000,-0.012000000000
16.810364765000,0.012000000000
16.818051050000,0.034000000000
16.825737335000,0.048000000000
16.833423620000,0.068000000000
16.841109905000,0.085000000000
16.848796190000,0.093000000000
16.856482475000,0.095000000000
16.864168760000,0.090000000000
16.871855045000,0.075000000000
16.879541330000,0.056000000000
16.887227615000,0.036000000000
16.894913900000,0.019000000000
16.902600185000,0.000000000000
16.910286470000,-0.024000000000
16.917972755000,-0.056000000000
16.925659040000,-0.102000000000
16.933345325000,-0.154000000000
16.941031610000,-0.203000000000
16.948717895000,-0.244000000000
16.956404180000,-0.274000000000
16.964090465000,-0.289000000000
16.971776750000,-0.289000000000
16.979463035000,-0.284000000000
16.987149320000,-0.274000000000
16.994835605000,-0.264000000000
17.002521890000,-0.254000000000
17.010208175000,-0.244000000000
17.017894460000,-0.237000000000
17.025580745000,-0.230000000000
17.033267030000,-0.227000000000
17.040953315000,-0.222000000000
17.048639600000,-0.220000000000
17.056325885000,-0.218000000000
17.064012170000,-0.215000000000
17.071698455000,-0.215000000000
17.079384740000,-0.215000000000
17.087071025000,-0.218000000000
17.094757310000,-0.220000000000
17.102443595000,-0.220000000000
17.110129880000,-0.210000000000
17.117816165000,-0.198000000000
17.125502450000,-0.191000000000
17.133188735000,-0.186000000000
17.140875020000,-0.176000000000
17.148561305000,-0.156000000000
17.156247590000,-0.159000000000
17.163933875000,-0.195000000000
17.171620160000,-0.215000000000
17.179306445000,-0.203000000000
17.186992730000,-0.195000000000
17.194679015000,-0.195000000000
17.202365300000,-0.188000000000
17.210051585000,-0.183000000000
17.217737870000,-0.203000000000
17.225424155000,-0.252000000000
17.233110440000,-0.357000000000
17.240796725000,-0.391000000000
17.248483010000,0.000000000000
17.256169295000,0.791000000000
17.263855580000,1.455000000000
17.271541865000,1.388000000000
17.279228150000,0.276000000000
17.286914435000,-0.722000000000
17.294600720000,-0.443000000000
17.302287005000,0.000000000000
17.309973290000,-0.188000000000
17.317659575000,-0.257000000000
17.325345860000,-0.117000000000
17.333032145000,-0.132000000000
17.340718430000,-0.166000000000
17.348404715000,-0.107000000000
17.356091000000,-0.083000000000
17.363777341000,-0.083000000000
17.371463626000,-0.056000000000
17.379149911000,-0.029000000000
17.386836196000,-0.014000000000
17.394522481000,0.007000000000
17.402208766000,0.029000000000
17.409895051000,0.048000000000
17.417581336000,0.066000000000
17.425267621000,0.083000000000
17.432953906000,0.095000000000
17.440640191000,0.100000000000
17.448326476000,0.095000000000
17.456012761000,0.085000000000
17.463699046000,0.068000000000
17.471385331000,0.048000000000
17.479071616000,0.026000000000
17.486757901000,0.009000000000
17.494444186000,-0.012000000000
17.502130471000,-0.046000000000
17.509816756000,-0.093000000000
17.517503041000,-0.142000000000
17.525189326000,-0.193000000000
17.532875611000,-0.240000000000
17.540561896000,-0.271000000000
17.548248181000,-0.289000000000
17.555934466000,-0.291000000000
17.563620751000,-0.286000000000
17.571307036000,-0.276000000000
17.578993321000,-0.267000000000
17.586679606000,-0.254000000000
17.594365891000,-0.247000000000
17.602052176000,-0.240000000000
17.609738461000,-0.232000000000
17.617424746000,-0.227000000000
17.625111031000,-0.227000000000
17.632797316000,-0.225000000000
17.640483601000,-0.222000000000
17.648169886000,-0.218000000000
17.655856171000,-0.218000000000
17.663542456000,-0.218000000000
17.671228741000,-0.220000000000
17.678915026000,-0.222000000000
17.686601311000,-0.227000000000
17.694287596000,-0.220000000000
17.701973881000,-0.205000000000
17.709660166000,-0.193000000000
17.717346451000,-0.188000000000
17.725032736000,-0.178000000000
17.732719021000,-0.161000000000
17.740405306000,-0.156000000000
17.748091591000,-0.188000000000
17.755777876000,-0.218000000000
17.763464161000,-0.213000000000
17.771150446000,-0.198000000000
17.778836731000,-0.198000000000
17.786523016000,-0.195000000000
17.794209301000,-0.188000000000
17.801895586000,-0.198000000000
17.809581871000,-0.230000000000
17.817268156000,-0.320000000000
17.824954441000,-0.416000000000
17.832640726000,-0.188000000000
17.840327011000,0.521000000000
17.848013296000,1.308000000000
17.855699581000,1.553000000000
17.863385866000,0.700000000000
17.871072151000,-0.560000000000
17.878758436000,-0.646000000000
17.886444721000,-0.075000000000
17.894131006000,-0.117000000000
17.901817291000,-0.286000000000
17.909503576000,-0.159000000000
17.917189861000,-0.122000000000
17.924876202000,-0.178000000000
17.932562766000,-0.137000000000
17.940249330000,-0.093000000000
17.947935894000,-0.095000000000
17.955622458000,-0.075000000000
17.963309022000,-0.041000000000
17.970995586000,-0.026000000000
17.978682150000,-0.007000000000
17.986368714000,0.017000000000
17.994055278000,0.039000000000
18.001741842000,0.056000000000
18.009428406000,0.073000000000
18.017114970000,0.085000000000
18.024801534000,0.093000000000
18.032488098000,0.088000000000
18.040174662000,0.078000000000
18.047861226000,0.063000000000
18.055547790000,0.041000000000
18.063234354000,0.022000000000
18.070920918000,0.004000000000
18.078607482000,-0.014000000000
18.086294046000,-0.041000000000
18.093980610000,-0.080000000000
18.101667174000,-0.127000000000
18.109353738000,-0.178000000000
18.117040302000,-0.222000000000
18.124726866000,-0.259000000000
18.132413430000,-0.284000000000
18.140099994000,-0.291000000000
18.147786558000,-0.286000000000
18.155473122000,-0.281000000000
18.163159686000,-0.271000000000
18.170846250000,-0.262000000000
18.178532814000,-0.252000000000
18.186219378000,-0.242000000000
18.193905942000,-0.235000000000
18.201592506000,-0.232000000000
18.209279070000,-0.227000000000
18.216965634000,-0.222000000000
18.224652198000,-0.218000000000
18.232338762000,-0.213000000000
18.240025326000,-0.213000000000
18.247711890000,-0.213000000000
18.255398454000,-0.215000000000
18.263085018000,-0.220000000000
18.270771582000,-0.225000000000
18.278458146000,-0.222000000000
18.286144710000,-0.210000000000
18.293831274000,-0.198000000000
18.301517838000,-0.188000000000
18.309204402000,-0.181000000000
18.316890966000,-0.166000000000
18.324577530000,-0.156000000000
18.332264094000,-0.173000000000
18.339950658000,-0.208000000000
18.347637222000,-0.213000000000
18.355323786000,-0.198000000000
18.363010350000,-0.195000000000
18.370696914000,-0.193000000000
18.378383478000,-0.186000000000
18.386070042000,-0.188000000000
18.393756606000,-0.215000000000
18.401443170000,-0.286000000000
18.409129734000,-0.391000000000
18.416816298000,-0.286000000000
18.424502862000,0.298000000000
18.432189426000,1.102000000000
18.439875990000,1.550000000000
18.447562554000,1.014000000000
18.455249118000,-0.293000000000
18.462935682000,-0.747000000000
18.470622246000,-0.181000000000
18.478308810000,-0.036000000000
18.485995411000,-0.257000000000
18.493681836000,-0.186000000000
18.501368261000,-0.105000000000
18.509054686000,-0.161000000000
18.516741111000,-0.139000000000
18.524427536000,-0.088000000000
18.532113961000,-0.090000000000
18.539800386000,-0.071000000000
18.547486811000,-0.036000000000
18.555173236000,-0.022000000000
18.562859661000,0.000000000000
18.570546086000,0.024000000000
18.578232511000,0.039000000000
18.585918936000,0.063000000000
18.593605361000,0.090000000000
18.601291786000,0.100000000000
18.608978211000,0.105000000000
18.616664636000,0.107000000000
18.624351061000,0.102000000000
18.632037486000,0.088000000000
18.639723911000,0.061000000000
18.647410336000,0.041000000000
18.655096761000,0.036000000000
18.662783186000,0.014000000000
18.670469611000,-0.019000000000
18.678156036000,-0.053000000000
18.685842461000,-0.100000000000
18.693528886000,-0.149000000000
18.701215311000,-0.198000000000
18.708901736000,-0.242000000000
18.716588161000,-0.269000000000
18.724274586000,-0.284000000000
18.731961011000,-0.281000000000
18.739647436000,-0.271000000000
18.747333861000,-0.267000000000
18.755020286000,-0.262000000000
18.762706711000,-0.252000000000
18.770393136000,-0.235000000000
18.778079561000,-0.227000000000
18.785765986000,-0.227000000000
18.793452411000,-0.220000000000
18.801138836000,-0.210000000000
18.808825261000,-0.203000000000
18.816511686000,-0.205000000000
18.824198111000,-0.213000000000
18.831884536000,-0.213000000000
18.839570961000,-0.205000000000
18.847257386000,-0.208000000000
18.854943811000,-0.218000000000
18.862630236000,-0.220000000000
18.870316661000,-0.208000000000
18.878003086000,-0.186000000000
18.885689511000,-0.171000000000
18.893375936000,-0.178000000000
18.901062361000,-0.176000000000
18.908748786000,-0.151000000000
18.916435211000,-0.151000000000
18.924121636000,-0.193000000000
18.931808061000,-0.215000000000
18.939494486000,-0.200000000000
18.947180911000,-0.191000000000
18.954867336000,-0.191000000000
18.962553761000,-0.183000000000
18.970240186000,-0.181000000000
18.977926611000,-0.193000000000
18.985613036000,-0.227000000000
18.993299461000,-0.318000000000
19.000985886000,-0.347000000000
19.008672311000,0.029000000000
19.016358736000,0.786000000000
19.024045161000,1.396000000000
19.031731586000,1.261000000000
19.039418011000,0.159000000000
19.047104442000,-0.734000000000
19.054790727000,-0.418000000000
19.062477012000,-0.012000000000
19.070163297000,-0.183000000000
19.077849582000,-0.227000000000
19.085535867000,-0.100000000000
19.093222152000,-0.117000000000
19.100908437000,-0.144000000000
19.108594722000,-0.088000000000
19.116281007000,-0.066000000000
19.123967292000,-0.068000000000
19.131653577000,-0.034000000000
19.139339862000,0.000000000000
19.147026147000,0.004000000000
19.154712432000,0.026000000000
19.162398717000,0.058000000000
19.170085002000,0.078000000000
19.177771287000,0.090000000000
19.185457572000,0.105000000000
19.193143857000,0.117000000000
19.200830142000,0.129000000000
19.208516427000,0.137000000000
19.216202712000,0.115000000000
19.223888997000,0.088000000000
19.231575282000,0.073000000000
19.239261567000,0.061000000000
19.246947852000,0.041000000000
19.254634137000,0.017000000000
19.262320422000,-0.017000000000
19.270006707000,-0.053000000000
19.277692992000,-0.097000000000
19.285379277000,-0.159000000000
19.293065562000,-0.208000000000
19.300751847000,-0.240000000000
19.308438132000,-0.262000000000
19.316124417000,-0.257000000000
19.323810702000,-0.247000000000
19.331496987000,-0.244000000000
19.339183272000,-0.237000000000
19.346869557000,-0.222000000000
19.354555842000,-0.220000000000
19.362242127000,-0.220000000000
19.369928412000,-0.213000000000
19.377614697000,-0.205000000000
19.385300982000,-0.200000000000
19.392987267000,-0.203000000000
19.400673552000,-0.208000000000
19.408359837000,-0.200000000000
19.416046122000,-0.198000000000
19.423732407000,-0.203000000000
19.431418692000,-0.208000000000
19.439104977000,-0.210000000000
19.446791262000,-0.210000000000
19.454477547000,-0.205000000000
19.462163832000,-0.193000000000
19.469850117000,-0.183000000000
19.477536402000,-0.178000000000
19.485222687000,-0.178000000000
19.492908972000,-0.159000000000
19.500595257000,-0.151000000000
19.508281542000,-0.183000000000
19.515967827000,-0.210000000000
19.523654112000,-0.203000000000
19.531340397000,-0.198000000000
19.539026682000,-0.191000000000
19.546712967000,-0.169000000000
19.554399252000,-0.156000000000
19.562085537000,-0.173000000000
19.569771822000,-0.203000000000
19.577458107000,-0.276000000000
19.585144392000,-0.347000000000
19.592830677000,-0.078000000000
19.600516962000,0.624000000000
19.608203303000,1.281000000000
19.615890006000,1.344000000000
19.623576709000,0.453000000000
19.631263412000,-0.631000000000
19.638950115000,-0.582000000000
19.646636818000,-0.080000000000
19.654323521000,-0.156000000000
19.662010224000,-0.259000000000
19.669696927000,-0.132000000000
19.677383630000,-0.127000000000
19.685070333000,-0.171000000000
19.692757036000,-0.120000000000
19.700443739000,-0.085000000000
19.708130442000,-0.085000000000
19.715817145000,-0.056000000000
19.723503848000,-0.024000000000
19.731190551000,-0.014000000000
19.738877254000,0.000000000000
19.746563957000,0.019000000000
19.754250660000,0.039000000000
19.761937363000,0.058000000000
19.769624066000,0.071000000000
19.777310769000,0.083000000000
19.784997472000,0.090000000000
19.792684175000,0.085000000000
19.800370878000,0.068000000000
19.808057581000,0.053000000000
19.815744284000,0.034000000000
19.823430987000,0.012000000000
19.831117690000,-0.007000000000
19.838804393000,-0.024000000000
19.846491096000,-0.051000000000
19.854177799000,-0.093000000000
19.861864502000,-0.142000000000
19.869551205000,-0.188000000000
19.877237908000,-0.235000000000
19.884924611000,-0.271000000000
19.892611314000,-0.289000000000
19.900298017000,-0.296000000000
19.907984720000,-0.293000000000
19.915671423000,-0.289000000000
19.923358126000,-0.279000000000
19.931044829000,-0.267000000000
19.938731532000,-0.257000000000
19.946418235000,-0.249000000000
19.954104938000,-0.242000000000
19.961791641000,-0.232000000000
19.969478344000,-0.227000000000
19.977165047000,-0.225000000000
19.984851750000,-0.222000000000
19.992538453000,-0.222000000000
20.000225156000,-0.220000000000
20.007911859000,-0.215000000000
20.015598562000,-0.218000000000
20.023285265000,-0.227000000000
20.030971968000,-0.232000000000
20.038658671000,-0.225000000000
20.046345374000,-0.215000000000
20.054032077000,-0.205000000000
20.061718780000,-0.200000000000
20.069405483000,-0.193000000000
20.077092186000,-0.181000000000
20.084778889000,-0.166000000000
20.092465592000,-0.183000000000
20.100152295000,-0.218000000000
20.107838998000,-0.227000000000
20.115525701000,-0.210000000000
20.123212404000,-0.205000000000
20.130899107000,-0.208000000000
20.138585810000,-0.200000000000
20.146272513000,-0.200000000000
20.153959216000,-0.225000000000
20.161645919000,-0.298000000000
20.169332686000,-0.399000000000
20.177018971000,-0.276000000000
20.184705256000,0.330000000000
20.192391541000,1.119000000000
20.200077826000,1.521000000000
20.207764111000,0.987000000000
20.215450396000,-0.274000000000
20.223136681000,-0.742000000000
20.230822966000,-0.205000000000
20.238509251000,-0.056000000000
20.246195536000,-0.276000000000
20.253881821000,-0.210000000000
20.261568106000,-0.122000000000
20.269254391000,-0.178000000000
20.276940676000,-0.161000000000
20.284626961000,-0.105000000000
20.292313246000,-0.100000000000
20.299999531000,-0.088000000000
20.307685816000,-0.053000000000
20.315372101000,-0.036000000000
20.323058386000,-0.022000000000
20.330744671000,0.002000000000
20.338430956000,0.026000000000
20.346117241000,0.044000000000
20.353803526000,0.063000000000
20.361489811000,0.078000000000
20.369176096000,0.085000000000
20.376862381000,0.088000000000
20.384548666000,0.080000000000
20.392234951000,0.063000000000
20.399921236000,0.046000000000
20.407607521000,0.026000000000
20.415293806000,0.007000000000
20.422980091000,-0.014000000000
20.430666376000,-0.041000000000
20.438352661000,-0.083000000000
20.446038946000,-0.132000000000
20.453725231000,-0.183000000000
20.461411516000,-0.232000000000
20.469097801000,-0.269000000000
20.476784086000,-0.291000000000
20.484470371000,-0.303000000000
20.492156656000,-0.301000000000
20.499842941000,-0.293000000000
20.507529226000,-0.284000000000
20.515215511000,-0.274000000000
20.522901796000,-0.264000000000
20.530588081000,-0.254000000000
20.538274366000,-0.247000000000
20.545960651000,-0.242000000000
20.553646936000,-0.237000000000
20.561333221000,-0.232000000000
20.569019506000,-0.230000000000
20.576705791000,-0.230000000000
20.584392076000,-0.227000000000
20.592078361000,-0.227000000000
20.599764646000,-0.227000000000
20.607450931000,-0.230000000000
20.615137216000,-0.230000000000
20.622823501000,-0.230000000000
20.630509786000,-0.220000000000
20.638196071000,-0.205000000000
20.645882356000,-0.198000000000
20.653568641000,-0.193000000000
20.661254926000,-0.178000000000
20.668941211000,-0.161000000000
20.676627496000,-0.171000000000
20.684313781000,-0.208000000000
20.692000066000,-0.220000000000
20.699686351000,-0.208000000000
20.707372636000,-0.200000000000
20.715058921000,-0.198000000000
20.722745206000,-0.191000000000
20.730431547000,-0.193000000000
20.738118250000,-0.213000000000
20.745804953000,-0.267000000000
20.753491656000,-0.379000000000
20.761178359000,-0.377000000000
20.768865062000,0.093000000000
20.776551765000,0.916000000000
20.784238468000,1.533000000000
20.791925171000,1.317000000000
20.799611874000,0.095000000000
20.807298577000,-0.764000000000
20.814985280000,-0.369000000000
20.822671983000,-0.012000000000
20.830358686000,-0.232000000000
20.838045389000,-0.252000000000
20.845732092000,-0.117000000000
20.853418795000,-0.151000000000
20.861105498000,-0.171000000000
20.868792201000,-0.110000000000
20.876478904000,-0.090000000000
20.884165607000,-0.088000000000
20.891852310000,-0.058000000000
20.899539013000,-0.034000000000
20.907225716000,-0.019000000000
20.914912419000,0.007000000000
20.922599122000,0.031000000000
20.930285825000,0.051000000000
20.937972528000,0.071000000000
20.945659231000,0.088000000000
20.953345934000,0.100000000000
20.961032637000,0.105000000000
20.968719340000,0.097000000000
20.976406043000,0.085000000000
20.984092746000,0.068000000000
20.991779449000,0.046000000000
20.999466152000,0.024000000000
21.007152855000,0.004000000000
21.014839558000,-0.022000000000
21.022526261000,-0.058000000000
21.030212964000,-0.107000000000
21.037899667000,-0.164000000000
21.045586370000,-0.215000000000
21.053273073000,-0.254000000000
21.060959776000,-0.281000000000
21.068646479000,-0.296000000000
21.076333182000,-0.298000000000
21.084019885000,-0.293000000000
21.091706588000,-0.281000000000
21.099393291000,-0.271000000000
21.107079994000,-0.264000000000
21.114766697000,-0.257000000000
21.122453400000,-0.249000000000
21.130140103000,-0.242000000000
21.137826806000,-0.235000000000
21.145513509000,-0.232000000000
21.153200212000,-0.230000000000
21.160886915000,-0.230000000000
21.168573618000,-0.225000000000
21.176260321000,-0.225000000000
21.183947024000,-0.222000000000
21.191633727000,-0.222000000000
21.199320430000,-0.227000000000
21.207007133000,-0.232000000000
21.214693836000,-0.227000000000
21.222380539000,-0.215000000000
21.230067242000,-0.203000000000
21.237753945000,-0.195000000000
21.245440648000,-0.186000000000
21.253127351000,-0.171000000000
21.260814054000,-0.161000000000
21.268500757000,-0.181000000000
21.276187460000,-0.215000000000
21.283874163000,-0.218000000000
21.291560926000,-0.203000000000
21.299247211000,-0.198000000000
21.306933496000,-0.195000000000
21.314619781000,-0.191000000000
21.322306066000,-0.195000000000
21.329992351000,-0.220000000000
21.337678636000,-0.296000000000
21.345364921000,-0.409000000000
21.353051206000,-0.289000000000
21.360737491000,0.335000000000
21.368423776000,1.175000000000
21.376110061000,1.621000000000
21.383796346000,1.023000000000
21.391482631000,-0.323000000000
21.399168916000,-0.754000000000
21.406855201000,-0.183000000000
21.414541486000,-0.063000000000
21.422227771000,-0.284000000000
21.429914056000,-0.200000000000
21.437600341000,-0.117000000000
21.445286626000,-0.176000000000
21.452972911000,-0.156000000000
21.460659196000,-0.100000000000
21.468345481000,-0.097000000000
21.476031766000,-0.085000000000
21.483718051000,-0.051000000000
21.491404336000,-0.031000000000
21.499090621000,-0.014000000000
21.506776906000,0.012000000000
21.514463191000,0.034000000000
21.522149476000,0.051000000000
21.529835761000,0.075000000000
21.537522046000,0.090000000000
21.545208331000,0.097000000000
21.552894616000,0.097000000000
21.560580901000,0.090000000000
21.568267186000,0.075000000000
21.575953471000,0.056000000000
21.583639756000,0.036000000000
21.591326041000,0.017000000000
21.599012326000,-0.004000000000
21.606698611000,-0.031000000000
21.614384896000,-0.073000000000
21.622071181000,-0.124000000000
21.629757466000,-0.173000000000
21.637443751000,-0.222000000000
21.645130036000,-0.264000000000
21.652816321000,-0.286000000000
21.660502606000,-0.296000000000
21.668188891000,-0.296000000000
21.675875176000,-0.289000000000
21.683561461000,-0.279000000000
21.691247746000,-0.267000000000
21.698934031000,-0.257000000000
21.706620316000,-0.249000000000
21.714306601000,-0.242000000000
21.721992886000,-0.237000000000
21.729679171000,-0.235000000000
21.737365456000,-0.230000000000
21.745051741000,-0.227000000000
21.752738026000,-0.225000000000
21.760424311000,-0.225000000000
21.768110596000,-0.222000000000
21.775796881000,-0.222000000000
21.783483166000,-0.222000000000
21.791169451000,-0.225000000000
21.798855736000,-0.230000000000
21.806542021000,-0.227000000000
21.814228306000,-0.213000000000
21.821914591000,-0.200000000000
21.829600876000,-0.191000000000
21.837287161000,-0.183000000000
21.844973446000,-0.171000000000
21.852659787000,-0.161000000000
21.860346072000,-0.173000000000
21.868032357000,-0.205000000000
21.875718642000,-0.215000000000
21.883404927000,-0.200000000000
21.891091212000,-0.195000000000
21.898777497000,-0.195000000000
21.906463782000,-0.193000000000
21.914150067000,-0.193000000000
21.921836352000,-0.210000000000
21.929522637000,-0.271000000000
21.937208922000,-0.384000000000
21.944895207000,-0.345000000000
21.952581492000,0.183000000000
21.960267777000,1.031000000000
21.967954062000,1.604000000000
21.975640347000,1.241000000000
21.983326632000,-0.058000000000
21.991012917000,-0.786000000000
21.998699202000,-0.313000000000
22.006385487000,-0.026000000000
22.014071772000,-0.244000000000
22.021758057000,-0.232000000000
22.029444342000,-0.115000000000
22.037130627000,-0.154000000000
22.044816912000,-0.156000000000
22.052503197000,-0.095000000000
22.060189482000,-0.085000000000
22.067875767000,-0.080000000000
22.075562052000,-0.051000000000
22.083248337000,-0.022000000000
22.090934622000,0.000000000000
22.098620907000,0.019000000000
22.106307192000,0.036000000000
22.113993477000,0.056000000000
22.121679762000,0.080000000000
22.129366047000,0.097000000000
22.137052332000,0.112000000000
22.144738617000,0.120000000000
22.152424902000,0.112000000000
22.160111187000,0.095000000000
22.167797472000,0.078000000000
22.175483757000,0.056000000000
22.183170042000,0.036000000000
22.190856327000,0.019000000000
22.198542612000,-0.007000000000
22.206228897000,-0.048000000000
22.213915182000,-0.095000000000
22.221601467000,-0.146000000000
22.229287752000,-0.195000000000
22.236974037000,-0.237000000000
22.244660322000,-0.269000000000
22.252346607000,-0.284000000000
22.260032892000,-0.286000000000
22.267719177000,-0.279000000000
22.275405462000,-0.271000000000
22.283091747000,-0.264000000000
22.290778032000,-0.247000000000
22.298464317000,-0.235000000000
22.306150602000,-0.235000000000
22.313836887000,-0.235000000000
22.321523172000,-0.220000000000
22.329209457000,-0.205000000000
22.336895742000,-0.200000000000
22.344582027000,-0.205000000000
22.352268312000,-0.208000000000
22.359954597000,-0.210000000000
22.367640882000,-0.208000000000
22.375327167000,-0.205000000000
22.383013452000,-0.210000000000
22.390699737000,-0.210000000000
22.398386022000,-0.198000000000
22.406072307000,-0.193000000000
22.413758648000,-0.193000000000
22.421445351000,-0.183000000000
22.429132054000,-0.171000000000
22.436818757000,-0.159000000000
22.444505460000,-0.144000000000
22.452192163000,-0.156000000000
22.459878866000,-0.198000000000
22.467565569000,-0.210000000000
22.475252272000,-0.193000000000
22.482938975000,-0.191000000000
22.490625678000,-0.191000000000
22.498312381000,-0.181000000000
22.505999084000,-0.178000000000
22.513685787000,-0.195000000000
22.521372490000,-0.240000000000
22.529059193000,-0.338000000000
22.536745896000,-0.306000000000
22.544432599000,0.186000000000
22.552119302000,0.965000000000
22.559806005000,1.474000000000
22.567492708000,1.126000000000
22.575179411000,-0.083000000000
22.582866114000,-0.752000000000
22.590552817000,-0.301000000000
22.598239520000,-0.029000000000
22.605926223000,-0.220000000000
22.613612926000,-0.191000000000
22.621299629000,-0.088000000000
22.628986332000,-0.132000000000
22.636673035000,-0.129000000000
22.644359738000,-0.075000000000
22.652046441000,-0.066000000000
22.659733144000,-0.058000000000
22.667419847000,-0.029000000000
22.675106550000,-0.009000000000
22.682793253000,0.012000000000
22.690479956000,0.041000000000
22.698166659000,0.063000000000
22.705853362000,0.080000000000
22.713540065000,0.102000000000
22.721226768000,0.124000000000
22.728913471000,0.139000000000
22.736600174000,0.137000000000
22.744286877000,0.120000000000
22.751973580000,0.105000000000
22.759660283000,0.090000000000
22.767346986000,0.066000000000
22.775033689000,0.046000000000
22.782720392000,0.029000000000
22.790407095000,-0.002000000000
22.798093798000,-0.044000000000
22.805780501000,-0.085000000000
22.813467204000,-0.139000000000
22.821153907000,-0.191000000000
22.828840610000,-0.235000000000
22.836527313000,-0.269000000000
22.844214016000,-0.281000000000
22.851900719000,-0.281000000000
22.859587422000,-0.279000000000
22.867274125000,-0.269000000000
22.874960828000,-0.257000000000
22.882647531000,-0.244000000000
22.890334234000,-0.240000000000
22.898020937000,-0.232000000000
22.905707640000,-0.225000000000
22.913394343000,-0.220000000000
22.921081046000,-0.218000000000
22.928767749000,-0.215000000000
22.936454452000,-0.210000000000
22.944141155000,-0.208000000000
22.951827858000,-0.213000000000
22.959514561000,-0.210000000000
22.967201264000,-0.208000000000
22.974888027000,-0.215000000000
22.982574312000,-0.222000000000
22.990260597000,-0.215000000000
22.997946882000,-0.205000000000
23.005633167000,-0.195000000000
23.013319452000,-0.186000000000
23.021005737000,-0.183000000000
23.028692022000,-0.173000000000
23.036378307000,-0.159000000000
23.044064592000,-0.173000000000
23.051750877000,-0.208000000000
23.059437162000,-0.220000000000
23.067123447000,-0.205000000000
23.074809732000,-0.198000000000
23.082496017000,-0.195000000000
23.090182302000,-0.191000000000
23.097868587000,-0.191000000000
23.105554872000,-0.205000000000
23.113241157000,-0.247000000000
23.120927442000,-0.345000000000
23.128613727000,-0.330000000000
23.136300012000,0.132000000000
23.143986297000,0.918000000000
23.151672582000,1.455000000000
23.159358867000,1.185000000000
23.167045152000,0.019000000000
23.174731437000,-0.761000000000
23.182417722000,-0.372000000000
23.190104007000,-0.036000000000
23.197790292000,-0.225000000000
23.205476577000,-0.230000000000
23.213162862000,-0.115000000000
23.220849147000,-0.149000000000
23.228535432000,-0.159000000000
23.236221717000,-0.102000000000
23.243908002000,-0.090000000000
23.251594287000,-0.083000000000
23.259280572000,-0.053000000000
23.266966857000,-0.029000000000
23.274653142000,-0.014000000000
23.282339427000,0.007000000000
23.290025712000,0.029000000000
23.297711997000,0.048000000000
23.305398282000,0.066000000000
23.313084567000,0.083000000000
23.320770852000,0.090000000000
23.328457137000,0.093000000000
23.336143422000,0.088000000000
23.343829707000,0.071000000000
23.351515992000,0.051000000000
23.359202277000,0.031000000000
23.366888562000,0.012000000000
23.374574847000,-0.007000000000
23.382261132000,-0.031000000000
23.389947417000,-0.068000000000
23.397633702000,-0.112000000000
23.405319987000,-0.164000000000
23.413006272000,-0.213000000000
23.420692557000,-0.257000000000
23.428378842000,-0.284000000000
23.436065127000,-0.298000000000
23.443751412000,-0.301000000000
23.451437697000,-0.293000000000
23.459123982000,-0.284000000000
23.466810267000,-0.274000000000
23.474496552000,-0.262000000000
23.482182837000,-0.254000000000
23.489869122000,-0.249000000000
23.497555407000,-0.242000000000
23.505241692000,-0.232000000000
23.512927977000,-0.227000000000
23.520614262000,-0.225000000000
23.528300547000,-0.222000000000
23.535986892000,-0.220000000000
23.543673317000,-0.220000000000
23.551359742000,-0.220000000000
23.559046167000,-0.215000000000
23.566732592000,-0.218000000000
23.574419017000,-0.225000000000
23.582105442000,-0.227000000000
23.589791867000,-0.220000000000
23.597478292000,-0.205000000000
23.605164717000,-0.195000000000
23.612851142000,-0.191000000000
23.620537567000,-0.183000000000
23.628223992000,-0.166000000000
23.635910417000,-0.164000000000
23.643596842000,-0.193000000000
23.651283267000,-0.220000000000
23.658969692000,-0.210000000000
23.666656117000,-0.200000000000
23.674342542000,-0.200000000000
23.682028967000,-0.195000000000
23.689715392000,-0.191000000000
23.697401817000,-0.200000000000
23.705088242000,-0.237000000000
23.712774667000,-0.325000000000
23.720461092000,-0.394000000000
23.728147517000,-0.107000000000
23.735833942000,0.649000000000
23.743520367000,1.410000000000
23.751206792000,1.550000000000
23.758893217000,0.612000000000
23.766579642000,-0.602000000000
23.774266067000,-0.609000000000
23.781952492000,-0.068000000000
23.789638917000,-0.142000000000
23.797325342000,-0.289000000000
23.805011767000,-0.159000000000
23.812698192000,-0.132000000000
23.820384617000,-0.181000000000
23.828071042000,-0.134000000000
23.835757467000,-0.095000000000
23.843443892000,-0.095000000000
23.851130317000,-0.071000000000
23.858816742000,-0.039000000000
23.866503167000,-0.022000000000
23.874189592000,-0.002000000000
23.881876017000,0.022000000000
23.889562442000,0.044000000000
23.897248867000,0.061000000000
23.904935292000,0.080000000000
23.912621717000,0.095000000000
23.920308142000,0.102000000000
23.927994567000,0.100000000000
23.935680992000,0.090000000000
23.943367417000,0.075000000000
23.951053842000,0.053000000000
23.958740267000,0.034000000000
23.966426692000,0.014000000000
23.974113117000,-0.009000000000
23.981799542000,-0.044000000000
23.989485967000,-0.093000000000
23.997172392000,-0.144000000000
24.004858817000,-0.195000000000
24.012545242000,-0.244000000000
24.020231667000,-0.276000000000
24.027918092000,-0.293000000000
24.035604517000,-0.301000000000
24.043290942000,-0.298000000000
24.050977367000,-0.286000000000
24.058663792000,-0.279000000000
24.066350217000,-0.269000000000
24.074036642000,-0.257000000000
24.081723067000,-0.247000000000
24.089409492000,-0.242000000000
24.097095927000,-0.237000000000
24.104782491000,-0.235000000000
24.112469055000,-0.232000000000
24.120155619000,-0.227000000000
24.127842183000,-0.222000000000
24.135528747000,-0.222000000000
24.143215311000,-0.222000000000
24.150901875000,-0.220000000000
24.158588439000,-0.218000000000
24.166275003000,-0.222000000000
24.173961567000,-0.230000000000
24.181648131000,-0.227000000000
24.189334695000,-0.210000000000
24.197021259000,-0.195000000000
24.204707823000,-0.191000000000
24.212394387000,-0.183000000000
24.220080951000,-0.169000000000
24.227767515000,-0.156000000000
24.235454079000,-0.176000000000
24.243140643000,-0.210000000000
24.250827207000,-0.213000000000
24.258513771000,-0.198000000000
24.266200335000,-0.193000000000
24.273886899000,-0.191000000000
24.281573463000,-0.183000000000
24.289260027000,-0.188000000000
24.296946591000,-0.210000000000
24.304633155000,-0.279000000000
24.312319719000,-0.389000000000
24.320006283000,-0.301000000000
24.327692847000,0.296000000000
24.335379411000,1.168000000000
24.343065975000,1.687000000000
24.350752539000,1.183000000000
24.358439103000,-0.178000000000
24.366125667000,-0.771000000000
24.373812231000,-0.247000000000
24.381498795000,-0.048000000000
24.389185359000,-0.271000000000
24.396871923000,-0.218000000000
24.404558487000,-0.117000000000
24.412245051000,-0.169000000000
24.419931615000,-0.161000000000
24.427618179000,-0.105000000000
24.435304743000,-0.100000000000
24.442991307000,-0.090000000000
24.450677871000,-0.053000000000
24.458364435000,-0.031000000000
24.466050999000,-0.017000000000
24.473737563000,0.012000000000
24.481424127000,0.036000000000
24.489110691000,0.056000000000
24.496797255000,0.078000000000
24.504483819000,0.097000000000
24.512170383000,0.107000000000
24.519856947000,0.110000000000
24.527543511000,0.105000000000
24.535230075000,0.090000000000
24.542916639000,0.071000000000
24.550603203000,0.048000000000
24.558289767000,0.031000000000
24.565976331000,0.009000000000
24.573662895000,-0.019000000000
24.581349459000,-0.063000000000
24.589036023000,-0.112000000000
24.596722587000,-0.166000000000
24.604409151000,-0.220000000000
24.612095715000,-0.262000000000
24.619782279000,-0.286000000000
24.627468843000,-0.296000000000
24.635155407000,-0.296000000000
24.642841971000,-0.289000000000
24.650528535000,-0.276000000000
24.658215132000,-0.267000000000
24.665901417000,-0.257000000000
24.673587702000,-0.249000000000
24.681273987000,-0.242000000000
24.688960272000,-0.235000000000
24.696646557000,-0.230000000000
24.704332842000,-0.227000000000
24.712019127000,-0.225000000000
24.719705412000,-0.222000000000
24.727391697000,-0.222000000000
24.735077982000,-0.222000000000
24.742764267000,-0.222000000000
24.750450552000,-0.222000000000
24.758136837000,-0.220000000000
24.765823122000,-0.222000000000
24.773509407000,-0.227000000000
24.781195692000,-0.222000000000
24.788881977000,-0.205000000000
24.796568262000,-0.193000000000
24.804254547000,-0.188000000000
24.811940832000,-0.178000000000
24.819627117000,-0.159000000000
24.827313402000,-0.156000000000
24.834999687000,-0.191000000000
24.842685972000,-0.218000000000
24.850372257000,-0.205000000000
24.858058542000,-0.188000000000
24.865744827000,-0.188000000000
24.873431112000,-0.183000000000
24.881117397000,-0.178000000000
24.888803682000,-0.191000000000
24.896489967000,-0.225000000000
24.904176252000,-0.308000000000
24.911862537000,-0.391000000000
24.919548822000,-0.161000000000
24.927235107000,0.565000000000
24.934921392000,1.393000000000
24.942607677000,1.638000000000
24.950293962000,0.734000000000
24.957980247000,-0.565000000000
24.965666532000,-0.661000000000
24.973352817000,-0.088000000000
24.981039102000,-0.120000000000
24.988725387000,-0.286000000000
24.996411672000,-0.161000000000
25.004097957000,-0.122000000000
25.011784242000,-0.166000000000
25.019470527000,-0.124000000000
25.027156812000,-0.088000000000
25.034843097000,-0.088000000000
25.042529382000,-0.061000000000
25.050215667000,-0.029000000000
25.057901952000,-0.014000000000
25.065588237000,0.004000000000
25.073274522000,0.039000000000
25.080960807000,0.063000000000
25.088647092000,0.078000000000
25.096333377000,0.093000000000
25.104019662000,0.115000000000
25.111705947000,0.134000000000
25.119392232000,0.134000000000
25.127078517000,0.120000000000
25.134764802000,0.102000000000
25.142451087000,0.088000000000
25.150137372000,0.068000000000
25.157823657000,0.044000000000
25.165509942000,0.019000000000
25.173196227000,-0.012000000000
25.180882512000,-0.056000000000
25.188568797000,-0.112000000000
25.196255082000,-0.171000000000
25.203941367000,-0.220000000000
25.211627652000,-0.262000000000
25.219313993000,-0.281000000000
25.227000627000,-0.286000000000
25.234687261000,-0.284000000000
25.242373895000,-0.276000000000
25.250060529000,-0.267000000000
25.257747163000,-0.252000000000
25.265433797000,-0.242000000000
25.273120431000,-0.237000000000
25.280807065000,-0.230000000000
25.288493699000,-0.220000000000
25.296180333000,-0.218000000000
25.303866967000,-0.215000000000
25.311553601000,-0.210000000000
25.319240235000,-0.210000000000
25.326926869000,-0.205000000000
25.334613503000,-0.195000000000
25.342300137000,-0.195000000000
25.349986771000,-0.203000000000
25.357673405000,-0.210000000000
25.365360039000,-0.210000000000
25.373046673000,-0.200000000000
25.380733307000,-0.191000000000
25.388419941000,-0.178000000000
25.396106575000,-0.171000000000
25.403793209000,-0.166000000000
25.411479843000,-0.151000000000
25.419166477000,-0.139000000000
25.426853111000,-0.154000000000
25.434539745000,-0.188000000000
25.442226379000,-0.205000000000
25.449913013000,-0.195000000000
25.457599647000,-0.181000000000
25.465286281000,-0.176000000000
25.472972915000,-0.171000000000
25.480659549000,-0.173000000000
25.488346183000,-0.195000000000
25.496032817000,-0.240000000000
25.503719451000,-0.333000000000
25.511406085000,-0.289000000000
25.519092719000,0.220000000000
25.526779353000,1.016000000000
25.534465987000,1.513000000000
25.542152621000,1.121000000000
25.549839255000,-0.110000000000
25.557525889000,-0.749000000000
25.565212523000,-0.279000000000
25.572899157000,-0.029000000000
25.580585791000,-0.225000000000
25.588272425000,-0.186000000000
25.595959059000,-0.085000000000
25.603645693000,-0.129000000000
25.611332327000,-0.124000000000
25.619018961000,-0.068000000000
25.626705595000,-0.061000000000
25.634392229000,-0.053000000000
25.642078863000,-0.022000000000
25.649765497000,0.004000000000
25.657452131000,0.024000000000
25.665138765000,0.044000000000
25.672825399000,0.063000000000
25.680512033000,0.090000000000
25.688198667000,0.112000000000
25.695885301000,0.134000000000
25.703571935000,0.144000000000
25.711258569000,0.137000000000
25.718945203000,0.127000000000
25.726631837000,0.120000000000
25.734318471000,0.105000000000
25.742005105000,0.080000000000
25.749691739000,0.058000000000
25.757378373000,0.034000000000
25.765065007000,0.002000000000
25.772751641000,-0.034000000000
25.780438289000,-0.085000000000
25.788124644000,-0.144000000000
25.795810999000,-0.195000000000
25.803497354000,-0.237000000000
25.811183709000,-0.267000000000
25.818870064000,-0.281000000000
25.826556419000,-0.281000000000
25.834242774000,-0.271000000000
25.841929129000,-0.264000000000
25.849615484000,-0.257000000000
25.857301839000,-0.247000000000
25.864988194000,-0.237000000000
25.872674549000,-0.230000000000
25.880360904000,-0.220000000000
25.888047259000,-0.208000000000
25.895733614000,-0.210000000000
25.903419969000,-0.215000000000
25.911106324000,-0.210000000000
25.918792679000,-0.203000000000
25.926479034000,-0.200000000000
25.934165389000,-0.205000000000
25.941851744000,-0.208000000000
25.949538099000,-0.210000000000
25.957224454000,-0.213000000000
25.964910809000,-0.213000000000
25.972597164000,-0.208000000000
25.980283519000,-0.195000000000
25.987969874000,-0.183000000000
25.995656229000,-0.176000000000
26.003342584000,-0.171000000000
26.011028939000,-0.156000000000
26.018715294000,-0.151000000000
26.026401649000,-0.183000000000
26.034088004000,-0.213000000000
26.041774359000,-0.205000000000
26.049460714000,-0.193000000000
26.057147069000,-0.191000000000
26.064833424000,-0.183000000000
26.072519779000,-0.176000000000
26.080206134000,-0.186000000000
26.087892489000,-0.213000000000
26.095578844000,-0.289000000000
26.103265199000,-0.369000000000
26.110951554000,-0.146000000000
26.118637909000,0.548000000000
26.126324264000,1.295000000000
26.134010619000,1.496000000000
26.141696974000,0.688000000000
26.149383329000,-0.524000000000
26.157069684000,-0.654000000000
26.164756039000,-0.110000000000
26.172442394000,-0.110000000000
26.180128749000,-0.262000000000
26.187815104000,-0.149000000000
26.195501459000,-0.115000000000
26.203187814000,-0.164000000000
26.210874169000,-0.124000000000
26.218560524000,-0.083000000000
26.226246879000,-0.083000000000
26.233933234000,-0.063000000000
26.241619589000,-0.029000000000
26.249305944000,-0.014000000000
26.256992299000,0.004000000000
26.264678654000,0.029000000000
26.272365009000,0.048000000000
26.280051364000,0.071000000000
26.287737719000,0.093000000000
26.295424074000,0.107000000000
26.303110429000,0.112000000000
26.310796784000,0.110000000000
26.318483139000,0.097000000000
26.326169494000,0.080000000000
26.333855849000,0.063000000000
26.341542233000,0.044000000000
26.349228518000,0.022000000000
26.356914803000,0.000000000000
26.364601088000,-0.031000000000
26.372287373000,-0.080000000000
26.379973658000,-0.134000000000
26.387659943000,-0.186000000000
26.395346228000,-0.235000000000
26.403032513000,-0.271000000000
26.410718798000,-0.289000000000
26.418405083000,-0.296000000000
26.426091368000,-0.296000000000
26.433777653000,-0.286000000000
26.441463938000,-0.274000000000
26.449150223000,-0.269000000000
26.456836508000,-0.259000000000
26.464522793000,-0.247000000000
26.472209078000,-0.237000000000
26.479895363000,-0.235000000000
26.487581648000,-0.230000000000
26.495267933000,-0.225000000000
26.502954218000,-0.222000000000
26.510640503000,-0.218000000000
26.518326788000,-0.215000000000
26.526013073000,-0.215000000000
26.533699358000,-0.215000000000
26.541385643000,-0.213000000000
26.549071928000,-0.218000000000
26.556758213000,-0.222000000000
26.564444498000,-0.220000000000
26.572130783000,-0.205000000000
26.579817068000,-0.195000000000
26.587503353000,-0.188000000000
26.595189638000,-0.178000000000
26.602875923000,-0.161000000000
26.610562208000,-0.151000000000
26.618248493000,-0.169000000000
26.625934778000,-0.203000000000
26.633621063000,-0.210000000000
26.641307348000,-0.198000000000
26.648993633000,-0.193000000000
26.656679918000,-0.188000000000
26.664366203000,-0.181000000000
26.672052488000,-0.183000000000
26.679738773000,-0.203000000000
26.687425058000,-0.257000000000
26.695111343000,-0.362000000000
26.702797628000,-0.330000000000
26.710483913000,0.183000000000
26.718170198000,1.031000000000
26.725856483000,1.611000000000
26.733542768000,1.293000000000
26.741229053000,0.022000000000
26.748915338000,-0.769000000000
26.756601623000,-0.340000000000
26.764287908000,-0.019000000000
26.771974193000,-0.237000000000
26.779660478000,-0.240000000000
26.787346763000,-0.115000000000
26.795033048000,-0.151000000000
26.802719333000,-0.164000000000
26.810405618000,-0.102000000000
26.818091903000,-0.088000000000
26.825778188000,-0.083000000000
26.833464473000,-0.048000000000
26.841150758000,-0.024000000000
26.848837043000,-0.009000000000
26.856523328000,0.017000000000
26.864209613000,0.046000000000
26.871895898000,0.066000000000
26.879582183000,0.085000000000
26.887268468000,0.102000000000
26.894954753000,0.115000000000
26.902641098000,0.120000000000
26.910327801000,0.115000000000
26.918014504000,0.102000000000
26.925701207000,0.085000000000
26.933387910000,0.066000000000
26.941074613000,0.044000000000
26.948761316000,0.019000000000
26.956448019000,-0.012000000000
26.964134722000,-0.053000000000
26.971821425000,-0.110000000000
26.979508128000,-0.166000000000
26.987194831000,-0.220000000000
26.994881534000,-0.262000000000
27.002568237000,-0.289000000000
27.010254940000,-0.301000000000
27.017941643000,-0.301000000000
27.025628346000,-0.291000000000
27.033315049000,-0.281000000000
27.041001752000,-0.269000000000
27.048688455000,-0.259000000000
27.056375158000,-0.249000000000
27.064061861000,-0.242000000000
27.071748564000,-0.235000000000
27.079435267000,-0.227000000000
27.087121970000,-0.225000000000
27.094808673000,-0.222000000000
27.102495376000,-0.222000000000
27.110182079000,-0.220000000000
27.117868782000,-0.218000000000
27.125555485000,-0.215000000000
27.133242188000,-0.215000000000
27.140928891000,-0.215000000000
27.148615594000,-0.218000000000
27.156302297000,-0.220000000000
27.163989000000,-0.220000000000
27.171675703000,-0.210000000000
27.179362406000,-0.193000000000
27.187049109000,-0.183000000000
27.194735812000,-0.178000000000
27.202422515000,-0.166000000000
27.210109218000,-0.149000000000
27.217795921000,-0.151000000000
27.225482624000,-0.188000000000
27.233169327000,-0.208000000000
27.240856030000,-0.198000000000
27.248542733000,-0.188000000000
27.256229436000,-0.186000000000
27.263916139000,-0.178000000000
27.271602842000,-0.176000000000
27.279289545000,-0.186000000000
27.286976248000,-0.220000000000
27.294662951000,-0.308000000000
27.302349654000,-0.379000000000
27.310036357000,-0.097000000000
27.317723060000,0.666000000000
27.325409763000,1.462000000000
27.333096466000,1.633000000000
27.340783169000,0.668000000000
27.348469872000,-0.595000000000
27.356156575000,-0.614000000000
27.363843278000,-0.066000000000
27.371529981000,-0.139000000000
27.379216684000,-0.286000000000
27.386903387000,-0.151000000000
27.394590090000,-0.127000000000
27.402276793000,-0.173000000000
27.409963496000,-0.127000000000
27.417650199000,-0.088000000000
27.425336902000,-0.093000000000
27.433023605000,-0.068000000000
27.440710308000,-0.034000000000
27.448397011000,-0.019000000000
27.456083714000,0.000000000000
27.463770477000,0.029000000000
27.471456762000,0.051000000000
27.479143047000,0.071000000000
27.486829332000,0.093000000000
27.494515617000,0.112000000000
27.502201902000,0.122000000000
27.509888187000,0.120000000000
27.517574472000,0.112000000000
27.525260757000,0.095000000000
27.532947042000,0.075000000000
27.540633327000,0.056000000000
27.548319612000,0.036000000000
27.556005897000,0.009000000000
27.563692182000,-0.029000000000
27.571378467000,-0.078000000000
27.579064752000,-0.129000000000
27.586751037000,-0.186000000000
27.594437322000,-0.237000000000
27.602123607000,-0.274000000000
27.609809892000,-0.293000000000
27.617496177000,-0.298000000000
27.625182462000,-0.293000000000
27.632868747000,-0.286000000000
27.640555032000,-0.276000000000
27.648241317000,-0.264000000000
27.655927602000,-0.254000000000
27.663613887000,-0.244000000000
27.671300172000,-0.237000000000
27.678986457000,-0.230000000000
27.686672742000,-0.225000000000
27.694359027000,-0.225000000000
27.702045312000,-0.222000000000
27.709731597000,-0.220000000000
27.717417882000,-0.218000000000
27.725104167000,-0.215000000000
27.732790452000,-0.215000000000
27.740476737000,-0.215000000000
27.748163022000,-0.215000000000
27.755849307000,-0.220000000000
27.763535592000,-0.220000000000
27.771221877000,-0.215000000000
27.778908162000,-0.200000000000
27.786594447000,-0.186000000000
27.794280732000,-0.183000000000
27.801967017000,-0.173000000000
27.809653302000,-0.154000000000
27.817339587000,-0.146000000000
27.825025872000,-0.178000000000
27.832712157000,-0.210000000000
27.840398442000,-0.205000000000
27.848084727000,-0.191000000000
27.855771012000,-0.188000000000
27.863457297000,-0.186000000000
27.871143582000,-0.178000000000
27.878829867000,-0.183000000000
27.886516152000,-0.213000000000
27.894202437000,-0.284000000000
27.901888722000,-0.379000000000
27.909575007000,-0.235000000000
27.917261292000,0.423000000000
27.924947577000,1.288000000000
27.932633862000,1.702000000000
27.940320147000,1.028000000000
27.948006432000,-0.345000000000
27.955692717000,-0.749000000000
27.963379002000,-0.183000000000
27.971065287000,-0.075000000000
27.978751572000,-0.279000000000
27.986437857000,-0.188000000000
27.994124142000,-0.112000000000
28.001810427000,-0.171000000000
28.009496712000,-0.149000000000
28.017182997000,-0.097000000000
28.024869338000,-0.097000000000
28.032555623000,-0.078000000000
28.040241908000,-0.039000000000
28.047928193000,-0.024000000000
28.055614478000,-0.007000000000
28.063300763000,0.026000000000
28.070987048000,0.058000000000
28.078673333000,0.068000000000
28.086359618000,0.083000000000
28.094045903000,0.107000000000
28.101732188000,0.124000000000
28.109418473000,0.122000000000
28.117104758000,0.112000000000
28.124791043000,0.100000000000
28.132477328000,0.085000000000
28.140163613000,0.063000000000
28.147849898000,0.044000000000
28.155536183000,0.022000000000
28.163222468000,-0.012000000000
28.170908753000,-0.061000000000
28.178595038000,-0.112000000000
28.186281323000,-0.164000000000
28.193967608000,-0.218000000000
28.201653893000,-0.262000000000
28.209340178000,-0.284000000000
28.217026463000,-0.293000000000
28.224712748000,-0.293000000000
28.232399033000,-0.281000000000
28.240085318000,-0.264000000000
28.247771603000,-0.257000000000
28.255457888000,-0.254000000000
28.263144173000,-0.242000000000
28.270830458000,-0.232000000000
28.278516743000,-0.227000000000
28.286203028000,-0.218000000000
28.293889313000,-0.213000000000
28.301575598000,-0.215000000000
28.309261883000,-0.213000000000
28.316948168000,-0.210000000000
28.324634453000,-0.205000000000
28.332320738000,-0.200000000000
28.340007023000,-0.203000000000
28.347693308000,-0.208000000000
28.355379593000,-0.213000000000
28.363065878000,-0.215000000000
28.370752163000,-0.208000000000
28.378438448000,-0.191000000000
28.386124733000,-0.181000000000
28.393811018000,-0.178000000000
28.401497303000,-0.161000000000
28.409183588000,-0.142000000000
28.416869873000,-0.149000000000
28.424556158000,-0.178000000000
28.432242443000,-0.195000000000
28.439928728000,-0.193000000000
28.447615013000,-0.188000000000
28.455301298000,-0.183000000000
28.462987583000,-0.176000000000
28.470673868000,-0.171000000000
28.478360153000,-0.176000000000
28.486046438000,-0.200000000000
28.493732723000,-0.264000000000
28.501419008000,-0.364000000000
28.509105293000,-0.247000000000
28.516791578000,0.369000000000
28.524477863000,1.185000000000
28.532164148000,1.575000000000
28.539850433000,0.977000000000
28.547536718000,-0.301000000000
28.555223003000,-0.722000000000
28.562909288000,-0.193000000000
28.570595573000,-0.066000000000
28.578281858000,-0.252000000000
28.585968199000,-0.169000000000
28.593654484000,-0.090000000000
28.601340769000,-0.142000000000
28.609027054000,-0.124000000000
28.616713339000,-0.080000000000
28.624399624000,-0.078000000000
28.632085909000,-0.056000000000
28.639772194000,-0.022000000000
28.647458479000,-0.004000000000
28.655144764000,0.022000000000
28.662831049000,0.048000000000
28.670517334000,0.066000000000
28.678203619000,0.085000000000
28.685889904000,0.107000000000
28.693576189000,0.124000000000
28.701262474000,0.142000000000
28.708948759000,0.149000000000
28.716635044000,0.137000000000
28.724321329000,0.120000000000
28.732007614000,0.102000000000
28.739693899000,0.080000000000
28.747380184000,0.063000000000
28.755066469000,0.036000000000
28.762752754000,0.000000000000
28.770439039000,-0.041000000000
28.778125324000,-0.100000000000
28.785811609000,-0.161000000000
28.793497894000,-0.205000000000
28.801184179000,-0.242000000000
28.808870464000,-0.276000000000
28.816556749000,-0.291000000000
28.824243034000,-0.291000000000
28.831929319000,-0.276000000000
28.839615604000,-0.262000000000
28.847301889000,-0.254000000000
28.854988174000,-0.247000000000
28.862674459000,-0.240000000000
28.870360744000,-0.237000000000
28.878047029000,-0.220000000000
28.885733314000,-0.213000000000
28.893419599000,-0.220000000000
28.901105884000,-0.220000000000
28.908792169000,-0.208000000000
28.916478454000,-0.200000000000
28.924164739000,-0.205000000000
28.931851024000,-0.208000000000
28.939537309000,-0.203000000000
28.947223594000,-0.203000000000
28.954909879000,-0.213000000000
28.962596164000,-0.213000000000
28.970282449000,-0.205000000000
28.977968734000,-0.200000000000
28.985655019000,-0.186000000000
28.993341304000,-0.171000000000
29.001027589000,-0.169000000000
29.008713874000,-0.159000000000
29.016400159000,-0.154000000000
29.024086444000,-0.181000000000
29.031772729000,-0.208000000000
29.039459014000,-0.205000000000
29.047145299000,-0.193000000000
29.054831584000,-0.188000000000
29.062517869000,-0.186000000000
29.070204154000,-0.176000000000
29.077890439000,-0.178000000000
29.085576724000,-0.203000000000
29.093263009000,-0.269000000000
29.100949294000,-0.357000000000
29.108635579000,-0.200000000000
29.116321864000,0.438000000000
29.124008149000,1.210000000000
29.131694434000,1.508000000000
29.139380719000,0.825000000000
29.147067060000,-0.411000000000
29.154753763000,-0.703000000000
29.162440466000,-0.166000000000
29.170127169000,-0.088000000000
29.177813872000,-0.252000000000
29.185500575000,-0.159000000000
29.193187278000,-0.105000000000
29.200873981000,-0.154000000000
29.208560684000,-0.127000000000
29.216247387000,-0.083000000000
29.223934090000,-0.080000000000
29.231620793000,-0.061000000000
29.239307496000,-0.029000000000
29.246994199000,-0.012000000000
29.254680902000,0.007000000000
29.262367605000,0.034000000000
29.270054308000,0.056000000000
29.277741011000,0.073000000000
29.285427714000,0.093000000000
29.293114417000,0.112000000000
29.300801120000,0.122000000000
29.308487823000,0.120000000000
29.316174526000,0.110000000000
29.323861229000,0.095000000000
29.331547932000,0.075000000000
29.339234635000,0.051000000000
