time,LSB
0.000000000000,1.907000000000
0.007687052000,0.706000000000
0.015374104000,-0.595000000000
0.023061156000,-0.492000000000
0.030748208000,-0.039000000000
0.038435260000,-0.204000000000
0.046122312000,-0.285000000000
0.053809364000,-0.147000000000
0.061496416000,-0.160000000000
0.069183468000,-0.194000000000
0.076870520000,-0.135000000000
0.084557572000,-0.110000000000
0.092244624000,-0.115000000000
0.099931676000,-0.088000000000
0.107618728000,-0.059000000000
0.115305780000,-0.046000000000
0.122992832000,-0.022000000000
0.130679884000,0.007000000000
0.138366936000,0.032000000000
0.146053988000,0.059000000000
0.153741040000,0.096000000000
0.161428092000,0.132000000000
0.169115144000,0.172000000000
0.176802196000,0.214000000000
0.184489248000,0.256000000000
0.192176300000,0.292000000000
0.199863352000,0.320000000000
0.207550404000,0.334000000000
0.215237456000,0.337000000000
0.222924508000,0.329000000000
0.230611560000,0.310000000000
0.238298612000,0.280000000000
0.245985664000,0.226000000000
0.253672716000,0.145000000000
0.261359768000,0.041000000000
0.269046820000,-0.061000000000
0.276733872000,-0.150000000000
0.284420924000,-0.216000000000
0.292107976000,-0.263000000000
0.299795028000,-0.288000000000
0.307482080000,-0.297000000000
0.315169132000,-0.295000000000
0.322856184000,-0.288000000000
0.330543236000,-0.280000000000
0.338230288000,-0.268000000000
0.345917340000,-0.256000000000
0.353604392000,-0.243000000000
0.361291444000,-0.233000000000
0.368978496000,-0.221000000000
0.376665548000,-0.214000000000
0.384352600000,-0.206000000000
0.392039652000,-0.201000000000
0.399726704000,-0.196000000000
0.407413756000,-0.194000000000
0.415100826000,-0.189000000000
0.422787599000,-0.187000000000
0.430474372000,-0.187000000000
0.438161145000,-0.184000000000
0.445847918000,-0.182000000000
0.453534691000,-0.182000000000
0.461221464000,-0.182000000000
0.468908237000,-0.177000000000
0.476595010000,-0.177000000000
0.484281783000,-0.177000000000
0.491968556000,-0.172000000000
0.499655329000,-0.169000000000
0.507342102000,-0.167000000000
0.515028875000,-0.164000000000
0.522715648000,-0.160000000000
0.530402421000,-0.157000000000
0.538089194000,-0.155000000000
0.545775967000,-0.147000000000
0.553462740000,-0.142000000000
0.561149513000,-0.140000000000
0.568836286000,-0.140000000000
0.576523059000,-0.145000000000
0.584209832000,-0.147000000000
0.591896605000,-0.140000000000
0.599583378000,-0.120000000000
0.607270151000,-0.108000000000
0.614956924000,-0.100000000000
0.622643697000,-0.088000000000
0.630330470000,-0.076000000000
0.638017243000,-0.083000000000
0.645704016000,-0.113000000000
0.653390789000,-0.130000000000
0.661077562000,-0.125000000000
0.668764335000,-0.120000000000
0.676451108000,-0.115000000000
0.684137881000,-0.110000000000
0.691824654000,-0.108000000000
0.699511427000,-0.108000000000
0.707198200000,-0.108000000000
0.714884973000,-0.125000000000
0.722571746000,-0.179000000000
0.730258519000,-0.233000000000
0.737945292000,-0.081000000000
0.745632065000,0.489000000000
0.753318838000,1.329000000000
0.761005611000,1.969000000000
0.768692384000,1.558000000000
0.776379157000,0.066000000000
0.784065930000,-0.708000000000
0.791752703000,-0.258000000000
0.799439476000,-0.068000000000
0.807126249000,-0.288000000000
0.814813022000,-0.233000000000
0.822499795000,-0.137000000000
0.830186568000,-0.192000000000
0.837873341000,-0.182000000000
0.845560114000,-0.125000000000
0.853246887000,-0.123000000000
0.860933660000,-0.115000000000
0.868620433000,-0.081000000000
0.876307206000,-0.064000000000
0.883993979000,-0.046000000000
0.891680752000,-0.017000000000
0.899367525000,0.007000000000
0.907054298000,0.032000000000
0.914741071000,0.064000000000
0.922427844000,0.098000000000
0.930114617000,0.132000000000
0.937801390000,0.174000000000
0.945488163000,0.216000000000
0.953174936000,0.256000000000
0.960861709000,0.290000000000
0.968548482000,0.312000000000
0.976235288000,0.322000000000
0.983922409000,0.320000000000
0.991609530000,0.307000000000
0.999296651000,0.285000000000
1.006983772000,0.246000000000
1.014670893000,0.182000000000
1.022358014000,0.091000000000
1.030045135000,-0.012000000000
1.037732256000,-0.110000000000
1.045419377000,-0.189000000000
1.053106498000,-0.246000000000
1.060793619000,-0.283000000000
1.068480740000,-0.300000000000
1.076167861000,-0.305000000000
1.083854982000,-0.302000000000
1.091542103000,-0.295000000000
1.099229224000,-0.283000000000
1.106916345000,-0.270000000000
1.114603466000,-0.258000000000
1.122290587000,-0.246000000000
1.129977708000,-0.233000000000
1.137664829000,-0.224000000000
1.145351950000,-0.216000000000
1.153039071000,-0.209000000000
1.160726192000,-0.204000000000
1.168413313000,-0.201000000000
1.176100434000,-0.196000000000
1.183787555000,-0.194000000000
1.191474676000,-0.192000000000
1.199161797000,-0.192000000000
1.206848918000,-0.189000000000
1.214536039000,-0.187000000000
1.222223160000,-0.184000000000
1.229910281000,-0.182000000000
1.237597402000,-0.182000000000
1.245284523000,-0.179000000000
1.252971644000,-0.177000000000
1.260658765000,-0.174000000000
1.268345886000,-0.172000000000
1.276033007000,-0.167000000000
1.283720128000,-0.164000000000
1.291407249000,-0.160000000000
1.299094370000,-0.155000000000
1.306781491000,-0.150000000000
1.314468612000,-0.147000000000
1.322155733000,-0.142000000000
1.329842854000,-0.137000000000
1.337529975000,-0.137000000000
1.345217096000,-0.140000000000
1.352904217000,-0.140000000000
1.360591338000,-0.128000000000
1.368278459000,-0.108000000000
1.375965580000,-0.093000000000
1.383652701000,-0.086000000000
1.391339822000,-0.071000000000
1.399026943000,-0.066000000000
1.406714064000,-0.083000000000
1.414401185000,-0.110000000000
1.422088306000,-0.118000000000
1.429775427000,-0.110000000000
1.437462548000,-0.105000000000
1.445149669000,-0.103000000000
1.452836790000,-0.098000000000
1.460523911000,-0.096000000000
1.468211032000,-0.096000000000
1.475898153000,-0.098000000000
1.483585274000,-0.120000000000
1.491272395000,-0.179000000000
1.498959516000,-0.231000000000
1.506646637000,-0.051000000000
1.514333758000,0.553000000000
1.522020879000,1.405000000000
1.529708000000,1.996000000000
1.537395189000,1.472000000000
1.545082032000,-0.034000000000
1.552768875000,-0.681000000000
1.560455718000,-0.209000000000
1.568142561000,-0.086000000000
1.575829404000,-0.288000000000
1.583516247000,-0.211000000000
1.591203090000,-0.135000000000
1.598889933000,-0.189000000000
1.606576776000,-0.169000000000
1.614263619000,-0.118000000000
1.621950462000,-0.118000000000
1.629637305000,-0.105000000000
1.637324148000,-0.071000000000
1.645010991000,-0.054000000000
1.652697834000,-0.036000000000
1.660384677000,-0.007000000000
1.668071520000,0.017000000000
1.675758363000,0.044000000000
1.683445206000,0.076000000000
1.691132049000,0.110000000000
1.698818892000,0.147000000000
1.706505735000,0.189000000000
1.714192578000,0.231000000000
1.721879421000,0.270000000000
1.729566264000,0.305000000000
1.737253107000,0.327000000000
1.744939950000,0.337000000000
1.752626793000,0.334000000000
1.760313636000,0.322000000000
1.768000479000,0.300000000000
1.775687322000,0.260000000000
1.783374165000,0.196000000000
1.791061008000,0.103000000000
1.798747851000,0.000000000000
1.806434694000,-0.096000000000
1.814121537000,-0.172000000000
1.821808380000,-0.226000000000
1.829495223000,-0.260000000000
1.837182066000,-0.278000000000
1.844868909000,-0.280000000000
1.852555752000,-0.278000000000
1.860242595000,-0.270000000000
1.867929438000,-0.258000000000
1.875616281000,-0.243000000000
1.883303124000,-0.231000000000
1.890989967000,-0.224000000000
1.898676810000,-0.214000000000
1.906363653000,-0.201000000000
1.914050496000,-0.192000000000
1.921737339000,-0.184000000000
1.929424182000,-0.179000000000
1.937111025000,-0.177000000000
1.944797868000,-0.172000000000
1.952484711000,-0.167000000000
1.960171554000,-0.164000000000
1.967858397000,-0.160000000000
1.975545240000,-0.157000000000
1.983232083000,-0.160000000000
1.990918926000,-0.160000000000
1.998605769000,-0.160000000000
2.006292612000,-0.155000000000
2.013979455000,-0.152000000000
2.021666298000,-0.152000000000
2.029353141000,-0.152000000000
2.037039984000,-0.147000000000
2.044726827000,-0.142000000000
2.052413670000,-0.137000000000
2.060100513000,-0.135000000000
2.067787356000,-0.132000000000
2.075474199000,-0.130000000000
2.083161042000,-0.123000000000
2.090847885000,-0.118000000000
2.098534742000,-0.118000000000
2.106221724000,-0.120000000000
2.113908706000,-0.113000000000
2.121595688000,-0.110000000000
2.129282670000,-0.108000000000
2.136969652000,-0.100000000000
2.144656634000,-0.088000000000
2.152343616000,-0.068000000000
2.160030598000,-0.054000000000
2.167717580000,-0.056000000000
2.175404562000,-0.059000000000
2.183091544000,-0.066000000000
2.190778526000,-0.093000000000
2.198465508000,-0.113000000000
2.206152490000,-0.103000000000
2.213839472000,-0.093000000000
2.221526454000,-0.091000000000
2.229213436000,-0.083000000000
2.236900418000,-0.081000000000
2.244587400000,-0.086000000000
2.252274382000,-0.091000000000
2.259961364000,-0.108000000000
2.267648346000,-0.162000000000
2.275335328000,-0.221000000000
2.283022310000,-0.068000000000
2.290709292000,0.514000000000
2.298396274000,1.361000000000
2.306083256000,1.989000000000
2.313770238000,1.575000000000
2.321457220000,0.096000000000
2.329144202000,-0.684000000000
2.336831184000,-0.251000000000
2.344518166000,-0.061000000000
2.352205148000,-0.268000000000
2.359892130000,-0.211000000000
2.367579112000,-0.120000000000
2.375266094000,-0.177000000000
2.382953076000,-0.167000000000
2.390640058000,-0.105000000000
2.398327040000,-0.098000000000
2.406014022000,-0.091000000000
2.413701004000,-0.061000000000
2.421387986000,-0.044000000000
2.429074968000,-0.022000000000
2.436761950000,0.009000000000
2.444448932000,0.029000000000
2.452135914000,0.051000000000
2.459822896000,0.091000000000
2.467509878000,0.130000000000
2.475196860000,0.167000000000
2.482883842000,0.209000000000
2.490570824000,0.253000000000
2.498257806000,0.292000000000
2.505944788000,0.324000000000
2.513631770000,0.349000000000
2.521318752000,0.359000000000
2.529005734000,0.359000000000
2.536692716000,0.352000000000
2.544379698000,0.334000000000
2.552066680000,0.292000000000
2.559753662000,0.221000000000
2.567440644000,0.123000000000
2.575127626000,0.017000000000
2.582814608000,-0.083000000000
2.590501590000,-0.172000000000
2.598188572000,-0.238000000000
2.605875554000,-0.275000000000
2.613562536000,-0.285000000000
2.621249518000,-0.283000000000
2.628936500000,-0.285000000000
2.636623482000,-0.288000000000
2.644310464000,-0.278000000000
2.651997446000,-0.263000000000
2.659684465000,-0.248000000000
2.667371168000,-0.231000000000
2.675057871000,-0.224000000000
2.682744574000,-0.214000000000
2.690431277000,-0.201000000000
2.698117980000,-0.187000000000
2.705804683000,-0.177000000000
2.713491386000,-0.182000000000
2.721178089000,-0.189000000000
2.728864792000,-0.182000000000
2.736551495000,-0.177000000000
2.744238198000,-0.169000000000
2.751924901000,-0.164000000000
2.759611604000,-0.174000000000
2.767298307000,-0.177000000000
2.774985010000,-0.157000000000
2.782671713000,-0.157000000000
2.790358416000,-0.167000000000
2.798045119000,-0.162000000000
2.805731822000,-0.157000000000
2.813418525000,-0.155000000000
2.821105228000,-0.152000000000
2.828791931000,-0.152000000000
2.836478634000,-0.150000000000
2.844165337000,-0.142000000000
2.851852040000,-0.135000000000
2.859538743000,-0.128000000000
2.867225446000,-0.128000000000
2.874912149000,-0.137000000000
2.882598852000,-0.130000000000
2.890285555000,-0.120000000000
2.897972258000,-0.123000000000
2.905658961000,-0.108000000000
2.913345664000,-0.081000000000
2.921032367000,-0.078000000000
2.928719070000,-0.078000000000
2.936405773000,-0.066000000000
2.944092476000,-0.076000000000
2.951779179000,-0.113000000000
2.959465882000,-0.125000000000
2.967152585000,-0.105000000000
2.974839288000,-0.096000000000
2.982525991000,-0.105000000000
2.990212694000,-0.103000000000
2.997899397000,-0.088000000000
3.005586100000,-0.086000000000
3.013272803000,-0.096000000000
3.020959506000,-0.115000000000
3.028646209000,-0.162000000000
3.036332912000,-0.216000000000
3.044019615000,-0.054000000000
3.051706318000,0.566000000000
3.059393021000,1.420000000000
3.067079724000,1.952000000000
3.074766427000,1.410000000000
3.082453130000,-0.044000000000
3.090139833000,-0.681000000000
3.097826536000,-0.216000000000
3.105513239000,-0.068000000000
3.113199942000,-0.258000000000
3.120886645000,-0.192000000000
3.128573348000,-0.125000000000
3.136260051000,-0.172000000000
3.143946754000,-0.147000000000
3.151633457000,-0.100000000000
3.159320160000,-0.093000000000
3.167006863000,-0.071000000000
3.174693566000,-0.044000000000
3.182380269000,-0.029000000000
3.190066972000,-0.012000000000
3.197753675000,0.014000000000
3.205440378000,0.044000000000
3.213127081000,0.076000000000
3.220813844000,0.105000000000
3.228500965000,0.140000000000
3.236188086000,0.184000000000
3.243875207000,0.231000000000
3.251562328000,0.275000000000
3.259249449000,0.320000000000
3.266936570000,0.352000000000
3.274623691000,0.369000000000
3.282310812000,0.379000000000
3.289997933000,0.376000000000
3.297685054000,0.359000000000
3.305372175000,0.337000000000
3.313059296000,0.288000000000
3.320746417000,0.206000000000
3.328433538000,0.103000000000
3.336120659000,-0.004000000000
3.343807780000,-0.110000000000
3.351494901000,-0.201000000000
3.359182022000,-0.258000000000
3.366869143000,-0.288000000000
3.374556264000,-0.310000000000
3.382243385000,-0.317000000000
3.389930506000,-0.305000000000
3.397617627000,-0.290000000000
3.405304748000,-0.288000000000
3.412991869000,-0.283000000000
3.420678990000,-0.273000000000
3.428366111000,-0.260000000000
3.436053232000,-0.241000000000
3.443740353000,-0.224000000000
3.451427474000,-0.219000000000
3.459114595000,-0.214000000000
3.466801716000,-0.201000000000
3.474488837000,-0.192000000000
3.482175958000,-0.196000000000
3.489863079000,-0.194000000000
3.497550200000,-0.187000000000
3.505237321000,-0.187000000000
3.512924442000,-0.187000000000
3.520611563000,-0.179000000000
3.528298684000,-0.179000000000
3.535985805000,-0.187000000000
3.543672926000,-0.189000000000
3.551360047000,-0.182000000000
3.559047168000,-0.174000000000
3.566734289000,-0.174000000000
3.574421410000,-0.174000000000
3.582108531000,-0.169000000000
3.589795652000,-0.162000000000
3.597482773000,-0.160000000000
3.605169894000,-0.162000000000
3.612857015000,-0.167000000000
3.620544136000,-0.167000000000
3.628231257000,-0.157000000000
3.635918378000,-0.140000000000
3.643605499000,-0.130000000000
3.651292620000,-0.123000000000
3.658979741000,-0.108000000000
3.666666862000,-0.093000000000
3.674353983000,-0.103000000000
3.682041104000,-0.132000000000
3.689728225000,-0.150000000000
3.697415346000,-0.145000000000
3.705102467000,-0.135000000000
3.712789588000,-0.132000000000
3.720476709000,-0.130000000000
3.728163830000,-0.128000000000
3.735850951000,-0.123000000000
3.743538072000,-0.118000000000
3.751225193000,-0.130000000000
3.758912314000,-0.174000000000
3.766599435000,-0.241000000000
3.774286556000,-0.187000000000
3.781973741000,0.278000000000
3.789660444000,1.115000000000
3.797347147000,1.858000000000
3.805033850000,1.762000000000
3.812720553000,0.443000000000
3.820407256000,-0.686000000000
3.828093959000,-0.438000000000
3.835780662000,-0.066000000000
3.843467365000,-0.258000000000
3.851154068000,-0.275000000000
3.858840771000,-0.145000000000
3.866527474000,-0.184000000000
3.874214177000,-0.201000000000
3.881900880000,-0.137000000000
3.889587583000,-0.123000000000
3.897274286000,-0.120000000000
3.904960989000,-0.091000000000
3.912647692000,-0.068000000000
3.920334395000,-0.056000000000
3.928021098000,-0.029000000000
3.935707801000,0.002000000000
3.943394504000,0.029000000000
3.951081207000,0.059000000000
3.958767910000,0.096000000000
3.966454613000,0.132000000000
3.974141316000,0.174000000000
3.981828019000,0.219000000000
3.989514722000,0.263000000000
3.997201425000,0.302000000000
4.004888128000,0.327000000000
4.012574831000,0.339000000000
4.020261534000,0.339000000000
4.027948237000,0.324000000000
4.035634940000,0.300000000000
4.043321643000,0.260000000000
4.051008346000,0.196000000000
4.058695049000,0.100000000000
4.066381752000,-0.009000000000
4.074068455000,-0.113000000000
4.081755158000,-0.196000000000
4.089441861000,-0.258000000000
4.097128564000,-0.297000000000
4.104815267000,-0.315000000000
4.112501970000,-0.320000000000
4.120188673000,-0.317000000000
4.127875376000,-0.310000000000
4.135562079000,-0.297000000000
4.143248782000,-0.285000000000
4.150935485000,-0.273000000000
4.158622188000,-0.260000000000
4.166308891000,-0.246000000000
4.173995594000,-0.236000000000
4.181682297000,-0.228000000000
4.189369000000,-0.216000000000
4.197055703000,-0.209000000000
4.204742406000,-0.206000000000
4.212429109000,-0.204000000000
4.220115812000,-0.196000000000
4.227802515000,-0.194000000000
4.235489218000,-0.192000000000
4.243175921000,-0.189000000000
4.250862624000,-0.187000000000
4.258549327000,-0.187000000000
4.266236030000,-0.187000000000
4.273922733000,-0.187000000000
4.281609436000,-0.182000000000
4.289296139000,-0.182000000000
4.296982842000,-0.179000000000
4.304669545000,-0.177000000000
4.312356248000,-0.172000000000
4.320042951000,-0.169000000000
4.327729654000,-0.164000000000
4.335416357000,-0.160000000000
4.343103120000,-0.155000000000
4.350790241000,-0.150000000000
4.358477362000,-0.147000000000
4.366164483000,-0.145000000000
4.373851604000,-0.140000000000
4.381538725000,-0.135000000000
4.389225846000,-0.132000000000
4.396912967000,-0.137000000000
4.404600088000,-0.137000000000
4.412287209000,-0.130000000000
4.419974330000,-0.113000000000
4.427661451000,-0.098000000000
4.435348572000,-0.091000000000
4.443035693000,-0.081000000000
4.450722814000,-0.071000000000
4.458409935000,-0.083000000000
4.466097056000,-0.113000000000
4.473784177000,-0.128000000000
4.481471298000,-0.120000000000
4.489158419000,-0.113000000000
4.496845540000,-0.110000000000
4.504532661000,-0.108000000000
4.512219782000,-0.105000000000
4.519906903000,-0.103000000000
4.527594024000,-0.105000000000
4.535281145000,-0.125000000000
4.542968266000,-0.184000000000
4.550655387000,-0.231000000000
4.558342508000,-0.041000000000
4.566029629000,0.573000000000
4.573716750000,1.430000000000
4.581403871000,2.018000000000
4.589090992000,1.472000000000
4.596778113000,-0.059000000000
4.604465234000,-0.706000000000
4.612152355000,-0.206000000000
4.619839476000,-0.081000000000
4.627526597000,-0.300000000000
4.635213718000,-0.224000000000
4.642900839000,-0.140000000000
4.650587960000,-0.196000000000
4.658275081000,-0.179000000000
4.665962202000,-0.123000000000
4.673649323000,-0.123000000000
4.681336444000,-0.115000000000
4.689023565000,-0.081000000000
4.696710686000,-0.061000000000
4.704397807000,-0.044000000000
4.712084928000,-0.014000000000
4.719772049000,0.012000000000
4.727459170000,0.039000000000
4.735146291000,0.071000000000
4.742833412000,0.105000000000
4.750520533000,0.145000000000
4.758207654000,0.184000000000
4.765894775000,0.228000000000
4.773581896000,0.270000000000
4.781269017000,0.307000000000
4.788956138000,0.332000000000
4.796643259000,0.342000000000
4.804330380000,0.342000000000
4.812017501000,0.329000000000
4.819704622000,0.307000000000
4.827391743000,0.268000000000
4.835078864000,0.201000000000
4.842765985000,0.105000000000
4.850453106000,-0.002000000000
4.858140227000,-0.100000000000
4.865827348000,-0.182000000000
4.873514469000,-0.243000000000
4.881201590000,-0.280000000000
4.888888711000,-0.300000000000
4.896575832000,-0.305000000000
4.904263021000,-0.302000000000
4.911949864000,-0.295000000000
4.919636707000,-0.285000000000
4.927323550000,-0.273000000000
4.935010393000,-0.258000000000
4.942697236000,-0.246000000000
4.950384079000,-0.236000000000
4.958070922000,-0.226000000000
4.965757765000,-0.216000000000
4.973444608000,-0.211000000000
4.981131451000,-0.204000000000
4.988818294000,-0.199000000000
4.996505137000,-0.196000000000
5.004191980000,-0.194000000000
5.011878823000,-0.192000000000
5.019565666000,-0.189000000000
5.027252509000,-0.187000000000
5.034939352000,-0.184000000000
5.042626195000,-0.184000000000
5.050313038000,-0.182000000000
5.057999881000,-0.179000000000
5.065686724000,-0.177000000000
5.073373567000,-0.177000000000
5.081060410000,-0.174000000000
5.088747253000,-0.169000000000
5.096434096000,-0.167000000000
5.104120939000,-0.164000000000
5.111807782000,-0.160000000000
5.119494625000,-0.155000000000
5.127181468000,-0.150000000000
5.134868311000,-0.147000000000
5.142555154000,-0.142000000000
5.150241997000,-0.137000000000
5.157928840000,-0.135000000000
5.165615683000,-0.130000000000
5.173302526000,-0.125000000000
5.180989369000,-0.120000000000
5.188676212000,-0.123000000000
5.196363055000,-0.125000000000
5.204049898000,-0.128000000000
5.211736741000,-0.118000000000
5.219423584000,-0.103000000000
5.227110427000,-0.088000000000
5.234797270000,-0.083000000000
5.242484113000,-0.073000000000
5.250170956000,-0.061000000000
5.257857799000,-0.071000000000
5.265544642000,-0.098000000000
5.273231485000,-0.115000000000
5.280918328000,-0.113000000000
5.288605171000,-0.105000000000
5.296292014000,-0.103000000000
5.303978857000,-0.098000000000
5.311665700000,-0.098000000000
5.319352543000,-0.096000000000
5.327039386000,-0.096000000000
5.334726229000,-0.113000000000
5.342413072000,-0.162000000000
5.350099915000,-0.221000000000
5.357786758000,-0.105000000000
5.365473601000,0.416000000000
5.373160444000,1.238000000000
5.380847287000,1.947000000000
5.388534130000,1.713000000000
5.396220973000,0.268000000000
5.403907816000,-0.696000000000
5.411594659000,-0.320000000000
5.419281502000,-0.044000000000
5.426968345000,-0.270000000000
5.434655188000,-0.253000000000
5.442342031000,-0.137000000000
5.450028874000,-0.182000000000
5.457715717000,-0.187000000000
5.465402574000,-0.128000000000
5.473089556000,-0.120000000000
5.480776538000,-0.115000000000
5.488463520000,-0.083000000000
5.496150502000,-0.061000000000
5.503837484000,-0.046000000000
5.511524466000,-0.019000000000
5.519211448000,0.007000000000
5.526898430000,0.032000000000
5.534585412000,0.061000000000
5.542272394000,0.098000000000
5.549959376000,0.135000000000
5.557646358000,0.172000000000
5.565333340000,0.214000000000
5.573020322000,0.258000000000
5.580707304000,0.295000000000
5.588394286000,0.322000000000
5.596081268000,0.337000000000
5.603768250000,0.337000000000
5.611455232000,0.327000000000
5.619142214000,0.307000000000
5.626829196000,0.275000000000
5.634516178000,0.219000000000
5.642203160000,0.132000000000
5.649890142000,0.032000000000
5.657577124000,-0.071000000000
5.665264106000,-0.160000000000
5.672951088000,-0.224000000000
5.680638070000,-0.265000000000
5.688325052000,-0.290000000000
5.696012034000,-0.300000000000
5.703699016000,-0.297000000000
5.711385998000,-0.290000000000
5.719072980000,-0.280000000000
5.726759962000,-0.268000000000
5.734446944000,-0.258000000000
5.742133926000,-0.246000000000
5.749820908000,-0.233000000000
5.757507890000,-0.224000000000
5.765194872000,-0.214000000000
5.772881854000,-0.206000000000
5.780568836000,-0.201000000000
5.788255818000,-0.196000000000
5.795942800000,-0.192000000000
5.803629782000,-0.189000000000
5.811316764000,-0.189000000000
5.819003746000,-0.184000000000
5.826690728000,-0.182000000000
5.834377710000,-0.182000000000
5.842064692000,-0.179000000000
5.849751674000,-0.177000000000
5.857438656000,-0.177000000000
5.865125638000,-0.174000000000
5.872812620000,-0.172000000000
5.880499602000,-0.169000000000
5.888186584000,-0.167000000000
5.895873566000,-0.162000000000
5.903560548000,-0.160000000000
5.911247530000,-0.157000000000
5.918934512000,-0.155000000000
5.926621494000,-0.150000000000
5.934308476000,-0.145000000000
5.941995458000,-0.142000000000
5.949682440000,-0.137000000000
5.957369422000,-0.132000000000
5.965056404000,-0.130000000000
5.972743386000,-0.128000000000
5.980430368000,-0.123000000000
5.988117350000,-0.120000000000
5.995804332000,-0.118000000000
6.003491314000,-0.120000000000
6.011178296000,-0.120000000000
6.018865278000,-0.118000000000
6.026552297000,-0.108000000000
6.034239279000,-0.086000000000
6.041926261000,-0.061000000000
6.049613243000,-0.056000000000
6.057300225000,-0.061000000000
6.064987207000,-0.066000000000
6.072674189000,-0.081000000000
6.080361171000,-0.113000000000
6.088048153000,-0.125000000000
6.095735135000,-0.110000000000
6.103422117000,-0.100000000000
6.111109099000,-0.098000000000
6.118796081000,-0.096000000000
6.126483063000,-0.093000000000
6.134170045000,-0.091000000000
6.141857027000,-0.093000000000
6.149544009000,-0.110000000000
6.157230991000,-0.164000000000
6.164917973000,-0.228000000000
6.172604955000,-0.115000000000
6.180291937000,0.416000000000
6.187978919000,1.248000000000
6.195665901000,1.954000000000
6.203352883000,1.730000000000
6.211039865000,0.302000000000
6.218726847000,-0.684000000000
6.226413829000,-0.334000000000
6.234100811000,-0.046000000000
6.241787793000,-0.258000000000
6.249474775000,-0.246000000000
6.257161757000,-0.132000000000
6.264848739000,-0.182000000000
6.272535721000,-0.184000000000
6.280222703000,-0.118000000000
6.287909685000,-0.110000000000
6.295596667000,-0.113000000000
6.303283649000,-0.076000000000
6.310970631000,-0.049000000000
6.318657613000,-0.036000000000
6.326344595000,-0.012000000000
6.334031577000,0.019000000000
6.341718559000,0.046000000000
6.349405541000,0.073000000000
6.357092523000,0.108000000000
6.364779505000,0.147000000000
6.372466487000,0.184000000000
6.380153469000,0.226000000000
6.387840451000,0.275000000000
6.395527433000,0.320000000000
6.403214415000,0.347000000000
6.410901397000,0.364000000000
6.418588379000,0.364000000000
6.426275361000,0.349000000000
6.433962343000,0.329000000000
6.441649325000,0.300000000000
6.449336307000,0.241000000000
6.457023289000,0.157000000000
6.464710271000,0.054000000000
6.472397253000,-0.049000000000
6.480084235000,-0.137000000000
6.487771217000,-0.214000000000
6.495458199000,-0.270000000000
6.503145181000,-0.292000000000
6.510832163000,-0.295000000000
6.518519145000,-0.292000000000
6.526206127000,-0.292000000000
6.533893109000,-0.283000000000
6.541580091000,-0.265000000000
6.549267073000,-0.253000000000
6.556954055000,-0.246000000000
6.564641037000,-0.236000000000
6.572328019000,-0.219000000000
6.580015001000,-0.206000000000
6.587702024000,-0.201000000000
6.595388867000,-0.194000000000
6.603075710000,-0.189000000000
6.610762553000,-0.189000000000
6.618449396000,-0.187000000000
6.626136239000,-0.177000000000
6.633823082000,-0.172000000000
6.641509925000,-0.179000000000
6.649196768000,-0.179000000000
6.656883611000,-0.172000000000
6.664570454000,-0.172000000000
6.672257297000,-0.172000000000
6.679944140000,-0.164000000000
6.687630983000,-0.167000000000
6.695317826000,-0.164000000000
6.703004669000,-0.157000000000
6.710691512000,-0.157000000000
6.718378355000,-0.157000000000
6.726065198000,-0.150000000000
6.733752041000,-0.145000000000
6.741438884000,-0.147000000000
6.749125727000,-0.140000000000
6.756812570000,-0.137000000000
6.764499413000,-0.137000000000
6.772186256000,-0.125000000000
6.779873099000,-0.118000000000
6.787559942000,-0.123000000000
6.795246785000,-0.125000000000
6.802933628000,-0.123000000000
6.810620471000,-0.118000000000
6.818307314000,-0.096000000000
6.825994157000,-0.064000000000
6.833681000000,-0.049000000000
6.841367843000,-0.054000000000
6.849054686000,-0.061000000000
6.856741529000,-0.081000000000
6.864428372000,-0.110000000000
6.872115215000,-0.115000000000
6.879802058000,-0.108000000000
6.887488901000,-0.110000000000
6.895175744000,-0.105000000000
6.902862587000,-0.091000000000
6.910549430000,-0.088000000000
6.918236273000,-0.096000000000
6.925923116000,-0.096000000000
6.933609959000,-0.105000000000
6.941296802000,-0.150000000000
6.948983645000,-0.228000000000
6.956670488000,-0.167000000000
6.964357331000,0.302000000000
6.972044174000,1.120000000000
6.979731017000,1.856000000000
6.987417860000,1.787000000000
6.995104703000,0.502000000000
7.002791546000,-0.637000000000
7.010478389000,-0.423000000000
7.018165232000,-0.049000000000
7.025852075000,-0.226000000000
7.033538918000,-0.248000000000
7.041225761000,-0.118000000000
7.048912604000,-0.147000000000
7.056599447000,-0.164000000000
7.064286290000,-0.108000000000
7.071973133000,-0.100000000000
7.079659976000,-0.103000000000
7.087346819000,-0.071000000000
7.095033662000,-0.041000000000
7.102720505000,-0.022000000000
7.110407348000,0.004000000000
7.118094191000,0.036000000000
7.125781034000,0.068000000000
7.133467877000,0.093000000000
7.141154720000,0.120000000000
7.148841573000,0.157000000000
7.156528276000,0.196000000000
7.164214979000,0.248000000000
7.171901682000,0.302000000000
7.179588385000,0.332000000000
7.187275088000,0.359000000000
7.194961791000,0.388000000000
7.202648494000,0.393000000000
7.210335197000,0.376000000000
7.218021900000,0.352000000000
7.225708603000,0.312000000000
7.233395306000,0.251000000000
7.241082009000,0.164000000000
7.248768712000,0.056000000000
7.256455415000,-0.059000000000
7.264142118000,-0.152000000000
7.271828821000,-0.216000000000
7.279515524000,-0.263000000000
7.287202227000,-0.292000000000
7.294888930000,-0.302000000000
7.302575633000,-0.300000000000
7.310262336000,-0.300000000000
7.317949039000,-0.295000000000
7.325635742000,-0.275000000000
7.333322445000,-0.263000000000
7.341009148000,-0.260000000000
7.348695851000,-0.238000000000
7.356382554000,-0.216000000000
7.364069257000,-0.214000000000
7.371755960000,-0.211000000000
7.379442663000,-0.199000000000
7.387129366000,-0.189000000000
7.394816069000,-0.184000000000
7.402502772000,-0.182000000000
7.410189475000,-0.182000000000
7.417876178000,-0.174000000000
7.425562881000,-0.169000000000
7.433249584000,-0.174000000000
7.440936287000,-0.177000000000
7.448622990000,-0.172000000000
7.456309693000,-0.167000000000
7.463996396000,-0.162000000000
7.471683099000,-0.164000000000
7.479369802000,-0.162000000000
7.487056505000,-0.164000000000
7.494743208000,-0.160000000000
7.502429911000,-0.150000000000
7.510116614000,-0.147000000000
7.517803317000,-0.145000000000
7.525490020000,-0.137000000000
7.533176723000,-0.130000000000
7.540863426000,-0.132000000000
7.548550129000,-0.140000000000
7.556236832000,-0.140000000000
7.563923535000,-0.128000000000
7.571610238000,-0.110000000000
7.579296941000,-0.091000000000
7.586983644000,-0.083000000000
7.594670347000,-0.073000000000
7.602357050000,-0.061000000000
7.610043753000,-0.073000000000
7.617730456000,-0.105000000000
7.625417159000,-0.120000000000
7.633103862000,-0.108000000000
7.640790565000,-0.100000000000
7.648477268000,-0.100000000000
7.656163971000,-0.096000000000
7.663850674000,-0.088000000000
7.671537377000,-0.091000000000
7.679224080000,-0.091000000000
7.686910783000,-0.100000000000
7.694597486000,-0.147000000000
7.702284189000,-0.214000000000
7.709970952000,-0.110000000000
7.717658073000,0.430000000000
7.725345194000,1.282000000000
7.733032315000,1.959000000000
7.740719436000,1.686000000000
7.748406557000,0.256000000000
7.756093678000,-0.686000000000
7.763780799000,-0.307000000000
7.771467920000,-0.029000000000
7.779155041000,-0.246000000000
7.786842162000,-0.219000000000
7.794529283000,-0.105000000000
7.802216404000,-0.152000000000
7.809903525000,-0.155000000000
7.817590646000,-0.093000000000
7.825277767000,-0.086000000000
7.832964888000,-0.083000000000
7.840652009000,-0.049000000000
7.848339130000,-0.027000000000
7.856026251000,-0.012000000000
7.863713372000,0.012000000000
7.871400493000,0.041000000000
7.879087614000,0.068000000000
7.886774735000,0.100000000000
7.894461856000,0.135000000000
7.902148977000,0.174000000000
7.909836098000,0.216000000000
7.917523219000,0.260000000000
7.925210340000,0.305000000000
7.932897461000,0.342000000000
7.940584582000,0.369000000000
7.948271703000,0.381000000000
7.955958824000,0.381000000000
7.963645945000,0.369000000000
7.971333066000,0.344000000000
7.979020187000,0.307000000000
7.986707308000,0.243000000000
7.994394429000,0.150000000000
8.002081550000,0.039000000000
8.009768671000,-0.061000000000
8.017455792000,-0.145000000000
8.025142913000,-0.209000000000
8.032830034000,-0.248000000000
8.040517155000,-0.268000000000
8.048204276000,-0.273000000000
8.055891397000,-0.273000000000
8.063578518000,-0.265000000000
8.071265639000,-0.253000000000
8.078952760000,-0.241000000000
8.086639881000,-0.228000000000
8.094327002000,-0.219000000000
8.102014123000,-0.206000000000
8.109701244000,-0.194000000000
8.117388365000,-0.184000000000
8.125075486000,-0.177000000000
8.132762607000,-0.172000000000
8.140449728000,-0.164000000000
8.148136849000,-0.160000000000
8.155823970000,-0.155000000000
8.163511091000,-0.152000000000
8.171198212000,-0.152000000000
8.178885333000,-0.150000000000
8.186572454000,-0.147000000000
8.194259575000,-0.150000000000
8.201946696000,-0.147000000000
8.209633817000,-0.145000000000
8.217320938000,-0.145000000000
8.225008059000,-0.145000000000
8.232695180000,-0.142000000000
8.240382301000,-0.140000000000
8.248069422000,-0.137000000000
8.255756543000,-0.132000000000
8.263443664000,-0.128000000000
8.271130853000,-0.125000000000
8.278817696000,-0.120000000000
8.286504539000,-0.115000000000
8.294191382000,-0.113000000000
8.301878225000,-0.110000000000
8.309565068000,-0.105000000000
8.317251911000,-0.100000000000
8.324938754000,-0.098000000000
8.332625597000,-0.096000000000
8.340312440000,-0.091000000000
8.347999283000,-0.093000000000
8.355686126000,-0.098000000000
8.363372969000,-0.100000000000
8.371059812000,-0.091000000000
8.378746655000,-0.073000000000
8.386433498000,-0.061000000000
8.394120341000,-0.056000000000
8.401807184000,-0.044000000000
8.409494027000,-0.036000000000
8.417180870000,-0.049000000000
8.424867713000,-0.078000000000
8.432554556000,-0.096000000000
8.440241399000,-0.086000000000
8.447928242000,-0.081000000000
8.455615085000,-0.081000000000
8.463301928000,-0.078000000000
8.470988771000,-0.073000000000
8.478675614000,-0.071000000000
8.486362457000,-0.078000000000
8.494049300000,-0.100000000000
8.501736143000,-0.157000000000
8.509422986000,-0.196000000000
8.517109829000,0.009000000000
8.524796672000,0.635000000000
8.532483515000,1.484000000000
8.540170358000,2.040000000000
8.547857201000,1.437000000000
8.555544044000,-0.098000000000
8.563230887000,-0.672000000000
8.570917730000,-0.157000000000
8.578604573000,-0.064000000000
8.586291416000,-0.280000000000
8.593978259000,-0.196000000000
8.601665102000,-0.123000000000
8.609351945000,-0.182000000000
8.617038788000,-0.157000000000
8.624725631000,-0.105000000000
8.632412474000,-0.108000000000
8.640099317000,-0.096000000000
8.647786160000,-0.061000000000
8.655473003000,-0.044000000000
8.663159846000,-0.029000000000
8.670846689000,0.000000000000
8.678533532000,0.027000000000
8.686220375000,0.051000000000
8.693907218000,0.081000000000
8.701594061000,0.118000000000
8.709280904000,0.155000000000
8.716967747000,0.194000000000
8.724654590000,0.236000000000
8.732341433000,0.278000000000
8.740028276000,0.315000000000
8.747715119000,0.339000000000
8.755401962000,0.352000000000
8.763088805000,0.349000000000
8.770775648000,0.339000000000
8.778462491000,0.317000000000
8.786149334000,0.283000000000
8.793836177000,0.221000000000
8.801523020000,0.132000000000
8.809209863000,0.027000000000
8.816896706000,-0.073000000000
8.824583549000,-0.157000000000
8.832270406000,-0.221000000000
8.839957388000,-0.260000000000
8.847644370000,-0.283000000000
8.855331352000,-0.290000000000
8.863018334000,-0.288000000000
8.870705316000,-0.280000000000
8.878392298000,-0.270000000000
8.886079280000,-0.258000000000
8.893766262000,-0.246000000000
8.901453244000,-0.233000000000
8.909140226000,-0.224000000000
8.916827208000,-0.214000000000
8.924514190000,-0.204000000000
8.932201172000,-0.199000000000
8.939888154000,-0.194000000000
8.947575136000,-0.192000000000
8.955262118000,-0.189000000000
8.962949100000,-0.187000000000
8.970636082000,-0.184000000000
8.978323064000,-0.179000000000
8.986010046000,-0.179000000000
8.993697028000,-0.177000000000
9.001384010000,-0.174000000000
9.009070992000,-0.174000000000
9.016757974000,-0.172000000000
9.024444956000,-0.172000000000
9.032131938000,-0.169000000000
9.039818920000,-0.167000000000
9.047505902000,-0.164000000000
9.055192884000,-0.162000000000
9.062879866000,-0.157000000000
9.070566848000,-0.155000000000
9.078253830000,-0.150000000000
9.085940812000,-0.147000000000
9.093627794000,-0.142000000000
9.101314776000,-0.137000000000
9.109001758000,-0.135000000000
9.116688740000,-0.132000000000
9.124375722000,-0.128000000000
9.132062704000,-0.123000000000
9.139749686000,-0.120000000000
9.147436668000,-0.115000000000
9.155123650000,-0.113000000000
9.162810632000,-0.110000000000
9.170497614000,-0.108000000000
9.178184596000,-0.108000000000
9.185871578000,-0.113000000000
9.193558560000,-0.110000000000
9.201245542000,-0.103000000000
9.208932524000,-0.083000000000
9.216619506000,-0.066000000000
9.224306488000,-0.059000000000
9.231993470000,-0.056000000000
9.239680452000,-0.054000000000
9.247367434000,-0.066000000000
9.255054416000,-0.098000000000
9.262741398000,-0.113000000000
9.270428380000,-0.105000000000
9.278115362000,-0.098000000000
9.285802344000,-0.098000000000
9.293489326000,-0.093000000000
9.301176308000,-0.093000000000
9.308863290000,-0.091000000000
9.316550272000,-0.093000000000
9.324237254000,-0.108000000000
9.331924236000,-0.160000000000
9.339611218000,-0.221000000000
9.347298200000,-0.100000000000
9.354985182000,0.428000000000
9.362672164000,1.255000000000
9.370359146000,1.954000000000
9.378046128000,1.698000000000
9.385733110000,0.243000000000
9.393420129000,-0.694000000000
9.401107111000,-0.302000000000
9.408794093000,-0.041000000000
9.416481075000,-0.270000000000
9.424168057000,-0.251000000000
9.431855039000,-0.137000000000
9.439542021000,-0.184000000000
9.447229003000,-0.187000000000
9.454915985000,-0.128000000000
9.462602967000,-0.123000000000
9.470289949000,-0.120000000000
9.477976931000,-0.086000000000
9.485663913000,-0.066000000000
9.493350895000,-0.051000000000
9.501037877000,-0.024000000000
9.508724859000,0.000000000000
9.516411841000,0.024000000000
9.524098823000,0.054000000000
9.531785805000,0.086000000000
9.539472787000,0.123000000000
9.547159769000,0.162000000000
9.554846751000,0.201000000000
9.562533733000,0.241000000000
9.570220715000,0.275000000000
9.577907697000,0.302000000000
9.585594679000,0.317000000000
9.593281661000,0.320000000000
9.600968643000,0.312000000000
9.608655625000,0.295000000000
9.616342607000,0.265000000000
9.624029589000,0.216000000000
9.631716571000,0.140000000000
9.639403553000,0.044000000000
9.647090535000,-0.054000000000
9.654777517000,-0.140000000000
9.662464499000,-0.211000000000
9.670151481000,-0.260000000000
9.677838463000,-0.288000000000
9.685525445000,-0.297000000000
9.693212427000,-0.300000000000
9.700899409000,-0.295000000000
9.708586391000,-0.283000000000
9.716273373000,-0.273000000000
9.723960355000,-0.260000000000
9.731647337000,-0.248000000000
9.739334319000,-0.236000000000
9.747021301000,-0.226000000000
9.754708283000,-0.219000000000
9.762395265000,-0.211000000000
9.770082247000,-0.209000000000
9.777769229000,-0.201000000000
9.785456211000,-0.199000000000
9.793143193000,-0.196000000000
9.800830175000,-0.196000000000
9.808517157000,-0.192000000000
9.816204139000,-0.189000000000
9.823891121000,-0.189000000000
9.831578103000,-0.189000000000
9.839265085000,-0.189000000000
9.846952067000,-0.187000000000
9.854639049000,-0.184000000000
9.862326031000,-0.182000000000
9.870013013000,-0.182000000000
9.877699995000,-0.179000000000
9.885386977000,-0.174000000000
9.893073959000,-0.169000000000
9.900760941000,-0.164000000000
9.908447923000,-0.162000000000
9.916134905000,-0.157000000000
9.923821887000,-0.152000000000
9.931508869000,-0.150000000000
9.939195851000,-0.150000000000
9.946882833000,-0.145000000000
9.954569856000,-0.137000000000
9.962256699000,-0.135000000000
9.969943542000,-0.135000000000
9.977630385000,-0.130000000000
9.985317228000,-0.125000000000
9.993004071000,-0.123000000000
10.000690914000,-0.118000000000
10.008377757000,-0.110000000000
10.016064600000,-0.113000000000
10.023751443000,-0.115000000000
10.031438286000,-0.115000000000
10.039125129000,-0.105000000000
10.046811972000,-0.088000000000
10.054498815000,-0.068000000000
10.062185658000,-0.064000000000
10.069872501000,-0.061000000000
10.077559344000,-0.056000000000
10.085246187000,-0.066000000000
10.092933030000,-0.096000000000
10.100619873000,-0.120000000000
10.108306716000,-0.115000000000
10.115993559000,-0.103000000000
10.123680402000,-0.103000000000
10.131367245000,-0.103000000000
10.139054088000,-0.098000000000
10.146740931000,-0.093000000000
10.154427774000,-0.096000000000
10.162114617000,-0.103000000000
10.169801460000,-0.132000000000
10.177488303000,-0.201000000000
10.185175146000,-0.224000000000
10.192861989000,0.083000000000
10.200548832000,0.804000000000
10.208235675000,1.644000000000
10.215922518000,2.011000000000
10.223609361000,1.107000000000
10.231296204000,-0.366000000000
10.238983047000,-0.610000000000
10.246669890000,-0.096000000000
10.254356733000,-0.150000000000
10.262043576000,-0.310000000000
10.269730419000,-0.182000000000
10.277417262000,-0.147000000000
10.285104105000,-0.199000000000
10.292790948000,-0.155000000000
10.300477791000,-0.115000000000
10.308164634000,-0.115000000000
10.315851477000,-0.098000000000
10.323538320000,-0.068000000000
10.331225163000,-0.051000000000
10.338912006000,-0.024000000000
10.346598849000,0.004000000000
10.354285692000,0.024000000000
10.361972535000,0.046000000000
10.369659378000,0.081000000000
10.377346221000,0.118000000000
10.385033064000,0.157000000000
10.392719907000,0.196000000000
10.400406750000,0.231000000000
10.408093593000,0.268000000000
10.415780436000,0.312000000000
10.423467279000,0.342000000000
10.431154122000,0.349000000000
10.438840965000,0.339000000000
10.446527808000,0.324000000000
10.454214651000,0.305000000000
10.461901494000,0.265000000000
10.469588337000,0.201000000000
10.477275180000,0.115000000000
10.484962023000,0.012000000000
10.492648866000,-0.088000000000
10.500335709000,-0.172000000000
10.508022552000,-0.236000000000
10.515709405000,-0.273000000000
10.523396526000,-0.290000000000
10.531083647000,-0.302000000000
10.538770768000,-0.305000000000
10.546457889000,-0.288000000000
10.554145010000,-0.270000000000
10.561832131000,-0.268000000000
10.569519252000,-0.263000000000
10.577206373000,-0.241000000000
10.584893494000,-0.226000000000
10.592580615000,-0.224000000000
10.600267736000,-0.216000000000
10.607954857000,-0.206000000000
10.615641978000,-0.194000000000
10.623329099000,-0.189000000000
10.631016220000,-0.192000000000
10.638703341000,-0.189000000000
10.646390462000,-0.187000000000
10.654077583000,-0.184000000000
10.661764704000,-0.184000000000
10.669451825000,-0.182000000000
10.677138946000,-0.182000000000
10.684826067000,-0.179000000000
10.692513188000,-0.172000000000
10.700200309000,-0.174000000000
10.707887430000,-0.179000000000
10.715574551000,-0.174000000000
10.723261672000,-0.164000000000
10.730948793000,-0.162000000000
10.738635914000,-0.167000000000
10.746323035000,-0.160000000000
10.754010156000,-0.147000000000
10.761697277000,-0.147000000000
10.769384398000,-0.147000000000
10.777071519000,-0.140000000000
10.784758640000,-0.137000000000
10.792445761000,-0.132000000000
10.800132882000,-0.128000000000
10.807820003000,-0.125000000000
10.815507124000,-0.123000000000
10.823194245000,-0.123000000000
10.830881366000,-0.123000000000
10.838568487000,-0.118000000000
10.846255608000,-0.100000000000
10.853942729000,-0.073000000000
10.861629850000,-0.061000000000
10.869316971000,-0.068000000000
10.877004092000,-0.066000000000
10.884691213000,-0.071000000000
10.892378334000,-0.100000000000
10.900065455000,-0.120000000000
10.907752576000,-0.118000000000
10.915439697000,-0.108000000000
10.923126818000,-0.103000000000
10.930813939000,-0.103000000000
10.938501060000,-0.108000000000
10.946188181000,-0.100000000000
10.953875302000,-0.096000000000
10.961562423000,-0.108000000000
10.969249544000,-0.135000000000
10.976936665000,-0.194000000000
10.984623786000,-0.201000000000
10.992310907000,0.135000000000
10.999998028000,0.898000000000
11.007685149000,1.705000000000
11.015372270000,1.888000000000
11.023059391000,0.841000000000
11.030746512000,-0.487000000000
11.038433633000,-0.541000000000
11.046120754000,-0.071000000000
11.053807875000,-0.167000000000
11.061494996000,-0.275000000000
11.069182117000,-0.150000000000
11.076869306000,-0.137000000000
11.084556009000,-0.177000000000
11.092242712000,-0.130000000000
11.099929415000,-0.093000000000
11.107616118000,-0.098000000000
11.115302821000,-0.083000000000
11.122989524000,-0.051000000000
11.130676227000,-0.027000000000
11.138362930000,-0.004000000000
11.146049633000,0.019000000000
11.153736336000,0.044000000000
11.161423039000,0.073000000000
11.169109742000,0.110000000000
11.176796445000,0.142000000000
11.184483148000,0.179000000000
11.192169851000,0.228000000000
11.199856554000,0.273000000000
11.207543257000,0.307000000000
11.215229960000,0.339000000000
11.222916663000,0.364000000000
11.230603366000,0.364000000000
11.238290069000,0.352000000000
11.245976772000,0.339000000000
11.253663475000,0.312000000000
11.261350178000,0.258000000000
11.269036881000,0.182000000000
11.276723584000,0.083000000000
11.284410287000,-0.022000000000
11.292096990000,-0.115000000000
11.299783693000,-0.194000000000
11.307470396000,-0.258000000000
11.315157099000,-0.290000000000
11.322843802000,-0.305000000000
11.330530505000,-0.312000000000
11.338217208000,-0.307000000000
11.345903911000,-0.295000000000
11.353590614000,-0.283000000000
11.361277317000,-0.270000000000
11.368964020000,-0.258000000000
11.376650723000,-0.248000000000
11.384337426000,-0.233000000000
11.392024129000,-0.221000000000
11.399710832000,-0.214000000000
11.407397535000,-0.206000000000
11.415084238000,-0.206000000000
11.422770941000,-0.201000000000
11.430457644000,-0.194000000000
11.438144347000,-0.192000000000
11.445831050000,-0.192000000000
11.453517753000,-0.189000000000
11.461204456000,-0.187000000000
11.468891159000,-0.184000000000
11.476577862000,-0.184000000000
11.484264565000,-0.184000000000
11.491951268000,-0.184000000000
11.499637971000,-0.179000000000
11.507324674000,-0.177000000000
11.515011377000,-0.177000000000
11.522698080000,-0.177000000000
11.530384783000,-0.172000000000
11.538071486000,-0.167000000000
11.545758189000,-0.162000000000
11.553444892000,-0.157000000000
11.561131595000,-0.152000000000
11.568818298000,-0.150000000000
11.576505001000,-0.150000000000
11.584191704000,-0.147000000000
11.591878407000,-0.147000000000
11.599565110000,-0.150000000000
11.607251813000,-0.150000000000
11.614938516000,-0.140000000000
11.622625219000,-0.118000000000
11.630311922000,-0.103000000000
11.637998685000,-0.096000000000
11.645685806000,-0.088000000000
11.653372927000,-0.086000000000
11.661060048000,-0.105000000000
11.668747169000,-0.132000000000
11.676434290000,-0.137000000000
11.684121411000,-0.128000000000
11.691808532000,-0.125000000000
11.699495653000,-0.123000000000
11.707182774000,-0.120000000000
11.714869895000,-0.118000000000
11.722557016000,-0.115000000000
11.730244137000,-0.120000000000
11.737931258000,-0.140000000000
11.745618379000,-0.199000000000
11.753305500000,-0.243000000000
11.760992621000,-0.036000000000
11.768679742000,0.610000000000
11.776366863000,1.462000000000
11.784053984000,1.964000000000
11.791741105000,1.312000000000
11.799428226000,-0.187000000000
11.807115347000,-0.699000000000
11.814802468000,-0.184000000000
11.822489589000,-0.108000000000
11.830176710000,-0.305000000000
11.837863831000,-0.209000000000
11.845550952000,-0.145000000000
11.853238073000,-0.201000000000
11.860925194000,-0.174000000000
11.868612315000,-0.123000000000
11.876299436000,-0.125000000000
11.883986557000,-0.113000000000
11.891673678000,-0.081000000000
11.899360799000,-0.066000000000
11.907047920000,-0.049000000000
11.914735041000,-0.019000000000
11.922422162000,0.007000000000
11.930109283000,0.032000000000
11.937796404000,0.064000000000
11.945483525000,0.098000000000
11.953170646000,0.135000000000
11.960857767000,0.174000000000
11.968544888000,0.219000000000
11.976232009000,0.256000000000
11.983919130000,0.288000000000
11.991606251000,0.310000000000
11.999293372000,0.320000000000
12.006980493000,0.315000000000
12.014667614000,0.302000000000
12.022354735000,0.278000000000
12.030041856000,0.241000000000
12.037728977000,0.174000000000
12.045416098000,0.083000000000
12.053103219000,-0.019000000000
12.060790340000,-0.115000000000
12.068477461000,-0.194000000000
12.076164582000,-0.253000000000
12.083851703000,-0.290000000000
12.091538824000,-0.307000000000
12.099225945000,-0.312000000000
12.106913066000,-0.312000000000
12.114600187000,-0.302000000000
12.122287308000,-0.290000000000
12.129974429000,-0.278000000000
12.137661550000,-0.265000000000
12.145348671000,-0.253000000000
12.153035792000,-0.241000000000
12.160722913000,-0.231000000000
12.168410034000,-0.221000000000
12.176097155000,-0.214000000000
12.183784276000,-0.209000000000
12.191471397000,-0.206000000000
12.199158582000,-0.201000000000
12.206845285000,-0.196000000000
12.214531988000,-0.194000000000
12.222218691000,-0.194000000000
12.229905394000,-0.192000000000
12.237592097000,-0.189000000000
12.245278800000,-0.189000000000
12.252965503000,-0.189000000000
12.260652206000,-0.187000000000
12.268338909000,-0.187000000000
12.276025612000,-0.184000000000
12.283712315000,-0.179000000000
12.291399018000,-0.177000000000
12.299085721000,-0.174000000000
12.306772424000,-0.169000000000
12.314459127000,-0.164000000000
12.322145830000,-0.162000000000
12.329832533000,-0.157000000000
12.337519236000,-0.155000000000
12.345205939000,-0.152000000000
12.352892642000,-0.147000000000
12.360579345000,-0.142000000000
12.368266048000,-0.137000000000
12.375952751000,-0.135000000000
12.383639454000,-0.135000000000
12.391326157000,-0.140000000000
12.399012860000,-0.137000000000
12.406699563000,-0.125000000000
12.414386266000,-0.105000000000
12.422072969000,-0.091000000000
12.429759672000,-0.086000000000
12.437446375000,-0.076000000000
12.445133078000,-0.073000000000
12.452819781000,-0.091000000000
12.460506484000,-0.118000000000
12.468193187000,-0.125000000000
12.475879890000,-0.118000000000
12.483566593000,-0.115000000000
12.491253296000,-0.113000000000
12.498939999000,-0.110000000000
12.506626702000,-0.108000000000
12.514313405000,-0.105000000000
12.522000108000,-0.113000000000
12.529686811000,-0.140000000000
12.537373514000,-0.201000000000
12.545060217000,-0.216000000000
12.552746920000,0.061000000000
12.560433623000,0.750000000000
12.568120326000,1.595000000000
12.575807029000,1.986000000000
12.583493732000,1.102000000000
12.591180435000,-0.379000000000
12.598867138000,-0.627000000000
12.606553841000,-0.098000000000
12.614240544000,-0.142000000000
12.621927247000,-0.307000000000
12.629613950000,-0.184000000000
12.637300653000,-0.152000000000
12.644987356000,-0.204000000000
12.652674059000,-0.162000000000
12.660360762000,-0.120000000000
12.668047465000,-0.125000000000
12.675734168000,-0.108000000000
12.683420871000,-0.076000000000
12.691107574000,-0.061000000000
12.698794277000,-0.041000000000
12.706480980000,-0.014000000000
12.714167683000,0.009000000000
12.721854386000,0.036000000000
12.729541089000,0.068000000000
12.737227792000,0.103000000000
12.744914495000,0.140000000000
12.752601198000,0.179000000000
12.760287961000,0.221000000000
12.767975082000,0.258000000000
12.775662203000,0.290000000000
12.783349324000,0.312000000000
12.791036445000,0.320000000000
12.798723566000,0.315000000000
12.806410687000,0.300000000000
12.814097808000,0.278000000000
12.821784929000,0.238000000000
12.829472050000,0.174000000000
12.837159171000,0.086000000000
12.844846292000,-0.014000000000
12.852533413000,-0.108000000000
12.860220534000,-0.184000000000
12.867907655000,-0.241000000000
12.875594776000,-0.278000000000
12.883281897000,-0.295000000000
12.890969018000,-0.300000000000
12.898656139000,-0.297000000000
12.906343260000,-0.288000000000
12.914030381000,-0.278000000000
12.921717502000,-0.265000000000
12.929404623000,-0.251000000000
12.937091744000,-0.238000000000
12.944778865000,-0.228000000000
12.952465986000,-0.221000000000
12.960153107000,-0.211000000000
12.967840228000,-0.206000000000
12.975527349000,-0.201000000000
12.983214470000,-0.199000000000
12.990901591000,-0.196000000000
12.998588712000,-0.194000000000
13.006275833000,-0.192000000000
13.013962954000,-0.192000000000
13.021650075000,-0.189000000000
13.029337196000,-0.187000000000
13.037024317000,-0.184000000000
13.044711438000,-0.184000000000
13.052398559000,-0.182000000000
13.060085680000,-0.182000000000
13.067772801000,-0.179000000000
13.075459922000,-0.174000000000
13.083147043000,-0.172000000000
13.090834164000,-0.167000000000
13.098521285000,-0.164000000000
13.106208406000,-0.160000000000
13.113895527000,-0.155000000000
13.121582648000,-0.152000000000
13.129269769000,-0.147000000000
13.136956890000,-0.142000000000
13.144644011000,-0.140000000000
13.152331132000,-0.135000000000
13.160018253000,-0.130000000000
13.167705374000,-0.128000000000
13.175392495000,-0.123000000000
13.183079616000,-0.120000000000
13.190766737000,-0.123000000000
13.198453858000,-0.125000000000
13.206140979000,-0.120000000000
13.213828100000,-0.103000000000
13.221515221000,-0.078000000000
13.229202342000,-0.066000000000
13.236889463000,-0.064000000000
13.244576584000,-0.064000000000
13.252263705000,-0.068000000000
13.259950826000,-0.093000000000
13.267637947000,-0.118000000000
13.275325068000,-0.115000000000
13.283012189000,-0.105000000000
13.290699310000,-0.103000000000
13.298386431000,-0.100000000000
13.306073552000,-0.098000000000
13.313760673000,-0.096000000000
13.321447858000,-0.096000000000
13.329134561000,-0.103000000000
13.336821264000,-0.142000000000
13.344507967000,-0.211000000000
13.352194670000,-0.187000000000
13.359881373000,0.196000000000
13.367568076000,0.955000000000
13.375254779000,1.760000000000
13.382941482000,1.907000000000
13.390628185000,0.748000000000
13.398314888000,-0.558000000000
13.406001591000,-0.492000000000
13.413688294000,-0.044000000000
13.421374997000,-0.196000000000
13.429061700000,-0.280000000000
13.436748403000,-0.145000000000
13.444435106000,-0.155000000000
13.452121809000,-0.189000000000
13.459808512000,-0.135000000000
13.467495215000,-0.110000000000
13.475181918000,-0.113000000000
13.482868621000,-0.086000000000
13.490555324000,-0.059000000000
13.498242027000,-0.046000000000
13.505928730000,-0.022000000000
13.513615433000,0.004000000000
13.521302136000,0.029000000000
13.528988839000,0.059000000000
13.536675542000,0.091000000000
13.544362245000,0.123000000000
13.552048948000,0.160000000000
13.559735651000,0.199000000000
13.567422354000,0.238000000000
13.575109057000,0.275000000000
13.582795760000,0.302000000000
13.590482463000,0.320000000000
13.598169166000,0.322000000000
13.605855869000,0.317000000000
13.613542572000,0.302000000000
13.621229275000,0.275000000000
13.628915978000,0.236000000000
13.636602681000,0.172000000000
13.644289384000,0.083000000000
13.651976087000,-0.012000000000
13.659662790000,-0.100000000000
13.667349493000,-0.172000000000
13.675036196000,-0.224000000000
13.682722899000,-0.256000000000
13.690409602000,-0.270000000000
13.698096305000,-0.273000000000
13.705783008000,-0.268000000000
13.713469711000,-0.258000000000
13.721156414000,-0.246000000000
13.728843117000,-0.233000000000
13.736529820000,-0.221000000000
13.744216523000,-0.209000000000
13.751903226000,-0.199000000000
13.759589929000,-0.192000000000
13.767276632000,-0.184000000000
13.774963335000,-0.179000000000
13.782650038000,-0.174000000000
13.790336741000,-0.172000000000
13.798023444000,-0.169000000000
13.805710147000,-0.167000000000
13.813396850000,-0.162000000000
13.821083553000,-0.160000000000
13.828770256000,-0.160000000000
13.836456959000,-0.160000000000
13.844143662000,-0.157000000000
13.851830365000,-0.155000000000
13.859517068000,-0.152000000000
13.867203771000,-0.152000000000
13.874890474000,-0.150000000000
13.882577237000,-0.145000000000
13.890264358000,-0.142000000000
13.897951479000,-0.140000000000
13.905638600000,-0.137000000000
13.913325721000,-0.135000000000
13.921012842000,-0.132000000000
13.928699963000,-0.128000000000
13.936387084000,-0.120000000000
13.944074205000,-0.113000000000
13.951761326000,-0.113000000000
13.959448447000,-0.110000000000
13.967135568000,-0.105000000000
13.974822689000,-0.098000000000
13.982509810000,-0.096000000000
13.990196931000,-0.093000000000
13.997884052000,-0.096000000000
14.005571173000,-0.098000000000
14.013258294000,-0.086000000000
14.020945415000,-0.061000000000
14.028632536000,-0.039000000000
14.036319657000,-0.034000000000
14.044006778000,-0.036000000000
14.051693899000,-0.039000000000
14.059381020000,-0.049000000000
14.067068141000,-0.081000000000
14.074755262000,-0.098000000000
14.082442383000,-0.088000000000
14.090129504000,-0.078000000000
14.097816625000,-0.083000000000
14.105503746000,-0.083000000000
14.113190867000,-0.073000000000
14.120877988000,-0.071000000000
14.128565109000,-0.073000000000
14.136252230000,-0.083000000000
14.143939351000,-0.125000000000
14.151626472000,-0.199000000000
14.159313593000,-0.147000000000
14.167000714000,0.300000000000
14.174687835000,1.102000000000
14.182374956000,1.870000000000
14.190062077000,1.856000000000
14.197749198000,0.571000000000
14.205436319000,-0.605000000000
14.213123440000,-0.406000000000
14.220810561000,-0.024000000000
14.228497682000,-0.204000000000
14.236184803000,-0.241000000000
14.243871924000,-0.113000000000
14.251559045000,-0.142000000000
14.259246166000,-0.167000000000
14.266933287000,-0.108000000000
14.274620408000,-0.083000000000
14.282307529000,-0.086000000000
14.289994650000,-0.059000000000
14.297681771000,-0.034000000000
14.305368892000,-0.022000000000
14.313056013000,0.000000000000
14.320743134000,0.032000000000
14.328430255000,0.061000000000
14.336117376000,0.086000000000
14.343804497000,0.113000000000
14.351491618000,0.150000000000
14.359178739000,0.192000000000
14.366865860000,0.228000000000
14.374552981000,0.265000000000
14.382240102000,0.307000000000
14.389927223000,0.332000000000
14.397614344000,0.342000000000
14.405301465000,0.347000000000
14.412988586000,0.342000000000
14.420675707000,0.320000000000
14.428362828000,0.290000000000
14.436049949000,0.248000000000
14.443737138000,0.182000000000
14.451423841000,0.086000000000
14.459110544000,-0.014000000000
14.466797247000,-0.105000000000
14.474483950000,-0.179000000000
14.482170653000,-0.226000000000
14.489857356000,-0.253000000000
14.497544059000,-0.273000000000
14.505230762000,-0.285000000000
14.512917465000,-0.278000000000
14.520604168000,-0.258000000000
14.528290871000,-0.243000000000
14.535977574000,-0.238000000000
14.543664277000,-0.226000000000
14.551350980000,-0.206000000000
14.559037683000,-0.199000000000
14.566724386000,-0.196000000000
14.574411089000,-0.187000000000
14.582097792000,-0.182000000000
14.589784495000,-0.172000000000
14.597471198000,-0.162000000000
14.605157901000,-0.167000000000
14.612844604000,-0.177000000000
14.620531307000,-0.172000000000
14.628218010000,-0.160000000000
14.635904713000,-0.152000000000
14.643591416000,-0.157000000000
14.651278119000,-0.162000000000
14.658964822000,-0.152000000000
14.666651525000,-0.145000000000
14.674338228000,-0.155000000000
14.682024931000,-0.157000000000
14.689711634000,-0.152000000000
14.697398337000,-0.152000000000
14.705085040000,-0.142000000000
14.712771743000,-0.130000000000
14.720458446000,-0.130000000000
14.728145149000,-0.135000000000
14.735831852000,-0.125000000000
14.743518555000,-0.120000000000
14.751205258000,-0.115000000000
14.758891961000,-0.110000000000
14.766578664000,-0.120000000000
14.774265367000,-0.128000000000
14.781952070000,-0.115000000000
14.789638773000,-0.096000000000
14.797325476000,-0.078000000000
14.805012179000,-0.066000000000
14.812698882000,-0.056000000000
14.820385585000,-0.051000000000
14.828072288000,-0.051000000000
14.835758991000,-0.066000000000
14.843445694000,-0.093000000000
14.851132397000,-0.113000000000
14.858819100000,-0.105000000000
14.866505803000,-0.098000000000
14.874192506000,-0.100000000000
14.881879209000,-0.098000000000
14.889565912000,-0.088000000000
14.897252615000,-0.081000000000
14.904939318000,-0.083000000000
14.912626021000,-0.108000000000
14.920312724000,-0.164000000000
14.927999427000,-0.214000000000
14.935686130000,-0.039000000000
14.943372833000,0.571000000000
14.951059536000,1.417000000000
14.958746239000,1.944000000000
14.966432942000,1.388000000000
14.974119645000,-0.064000000000
14.981806348000,-0.674000000000
14.989493051000,-0.209000000000
14.997179754000,-0.081000000000
15.004866517000,-0.263000000000
15.012553638000,-0.179000000000
15.020240759000,-0.118000000000
15.027927880000,-0.172000000000
15.035615001000,-0.137000000000
15.043302122000,-0.086000000000
15.050989243000,-0.098000000000
15.058676364000,-0.083000000000
15.066363485000,-0.044000000000
15.074050606000,-0.032000000000
15.081737727000,-0.019000000000
15.089424848000,0.014000000000
15.097111969000,0.051000000000
15.104799090000,0.076000000000
15.112486211000,0.103000000000
15.120173332000,0.137000000000
15.127860453000,0.172000000000
15.135547574000,0.206000000000
15.143234695000,0.251000000000
15.150921816000,0.300000000000
15.158608937000,0.334000000000
15.166296058000,0.349000000000
15.173983179000,0.352000000000
15.181670300000,0.349000000000
15.189357421000,0.337000000000
15.197044542000,0.310000000000
15.204731663000,0.273000000000
15.212418784000,0.209000000000
15.220105905000,0.113000000000
15.227793026000,0.009000000000
15.235480147000,-0.086000000000
15.243167268000,-0.174000000000
15.250854389000,-0.233000000000
15.258541510000,-0.268000000000
15.266228631000,-0.290000000000
15.273915752000,-0.305000000000
15.281602873000,-0.305000000000
15.289289994000,-0.292000000000
15.296977115000,-0.278000000000
15.304664236000,-0.265000000000
15.312351357000,-0.256000000000
15.320038478000,-0.243000000000
15.327725599000,-0.233000000000
15.335412720000,-0.221000000000
15.343099841000,-0.211000000000
15.350786962000,-0.204000000000
15.358474083000,-0.199000000000
15.366161204000,-0.192000000000
15.373848325000,-0.184000000000
15.381535446000,-0.182000000000
15.389222567000,-0.182000000000
15.396909688000,-0.179000000000
15.404596809000,-0.174000000000
15.412283930000,-0.177000000000
15.419971051000,-0.177000000000
15.427658172000,-0.177000000000
15.435345293000,-0.174000000000
15.443032414000,-0.172000000000
15.450719535000,-0.169000000000
15.458406656000,-0.169000000000
15.466093777000,-0.169000000000
15.473780898000,-0.167000000000
15.481468019000,-0.160000000000
15.489155140000,-0.157000000000
15.496842261000,-0.155000000000
15.504529382000,-0.150000000000
15.512216503000,-0.145000000000
15.519903624000,-0.145000000000
15.527590745000,-0.145000000000
15.535277866000,-0.145000000000
15.542964987000,-0.145000000000
15.550652108000,-0.142000000000
15.558339229000,-0.128000000000
15.566026414000,-0.105000000000
15.573713117000,-0.091000000000
15.581399820000,-0.086000000000
15.589086523000,-0.081000000000
15.596773226000,-0.088000000000
15.604459929000,-0.113000000000
15.612146632000,-0.135000000000
15.619833335000,-0.135000000000
15.627520038000,-0.128000000000
15.635206741000,-0.123000000000
15.642893444000,-0.120000000000
15.650580147000,-0.118000000000
15.658266850000,-0.115000000000
15.665953553000,-0.113000000000
15.673640256000,-0.123000000000
15.681326959000,-0.162000000000
15.689013662000,-0.233000000000
15.696700365000,-0.204000000000
15.704387068000,0.204000000000
15.712073771000,0.997000000000
15.719760474000,1.789000000000
15.727447177000,1.863000000000
15.735133880000,0.642000000000
15.742820583000,-0.622000000000
15.750507286000,-0.494000000000
15.758193989000,-0.061000000000
15.765880692000,-0.226000000000
15.773567395000,-0.288000000000
15.781254098000,-0.152000000000
15.788940801000,-0.174000000000
15.796627504000,-0.204000000000
15.804314207000,-0.142000000000
15.812000910000,-0.123000000000
15.819687613000,-0.125000000000
15.827374316000,-0.096000000000
15.835061019000,-0.071000000000
15.842747722000,-0.059000000000
15.850434425000,-0.034000000000
15.858121128000,-0.007000000000
15.865807831000,0.017000000000
15.873494534000,0.049000000000
15.881181237000,0.083000000000
15.888867940000,0.115000000000
15.896554643000,0.155000000000
15.904241346000,0.196000000000
15.911928049000,0.238000000000
15.919614752000,0.275000000000
15.927301455000,0.302000000000
15.934988158000,0.317000000000
15.942674861000,0.317000000000
15.950361564000,0.307000000000
15.958048267000,0.290000000000
15.965734970000,0.258000000000
15.973421673000,0.209000000000
15.981108376000,0.130000000000
15.988795079000,0.034000000000
15.996481782000,-0.066000000000
16.004168485000,-0.155000000000
16.011855188000,-0.224000000000
16.019541891000,-0.273000000000
16.027228594000,-0.300000000000
16.034915297000,-0.307000000000
16.042602000000,-0.307000000000
16.050288703000,-0.302000000000
16.057975406000,-0.292000000000
16.065662109000,-0.280000000000
16.073348812000,-0.268000000000
16.081035515000,-0.256000000000
16.088722218000,-0.243000000000
16.096408921000,-0.233000000000
16.104095624000,-0.224000000000
16.111782327000,-0.214000000000
16.119469030000,-0.209000000000
16.127155793000,-0.204000000000
16.134842775000,-0.199000000000
16.142529757000,-0.194000000000
16.150216739000,-0.192000000000
16.157903721000,-0.189000000000
16.165590703000,-0.187000000000
16.173277685000,-0.187000000000
16.180964667000,-0.187000000000
16.188651649000,-0.187000000000
16.196338631000,-0.184000000000
16.204025613000,-0.182000000000
16.211712595000,-0.182000000000
16.219399577000,-0.179000000000
16.227086559000,-0.177000000000
16.234773541000,-0.172000000000
16.242460523000,-0.169000000000
16.250147505000,-0.164000000000
16.257834487000,-0.162000000000
16.265521469000,-0.157000000000
16.273208451000,-0.152000000000
16.280895433000,-0.147000000000
16.288582415000,-0.145000000000
16.296269397000,-0.140000000000
16.303956379000,-0.137000000000
16.311643361000,-0.135000000000
16.319330343000,-0.130000000000
16.327017325000,-0.125000000000
16.334704307000,-0.123000000000
16.342391289000,-0.125000000000
16.350078271000,-0.125000000000
16.357765253000,-0.113000000000
16.365452235000,-0.091000000000
16.373139217000,-0.071000000000
16.380826199000,-0.066000000000
16.388513181000,-0.066000000000
16.396200163000,-0.066000000000
16.403887145000,-0.081000000000
16.411574127000,-0.115000000000
16.419261109000,-0.125000000000
16.426948091000,-0.115000000000
16.434635073000,-0.110000000000
16.442322055000,-0.110000000000
16.450009037000,-0.105000000000
16.457696019000,-0.103000000000
16.465383001000,-0.103000000000
16.473069983000,-0.105000000000
16.480756965000,-0.120000000000
16.488443947000,-0.169000000000
16.496130929000,-0.231000000000
16.503817911000,-0.100000000000
16.511504893000,0.450000000000
16.519191875000,1.289000000000
16.526878857000,1.969000000000
16.534565839000,1.641000000000
16.542252821000,0.162000000000
16.549939803000,-0.706000000000
16.557626785000,-0.285000000000
16.565313767000,-0.054000000000
16.573000749000,-0.278000000000
16.580687731000,-0.243000000000
16.588374713000,-0.137000000000
16.596061695000,-0.189000000000
16.603748677000,-0.182000000000
16.611435659000,-0.125000000000
16.619122641000,-0.120000000000
16.626809623000,-0.115000000000
16.634496605000,-0.081000000000
16.642183587000,-0.061000000000
16.649870569000,-0.044000000000
16.657557551000,-0.017000000000
16.665244533000,0.009000000000
16.672931515000,0.034000000000
16.680618497000,0.064000000000
16.688305520000,0.098000000000
16.695992363000,0.135000000000
16.703679206000,0.172000000000
16.711366049000,0.211000000000
16.719052892000,0.253000000000
16.726739735000,0.285000000000
16.734426578000,0.310000000000
16.742113421000,0.322000000000
16.749800264000,0.322000000000
16.757487107000,0.312000000000
16.765173950000,0.292000000000
16.772860793000,0.260000000000
16.780547636000,0.209000000000
16.788234479000,0.132000000000
16.795921322000,0.034000000000
16.803608165000,-0.061000000000
16.811295008000,-0.147000000000
16.818981851000,-0.211000000000
16.826668694000,-0.256000000000
16.834355537000,-0.283000000000
16.842042380000,-0.292000000000
16.849729223000,-0.290000000000
16.857416066000,-0.283000000000
16.865102909000,-0.273000000000
16.872789752000,-0.258000000000
16.880476595000,-0.246000000000
16.888163438000,-0.236000000000
16.895850281000,-0.224000000000
16.903537124000,-0.214000000000
16.911223967000,-0.206000000000
16.918910810000,-0.199000000000
16.926597653000,-0.194000000000
16.934284496000,-0.189000000000
16.941971339000,-0.187000000000
16.949658182000,-0.184000000000
16.957345025000,-0.182000000000
16.965031868000,-0.179000000000
16.972718711000,-0.177000000000
16.980405554000,-0.174000000000
16.988092397000,-0.174000000000
16.995779240000,-0.172000000000
17.003466083000,-0.172000000000
17.011152926000,-0.169000000000
17.018839769000,-0.169000000000
17.026526612000,-0.167000000000
17.034213455000,-0.164000000000
17.041900298000,-0.162000000000
17.049587141000,-0.160000000000
17.057273984000,-0.155000000000
17.064960827000,-0.150000000000
17.072647670000,-0.147000000000
17.080334513000,-0.145000000000
17.088021356000,-0.140000000000
17.095708199000,-0.135000000000
17.103395042000,-0.130000000000
17.111081885000,-0.128000000000
17.118768728000,-0.125000000000
17.126455571000,-0.120000000000
17.134142414000,-0.118000000000
17.141829257000,-0.115000000000
17.149516100000,-0.110000000000
17.157202943000,-0.105000000000
17.164889786000,-0.103000000000
17.172576629000,-0.103000000000
17.180263472000,-0.105000000000
17.187950315000,-0.098000000000
17.195637158000,-0.081000000000
17.203324001000,-0.061000000000
17.211010844000,-0.051000000000
17.218697687000,-0.051000000000
17.226384530000,-0.051000000000
17.234071373000,-0.056000000000
17.241758216000,-0.086000000000
17.249445069000,-0.113000000000
17.257132190000,-0.108000000000
17.264819311000,-0.096000000000
17.272506432000,-0.096000000000
17.280193553000,-0.096000000000
17.287880674000,-0.091000000000
17.295567795000,-0.091000000000
17.303254916000,-0.088000000000
17.310942037000,-0.098000000000
17.318629158000,-0.132000000000
17.326316279000,-0.201000000000
17.334003400000,-0.194000000000
17.341690521000,0.162000000000
17.349377642000,0.908000000000
17.357064763000,1.735000000000
17.364751884000,1.976000000000
17.372439005000,0.901000000000
17.380126126000,-0.492000000000
17.387813247000,-0.534000000000
17.395500368000,-0.056000000000
17.403187489000,-0.177000000000
17.410874610000,-0.290000000000
17.418561731000,-0.155000000000
17.426248852000,-0.152000000000
17.433935973000,-0.194000000000
17.441623094000,-0.142000000000
17.449310215000,-0.110000000000
17.456997336000,-0.115000000000
17.464684457000,-0.091000000000
17.472371578000,-0.061000000000
17.480058699000,-0.046000000000
17.487745820000,-0.027000000000
17.495432941000,0.000000000000
17.503120062000,0.024000000000
17.510807183000,0.051000000000
17.518494304000,0.083000000000
17.526181425000,0.115000000000
17.533868546000,0.152000000000
17.541555667000,0.192000000000
17.549242788000,0.231000000000
17.556929909000,0.265000000000
17.564617030000,0.297000000000
17.572304151000,0.317000000000
17.579991272000,0.320000000000
17.587678393000,0.312000000000
17.595365514000,0.300000000000
17.603052635000,0.275000000000
17.610739756000,0.233000000000
17.618426877000,0.172000000000
17.626113998000,0.086000000000
17.633801119000,-0.009000000000
17.641488240000,-0.100000000000
17.649175361000,-0.177000000000
17.656862482000,-0.231000000000
17.664549603000,-0.265000000000
17.672236724000,-0.283000000000
17.679923845000,-0.288000000000
17.687610966000,-0.285000000000
17.695298087000,-0.275000000000
17.702985208000,-0.263000000000
17.710672329000,-0.251000000000
17.718359450000,-0.238000000000
17.726046571000,-0.226000000000
17.733733692000,-0.216000000000
17.741420813000,-0.206000000000
17.749107934000,-0.199000000000
17.756795055000,-0.194000000000
17.764482176000,-0.189000000000
17.772169297000,-0.187000000000
17.779856418000,-0.184000000000
17.787543539000,-0.179000000000
17.795230660000,-0.177000000000
17.802917781000,-0.174000000000
17.810604970000,-0.174000000000
17.818291673000,-0.172000000000
17.825978376000,-0.172000000000
17.833665079000,-0.169000000000
17.841351782000,-0.167000000000
17.849038485000,-0.164000000000
17.856725188000,-0.167000000000
17.864411891000,-0.162000000000
17.872098594000,-0.160000000000
17.879785297000,-0.157000000000
17.887472000000,-0.152000000000
17.895158703000,-0.147000000000
17.902845406000,-0.142000000000
17.910532109000,-0.140000000000
17.918218812000,-0.135000000000
17.925905515000,-0.132000000000
17.933592218000,-0.128000000000
17.941278921000,-0.123000000000
17.948965624000,-0.118000000000
17.956652327000,-0.118000000000
17.964339030000,-0.113000000000
17.972025733000,-0.108000000000
17.979712436000,-0.105000000000
17.987399139000,-0.100000000000
17.995085842000,-0.098000000000
18.002772545000,-0.100000000000
18.010459248000,-0.100000000000
18.018145951000,-0.096000000000
18.025832654000,-0.078000000000
18.033519357000,-0.056000000000
18.041206060000,-0.041000000000
18.048892763000,-0.041000000000
18.056579466000,-0.041000000000
18.064266169000,-0.051000000000
18.071952872000,-0.081000000000
18.079639575000,-0.108000000000
18.087326278000,-0.105000000000
18.095012981000,-0.093000000000
18.102699684000,-0.091000000000
18.110386387000,-0.088000000000
18.118073090000,-0.086000000000
18.125759793000,-0.083000000000
18.133446496000,-0.081000000000
18.141133199000,-0.088000000000
18.148819902000,-0.118000000000
18.156506605000,-0.189000000000
18.164193308000,-0.192000000000
18.171880011000,0.130000000000
18.179566714000,0.859000000000
18.187253417000,1.693000000000
18.194940120000,1.998000000000
18.202626823000,1.014000000000
18.210313526000,-0.416000000000
18.218000229000,-0.561000000000
18.225686932000,-0.068000000000
18.233373635000,-0.150000000000
18.241060338000,-0.280000000000
18.248747041000,-0.152000000000
18.256433744000,-0.137000000000
18.264120447000,-0.182000000000
18.271807150000,-0.130000000000
18.279493853000,-0.096000000000
18.287180556000,-0.105000000000
18.294867259000,-0.081000000000
18.302553962000,-0.049000000000
18.310240665000,-0.036000000000
18.317927368000,-0.014000000000
18.325614071000,0.014000000000
18.333300774000,0.039000000000
18.340987477000,0.061000000000
18.348674180000,0.098000000000
18.356360883000,0.135000000000
18.364047586000,0.169000000000
18.371734349000,0.206000000000
18.379421192000,0.248000000000
18.387108035000,0.288000000000
18.394794878000,0.320000000000
18.402481721000,0.337000000000
18.410168564000,0.344000000000
18.417855407000,0.342000000000
18.425542250000,0.327000000000
18.433229093000,0.305000000000
18.440915936000,0.268000000000
18.448602779000,0.201000000000
18.456289622000,0.108000000000
18.463976465000,0.009000000000
18.471663308000,-0.083000000000
18.479350151000,-0.157000000000
18.487036994000,-0.214000000000
18.494723837000,-0.253000000000
18.502410680000,-0.278000000000
18.510097523000,-0.285000000000
18.517784366000,-0.278000000000
18.525471209000,-0.265000000000
18.533158052000,-0.256000000000
18.540844895000,-0.243000000000
18.548531738000,-0.231000000000
18.556218581000,-0.221000000000
18.563905424000,-0.209000000000
18.571592267000,-0.199000000000
18.579279110000,-0.192000000000
18.586965953000,-0.187000000000
18.594652796000,-0.182000000000
18.602339639000,-0.174000000000
18.610026482000,-0.172000000000
18.617713325000,-0.167000000000
18.625400168000,-0.160000000000
18.633087011000,-0.157000000000
18.640773854000,-0.160000000000
18.648460697000,-0.160000000000
18.656147540000,-0.162000000000
18.663834383000,-0.162000000000
18.671521226000,-0.160000000000
18.679208069000,-0.155000000000
18.686894912000,-0.155000000000
18.694581755000,-0.152000000000
18.702268598000,-0.145000000000
18.709955441000,-0.142000000000
18.717642284000,-0.142000000000
18.725329127000,-0.137000000000
18.733015970000,-0.130000000000
18.740702813000,-0.128000000000
18.748389656000,-0.130000000000
18.756076499000,-0.125000000000
18.763763342000,-0.115000000000
18.771450185000,-0.108000000000
18.779137028000,-0.108000000000
18.786823871000,-0.105000000000
18.794510714000,-0.105000000000
18.802197557000,-0.108000000000
18.809884400000,-0.103000000000
18.817571243000,-0.088000000000
18.825258086000,-0.066000000000
18.832944929000,-0.044000000000
18.840631772000,-0.036000000000
18.848318615000,-0.041000000000
18.856005458000,-0.049000000000
18.863692301000,-0.061000000000
18.871379144000,-0.093000000000
18.879065987000,-0.113000000000
18.886752830000,-0.098000000000
18.894439673000,-0.086000000000
18.902126516000,-0.088000000000
18.909813359000,-0.083000000000
18.917500202000,-0.081000000000
18.925187045000,-0.086000000000
18.932873902000,-0.088000000000
18.940560884000,-0.098000000000
18.948247866000,-0.145000000000
18.955934848000,-0.214000000000
18.963621830000,-0.110000000000
18.971308812000,0.433000000000
18.978995794000,1.285000000000
18.986682776000,1.947000000000
18.994369758000,1.664000000000
19.002056740000,0.258000000000
19.009743722000,-0.669000000000
19.017430704000,-0.312000000000
19.025117686000,-0.046000000000
19.032804668000,-0.246000000000
19.040491650000,-0.216000000000
19.048178632000,-0.103000000000
19.055865614000,-0.152000000000
19.063552596000,-0.152000000000
19.071239578000,-0.088000000000
19.078926560000,-0.078000000000
19.086613542000,-0.086000000000
19.094300524000,-0.056000000000
19.101987506000,-0.027000000000
19.109674488000,-0.014000000000
19.117361470000,0.009000000000
19.125048452000,0.046000000000
19.132735434000,0.076000000000
19.140422416000,0.103000000000
19.148109398000,0.132000000000
19.155796380000,0.174000000000
19.163483362000,0.221000000000
19.171170344000,0.260000000000
19.178857326000,0.297000000000
19.186544308000,0.334000000000
19.194231290000,0.364000000000
19.201918272000,0.381000000000
19.209605254000,0.376000000000
19.217292236000,0.359000000000
19.224979218000,0.344000000000
19.232666200000,0.317000000000
19.240353182000,0.248000000000
19.248040164000,0.162000000000
19.255727146000,0.061000000000
19.263414128000,-0.054000000000
19.271101110000,-0.150000000000
19.278788092000,-0.204000000000
19.286475074000,-0.246000000000
19.294162056000,-0.288000000000
19.301849038000,-0.305000000000
19.309536020000,-0.295000000000
19.317223002000,-0.285000000000
19.324909984000,-0.275000000000
19.332596966000,-0.258000000000
19.340283948000,-0.248000000000
19.347970930000,-0.243000000000
19.355657912000,-0.233000000000
19.363344894000,-0.216000000000
19.371031876000,-0.199000000000
19.378718858000,-0.189000000000
19.386405840000,-0.187000000000
19.394092822000,-0.187000000000
19.401779804000,-0.177000000000
19.409466786000,-0.164000000000
19.417153768000,-0.162000000000
19.424840750000,-0.162000000000
19.432527732000,-0.162000000000
19.440214714000,-0.169000000000
19.447901696000,-0.164000000000
19.455588678000,-0.152000000000
19.463275660000,-0.152000000000
19.470962642000,-0.155000000000
19.478649624000,-0.155000000000
19.486336606000,-0.150000000000
19.494023625000,-0.142000000000
19.501710746000,-0.147000000000
19.509397867000,-0.147000000000
19.517084988000,-0.140000000000
19.524772109000,-0.137000000000
19.532459230000,-0.135000000000
19.540146351000,-0.123000000000
19.547833472000,-0.118000000000
19.555520593000,-0.118000000000
19.563207714000,-0.115000000000
19.570894835000,-0.108000000000
19.578581956000,-0.110000000000
19.586269077000,-0.123000000000
19.593956198000,-0.120000000000
19.601643319000,-0.098000000000
19.609330440000,-0.066000000000
19.617017561000,-0.046000000000
19.624704682000,-0.046000000000
19.632391803000,-0.051000000000
19.640078924000,-0.056000000000
19.647766045000,-0.073000000000
19.655453166000,-0.110000000000
19.663140287000,-0.125000000000
19.670827408000,-0.100000000000
19.678514529000,-0.083000000000
19.686201650000,-0.088000000000
19.693888771000,-0.093000000000
19.701575892000,-0.086000000000
19.709263013000,-0.083000000000
19.716950134000,-0.096000000000
19.724637255000,-0.110000000000
19.732324376000,-0.150000000000
19.740011497000,-0.214000000000
19.747698618000,-0.059000000000
19.755385739000,0.563000000000
19.763072860000,1.417000000000
19.770759981000,1.942000000000
19.778447102000,1.395000000000
19.786134223000,-0.054000000000
19.793821344000,-0.674000000000
19.801508465000,-0.199000000000
19.809195586000,-0.064000000000
19.816882707000,-0.260000000000
19.824569828000,-0.182000000000
19.832256949000,-0.105000000000
19.839944070000,-0.160000000000
19.847631191000,-0.135000000000
19.855318312000,-0.083000000000
19.863005433000,-0.086000000000
19.870692554000,-0.076000000000
19.878379675000,-0.049000000000
19.886066796000,-0.029000000000
19.893753917000,-0.004000000000
19.901441038000,0.024000000000
19.909128159000,0.046000000000
19.916815280000,0.068000000000
19.924502401000,0.105000000000
19.932189522000,0.142000000000
19.939876643000,0.177000000000
19.947563764000,0.216000000000
19.955250885000,0.263000000000
19.962938006000,0.302000000000
19.970625127000,0.339000000000
19.978312248000,0.364000000000
19.985999369000,0.369000000000
19.993686490000,0.364000000000
20.001373611000,0.356000000000
20.009060732000,0.324000000000
20.016747853000,0.275000000000
20.024434974000,0.211000000000
20.032122095000,0.120000000000
20.039809216000,0.007000000000
20.047496337000,-0.100000000000
20.055183522000,-0.182000000000
20.062870922000,-0.243000000000
20.070558322000,-0.288000000000
20.078245722000,-0.310000000000
20.085933122000,-0.317000000000
20.093620522000,-0.312000000000
20.101307922000,-0.302000000000
20.108995322000,-0.292000000000
20.116682722000,-0.285000000000
20.124370122000,-0.270000000000
20.132057522000,-0.253000000000
20.139744922000,-0.241000000000
20.147432322000,-0.231000000000
20.155119722000,-0.224000000000
20.162807122000,-0.214000000000
20.170494522000,-0.206000000000
20.178181922000,-0.199000000000
20.185869322000,-0.194000000000
20.193556722000,-0.192000000000
20.201244122000,-0.189000000000
20.208931522000,-0.189000000000
20.216618922000,-0.187000000000
20.224306322000,-0.182000000000
20.231993722000,-0.182000000000
20.239681122000,-0.184000000000
20.247368522000,-0.179000000000
20.255055922000,-0.177000000000
20.262743322000,-0.177000000000
20.270430722000,-0.172000000000
20.278118122000,-0.167000000000
20.285805522000,-0.167000000000
20.293492922000,-0.164000000000
20.301180322000,-0.157000000000
20.308867722000,-0.155000000000
20.316555122000,-0.152000000000
20.324242522000,-0.147000000000
20.331929922000,-0.140000000000
20.339617322000,-0.140000000000
20.347304722000,-0.137000000000
20.354992122000,-0.132000000000
20.362679522000,-0.132000000000
20.370366922000,-0.137000000000
20.378054322000,-0.135000000000
20.385741722000,-0.123000000000
20.393429122000,-0.096000000000
20.401116522000,-0.076000000000
20.408803922000,-0.076000000000
20.416491322000,-0.073000000000
20.424178722000,-0.071000000000
20.431866122000,-0.088000000000
20.439553522000,-0.118000000000
20.447240922000,-0.128000000000
20.454928322000,-0.113000000000
20.462615722000,-0.110000000000
20.470303122000,-0.113000000000
20.477990522000,-0.108000000000
20.485677922000,-0.105000000000
20.493365322000,-0.103000000000
20.501052722000,-0.103000000000
20.508740122000,-0.123000000000
20.516427522000,-0.182000000000
20.524114922000,-0.233000000000
20.531802322000,-0.049000000000
20.539489722000,0.573000000000
20.547177122000,1.437000000000
20.554864522000,2.006000000000
20.562551922000,1.449000000000
20.570239322000,-0.068000000000
20.577926722000,-0.706000000000
20.585614122000,-0.214000000000
20.593301522000,-0.083000000000
20.600988922000,-0.292000000000
20.608676322000,-0.216000000000
20.616363766000,-0.137000000000
20.624050191000,-0.192000000000
20.631736616000,-0.169000000000
20.639423041000,-0.120000000000
20.647109466000,-0.120000000000
20.654795891000,-0.108000000000
20.662482316000,-0.073000000000
20.670168741000,-0.059000000000
20.677855166000,-0.039000000000
20.685541591000,-0.009000000000
20.693228016000,0.014000000000
20.700914441000,0.039000000000
20.708600866000,0.073000000000
20.716287291000,0.110000000000
20.723973716000,0.147000000000
20.731660141000,0.189000000000
20.739346566000,0.231000000000
20.747032991000,0.273000000000
20.754719416000,0.310000000000
20.762405841000,0.334000000000
20.770092266000,0.344000000000
20.777778691000,0.342000000000
20.785465116000,0.332000000000
20.793151541000,0.307000000000
20.800837966000,0.268000000000
20.808524391000,0.204000000000
20.816210816000,0.113000000000
20.823897241000,0.007000000000
20.831583666000,-0.093000000000
20.839270091000,-0.179000000000
20.846956516000,-0.241000000000
20.854642941000,-0.280000000000
20.862329366000,-0.302000000000
20.870015791000,-0.307000000000
20.877702216000,-0.302000000000
20.885388641000,-0.295000000000
20.893075066000,-0.288000000000
20.900761491000,-0.273000000000
20.908447916000,-0.260000000000
20.916134341000,-0.248000000000
20.923820766000,-0.236000000000
20.931507191000,-0.226000000000
20.939193616000,-0.214000000000
20.946880041000,-0.206000000000
20.954566466000,-0.201000000000
20.962252891000,-0.194000000000
20.969939316000,-0.189000000000
20.977625741000,-0.187000000000
20.985312166000,-0.184000000000
20.992998591000,-0.179000000000
21.000685016000,-0.177000000000
21.008371441000,-0.174000000000
21.016057866000,-0.174000000000
21.023744291000,-0.172000000000
21.031430716000,-0.169000000000
21.039117141000,-0.169000000000
21.046803566000,-0.169000000000
21.054489991000,-0.167000000000
21.062176416000,-0.162000000000
21.069862841000,-0.160000000000
21.077549266000,-0.157000000000
21.085235691000,-0.155000000000
21.092922116000,-0.150000000000
21.100608541000,-0.145000000000
21.108294966000,-0.140000000000
21.115981391000,-0.137000000000
21.123667816000,-0.132000000000
21.131354241000,-0.128000000000
21.139040666000,-0.123000000000
21.146727091000,-0.120000000000
21.154413516000,-0.115000000000
21.162099941000,-0.110000000000
21.169786366000,-0.105000000000
21.177472798000,-0.108000000000
21.185159501000,-0.108000000000
21.192846204000,-0.098000000000
21.200532907000,-0.081000000000
21.208219610000,-0.059000000000
21.215906313000,-0.049000000000
21.223593016000,-0.051000000000
21.231279719000,-0.049000000000
21.238966422000,-0.056000000000
21.246653125000,-0.086000000000
21.254339828000,-0.110000000000
21.262026531000,-0.105000000000
21.269713234000,-0.098000000000
21.277399937000,-0.098000000000
21.285086640000,-0.096000000000
21.292773343000,-0.091000000000
21.300460046000,-0.091000000000
21.308146749000,-0.088000000000
21.315833452000,-0.093000000000
21.323520155000,-0.120000000000
21.331206858000,-0.184000000000
21.338893561000,-0.199000000000
21.346580264000,0.091000000000
21.354266967000,0.787000000000
21.361953670000,1.632000000000
21.369640373000,2.028000000000
21.377327076000,1.147000000000
21.385013779000,-0.352000000000
21.392700482000,-0.615000000000
21.400387185000,-0.088000000000
21.408073888000,-0.128000000000
21.415760591000,-0.295000000000
21.423447294000,-0.172000000000
21.431133997000,-0.137000000000
21.438820700000,-0.192000000000
21.446507403000,-0.150000000000
21.454194106000,-0.108000000000
21.461880809000,-0.113000000000
21.469567512000,-0.093000000000
21.477254215000,-0.064000000000
21.484940918000,-0.046000000000
21.492627621000,-0.029000000000
21.500314324000,0.000000000000
21.508001027000,0.024000000000
21.515687730000,0.051000000000
21.523374433000,0.083000000000
21.531061136000,0.118000000000
21.538747839000,0.155000000000
21.546434542000,0.196000000000
21.554121245000,0.238000000000
21.561807948000,0.280000000000
21.569494651000,0.315000000000
21.577181354000,0.337000000000
21.584868057000,0.347000000000
21.592554760000,0.344000000000
21.600241463000,0.327000000000
21.607928166000,0.305000000000
21.615614869000,0.265000000000
21.623301572000,0.199000000000
21.630988275000,0.103000000000
21.638674978000,0.000000000000
21.646361681000,-0.096000000000
21.654048384000,-0.177000000000
21.661735087000,-0.238000000000
21.669421790000,-0.273000000000
21.677108493000,-0.290000000000
21.684795196000,-0.297000000000
21.692481899000,-0.295000000000
21.700168602000,-0.285000000000
21.707855305000,-0.275000000000
21.715542008000,-0.263000000000
21.723228711000,-0.251000000000
21.730915414000,-0.238000000000
21.738602181000,-0.228000000000
21.746289720000,-0.219000000000
21.753977259000,-0.211000000000
21.761664798000,-0.204000000000
21.769352337000,-0.196000000000
21.777039876000,-0.192000000000
21.784727415000,-0.189000000000
21.792414954000,-0.184000000000
21.800102493000,-0.184000000000
21.807790032000,-0.182000000000
21.815477571000,-0.179000000000
21.823165110000,-0.177000000000
21.830852649000,-0.174000000000
21.838540188000,-0.174000000000
21.846227727000,-0.172000000000
21.853915266000,-0.169000000000
21.861602805000,-0.167000000000
21.869290344000,-0.167000000000
21.876977883000,-0.162000000000
21.884665422000,-0.160000000000
21.892352961000,-0.157000000000
21.900040500000,-0.152000000000
21.907728039000,-0.147000000000
21.915415578000,-0.142000000000
21.923103117000,-0.140000000000
21.930790656000,-0.135000000000
21.938478195000,-0.132000000000
21.946165734000,-0.128000000000
21.953853273000,-0.123000000000
21.961540812000,-0.120000000000
21.969228351000,-0.113000000000
21.976915890000,-0.110000000000
21.984603429000,-0.108000000000
21.992290968000,-0.103000000000
21.999978507000,-0.100000000000
22.007666046000,-0.098000000000
22.015353585000,-0.100000000000
22.023041124000,-0.100000000000
22.030728663000,-0.093000000000
22.038416202000,-0.076000000000
22.046103741000,-0.054000000000
22.053791280000,-0.044000000000
22.061478819000,-0.046000000000
22.069166358000,-0.044000000000
22.076853897000,-0.054000000000
22.084541436000,-0.086000000000
22.092228975000,-0.110000000000
22.099916514000,-0.105000000000
22.107604053000,-0.093000000000
22.115291592000,-0.093000000000
22.122979131000,-0.093000000000
22.130666670000,-0.088000000000
22.138354209000,-0.086000000000
22.146041748000,-0.086000000000
22.153729287000,-0.091000000000
22.161416826000,-0.118000000000
22.169104365000,-0.182000000000
22.176791904000,-0.206000000000
22.184479443000,0.068000000000
22.192166982000,0.758000000000
22.199854521000,1.609000000000
22.207542060000,2.043000000000
22.215229599000,1.208000000000
22.222917138000,-0.300000000000
22.230604677000,-0.625000000000
22.238292216000,-0.105000000000
22.245979755000,-0.123000000000
22.253667294000,-0.297000000000
22.261354833000,-0.182000000000
22.269042372000,-0.140000000000
22.276729911000,-0.196000000000
22.284417450000,-0.157000000000
22.292104989000,-0.113000000000
22.299792596000,-0.115000000000
22.307478881000,-0.100000000000
22.315165166000,-0.068000000000
22.322851451000,-0.051000000000
22.330537736000,-0.032000000000
22.338224021000,-0.007000000000
22.345910306000,0.017000000000
22.353596591000,0.044000000000
22.361282876000,0.076000000000
22.368969161000,0.110000000000
22.376655446000,0.147000000000
22.384341731000,0.187000000000
22.392028016000,0.231000000000
22.399714301000,0.273000000000
22.407400586000,0.305000000000
22.415086871000,0.329000000000
22.422773156000,0.339000000000
22.430459441000,0.339000000000
22.438145726000,0.327000000000
22.445832011000,0.305000000000
22.453518296000,0.268000000000
22.461204581000,0.206000000000
22.468890866000,0.118000000000
22.476577151000,0.017000000000
22.484263436000,-0.078000000000
22.491949721000,-0.167000000000
22.499636006000,-0.231000000000
22.507322291000,-0.268000000000
22.515008576000,-0.283000000000
22.522694861000,-0.290000000000
22.530381146000,-0.290000000000
22.538067431000,-0.280000000000
22.545753716000,-0.273000000000
22.553440001000,-0.263000000000
22.561126286000,-0.248000000000
22.568812571000,-0.238000000000
22.576498856000,-0.226000000000
22.584185141000,-0.216000000000
22.591871426000,-0.209000000000
22.599557711000,-0.206000000000
22.607243996000,-0.196000000000
22.614930281000,-0.184000000000
22.622616566000,-0.179000000000
22.630302851000,-0.179000000000
22.637989136000,-0.177000000000
22.645675421000,-0.174000000000
22.653361706000,-0.177000000000
22.661047991000,-0.177000000000
22.668734276000,-0.172000000000
22.676420561000,-0.172000000000
22.684106846000,-0.172000000000
22.691793131000,-0.169000000000
22.699479416000,-0.162000000000
22.707165701000,-0.155000000000
22.714851986000,-0.155000000000
22.722538271000,-0.160000000000
22.730224556000,-0.157000000000
22.737910841000,-0.147000000000
22.745597126000,-0.145000000000
22.753283411000,-0.142000000000
22.760969696000,-0.140000000000
22.768655981000,-0.135000000000
22.776342266000,-0.132000000000
22.784028551000,-0.128000000000
22.791714836000,-0.118000000000
22.799401121000,-0.108000000000
22.807087406000,-0.113000000000
22.814773691000,-0.118000000000
22.822459976000,-0.105000000000
22.830146261000,-0.096000000000
22.837832546000,-0.093000000000
22.845518831000,-0.091000000000
22.853205116000,-0.091000000000
22.860891457000,-0.091000000000
22.868578439000,-0.093000000000
22.876265421000,-0.096000000000
22.883952403000,-0.088000000000
22.891639385000,-0.068000000000
22.899326367000,-0.046000000000
22.907013349000,-0.034000000000
22.914700331000,-0.034000000000
22.922387313000,-0.041000000000
22.930074295000,-0.054000000000
22.937761277000,-0.083000000000
22.945448259000,-0.100000000000
22.953135241000,-0.098000000000
22.960822223000,-0.091000000000
22.968509205000,-0.086000000000
22.976196187000,-0.078000000000
22.983883169000,-0.078000000000
22.991570151000,-0.091000000000
22.999257133000,-0.093000000000
23.006944115000,-0.091000000000
23.014631097000,-0.125000000000
23.022318079000,-0.201000000000
23.030005061000,-0.174000000000
23.037692043000,0.231000000000
23.045379025000,1.033000000000
23.053066007000,1.851000000000
23.060752989000,1.959000000000
23.068439971000,0.763000000000
23.076126953000,-0.548000000000
23.083813935000,-0.480000000000
23.091500917000,-0.041000000000
23.099187899000,-0.194000000000
23.106874881000,-0.273000000000
23.114561863000,-0.137000000000
23.122248845000,-0.142000000000
23.129935827000,-0.174000000000
23.137622809000,-0.130000000000
23.145309791000,-0.110000000000
23.152996773000,-0.100000000000
23.160683755000,-0.066000000000
23.168370737000,-0.044000000000
23.176057719000,-0.032000000000
23.183744701000,-0.007000000000
23.191431683000,0.024000000000
23.199118665000,0.046000000000
23.206805647000,0.066000000000
23.214492629000,0.098000000000
23.222179611000,0.145000000000
23.229866593000,0.184000000000
23.237553575000,0.226000000000
23.245240557000,0.278000000000
23.252927539000,0.320000000000
23.260614521000,0.349000000000
23.268301503000,0.374000000000
23.275988485000,0.371000000000
23.283675467000,0.356000000000
23.291362449000,0.352000000000
23.299049431000,0.329000000000
23.306736413000,0.273000000000
23.314423395000,0.196000000000
23.322110377000,0.103000000000
23.329797359000,-0.009000000000
23.337484341000,-0.108000000000
23.345171323000,-0.182000000000
23.352858305000,-0.241000000000
23.360545287000,-0.285000000000
23.368232269000,-0.302000000000
23.375919251000,-0.307000000000
23.383606233000,-0.302000000000
23.391293215000,-0.288000000000
23.398980197000,-0.275000000000
23.406667179000,-0.268000000000
23.414354161000,-0.253000000000
23.422041184000,-0.236000000000
23.429728027000,-0.226000000000
23.437414870000,-0.221000000000
23.445101713000,-0.211000000000
23.452788556000,-0.199000000000
23.460475399000,-0.194000000000
23.468162242000,-0.189000000000
23.475849085000,-0.187000000000
23.483535928000,-0.182000000000
23.491222771000,-0.177000000000
23.498909614000,-0.174000000000
23.506596457000,-0.174000000000
23.514283300000,-0.172000000000
23.521970143000,-0.172000000000
23.529656986000,-0.169000000000
23.537343829000,-0.164000000000
23.545030672000,-0.162000000000
23.552717515000,-0.169000000000
23.560404358000,-0.172000000000
23.568091201000,-0.157000000000
23.575778044000,-0.147000000000
23.583464887000,-0.150000000000
23.591151730000,-0.150000000000
23.598838573000,-0.150000000000
23.606525416000,-0.147000000000
23.614212259000,-0.137000000000
23.621899102000,-0.128000000000
23.629585945000,-0.128000000000
23.637272788000,-0.132000000000
23.644959631000,-0.125000000000
23.652646474000,-0.113000000000
23.660333317000,-0.108000000000
23.668020160000,-0.113000000000
23.675707003000,-0.120000000000
23.683393846000,-0.113000000000
23.691080689000,-0.091000000000
23.698767532000,-0.068000000000
23.706454375000,-0.059000000000
23.714141218000,-0.056000000000
23.721828061000,-0.059000000000
23.729514904000,-0.061000000000
23.737201747000,-0.083000000000
23.744888590000,-0.110000000000
23.752575433000,-0.113000000000
23.760262276000,-0.105000000000
23.767949119000,-0.105000000000
23.775635962000,-0.100000000000
23.783322805000,-0.098000000000
23.791009648000,-0.100000000000
23.798696491000,-0.098000000000
23.806383334000,-0.096000000000
23.814070177000,-0.108000000000
23.821757020000,-0.147000000000
23.829443863000,-0.216000000000
23.837130706000,-0.142000000000
23.844817549000,0.366000000000
23.852504392000,1.208000000000
23.860191235000,1.890000000000
23.867878078000,1.673000000000
23.875564921000,0.307000000000
23.883251764000,-0.679000000000
23.890938607000,-0.344000000000
23.898625450000,-0.034000000000
23.906312293000,-0.238000000000
23.913999136000,-0.231000000000
23.921685979000,-0.113000000000
23.929372822000,-0.160000000000
23.937059665000,-0.169000000000
23.944746508000,-0.108000000000
23.952433351000,-0.093000000000
23.960120194000,-0.091000000000
23.967807037000,-0.064000000000
23.975493880000,-0.049000000000
23.983180733000,-0.029000000000
23.990867854000,0.002000000000
23.998554975000,0.027000000000
24.006242096000,0.051000000000
24.013929217000,0.083000000000
24.021616338000,0.118000000000
24.029303459000,0.155000000000
24.036990580000,0.199000000000
24.044677701000,0.243000000000
24.052364822000,0.283000000000
24.060051943000,0.322000000000
24.067739064000,0.356000000000
24.075426185000,0.369000000000
24.083113306000,0.364000000000
24.090800427000,0.354000000000
24.098487548000,0.332000000000
24.106174669000,0.292000000000
24.113861790000,0.231000000000
24.121548911000,0.142000000000
24.129236032000,0.034000000000
24.136923153000,-0.071000000000
24.144610274000,-0.164000000000
24.152297395000,-0.238000000000
24.159984516000,-0.288000000000
24.167671637000,-0.312000000000
24.175358758000,-0.322000000000
24.183045879000,-0.322000000000
24.190733000000,-0.312000000000
24.198420121000,-0.302000000000
24.206107242000,-0.295000000000
24.213794363000,-0.283000000000
24.221481484000,-0.268000000000
24.229168605000,-0.253000000000
24.236855726000,-0.241000000000
24.244542847000,-0.231000000000
24.252229968000,-0.221000000000
24.259917089000,-0.219000000000
24.267604210000,-0.214000000000
24.275291331000,-0.204000000000
24.282978452000,-0.196000000000
24.290665573000,-0.194000000000
24.298352694000,-0.194000000000
24.306039815000,-0.192000000000
24.313726936000,-0.187000000000
24.321414057000,-0.187000000000
24.329101178000,-0.187000000000
24.336788299000,-0.184000000000
24.344475420000,-0.184000000000
24.352162541000,-0.187000000000
24.359849662000,-0.182000000000
24.367536783000,-0.177000000000
24.375223904000,-0.174000000000
24.382911025000,-0.174000000000
24.390598146000,-0.167000000000
24.398285267000,-0.160000000000
24.405972388000,-0.157000000000
24.413659509000,-0.155000000000
24.421346630000,-0.152000000000
24.429033751000,-0.147000000000
24.436720872000,-0.145000000000
24.444407993000,-0.140000000000
24.452095114000,-0.132000000000
24.459782235000,-0.130000000000
24.467469356000,-0.130000000000
24.475156477000,-0.128000000000
24.482843598000,-0.125000000000
24.490530719000,-0.125000000000
24.498217840000,-0.120000000000
24.505904961000,-0.105000000000
24.513592082000,-0.083000000000
24.521279203000,-0.071000000000
24.528966324000,-0.068000000000
24.536653445000,-0.068000000000
24.544340634000,-0.066000000000
24.552027407000,-0.086000000000
24.559714180000,-0.123000000000
24.567400953000,-0.130000000000
24.575087726000,-0.118000000000
24.582774499000,-0.113000000000
24.590461272000,-0.113000000000
24.598148045000,-0.108000000000
24.605834818000,-0.105000000000
24.613521591000,-0.108000000000
24.621208364000,-0.108000000000
24.628895137000,-0.123000000000
24.636581910000,-0.179000000000
24.644268683000,-0.238000000000
24.651955456000,-0.093000000000
24.659642229000,0.482000000000
24.667329002000,1.339000000000
24.675015775000,1.991000000000
24.682702548000,1.600000000000
24.690389321000,0.100000000000
24.698076094000,-0.716000000000
24.705762867000,-0.270000000000
24.713449640000,-0.059000000000
24.721136413000,-0.285000000000
24.728823186000,-0.238000000000
24.736509959000,-0.135000000000
24.744196732000,-0.192000000000
24.751883505000,-0.187000000000
24.759570278000,-0.125000000000
24.767257051000,-0.120000000000
24.774943824000,-0.115000000000
24.782630597000,-0.083000000000
24.790317370000,-0.064000000000
24.798004143000,-0.049000000000
24.805690916000,-0.019000000000
24.813377689000,0.007000000000
24.821064462000,0.032000000000
24.828751235000,0.064000000000
24.836438008000,0.098000000000
24.844124781000,0.135000000000
24.851811554000,0.177000000000
24.859498327000,0.221000000000
24.867185100000,0.263000000000
24.874871873000,0.302000000000
24.882558646000,0.332000000000
24.890245419000,0.344000000000
24.897932192000,0.347000000000
24.905618965000,0.337000000000
24.913305738000,0.315000000000
24.920992511000,0.280000000000
24.928679284000,0.224000000000
24.936366057000,0.135000000000
24.944052830000,0.029000000000
24.951739603000,-0.073000000000
24.959426376000,-0.164000000000
24.967113149000,-0.233000000000
24.974799922000,-0.278000000000
24.982486695000,-0.302000000000
24.990173468000,-0.312000000000
24.997860241000,-0.310000000000
25.005547014000,-0.302000000000
25.013233787000,-0.292000000000
25.020920560000,-0.280000000000
25.028607333000,-0.268000000000
25.036294106000,-0.256000000000
25.043980879000,-0.243000000000
25.051667652000,-0.233000000000
25.059354425000,-0.226000000000
25.067041198000,-0.219000000000
25.074727971000,-0.209000000000
25.082414744000,-0.201000000000
25.090101517000,-0.196000000000
25.097788290000,-0.194000000000
25.105475100000,-0.189000000000
25.113162152000,-0.187000000000
25.120849204000,-0.184000000000
25.128536256000,-0.184000000000
25.136223308000,-0.182000000000
25.143910360000,-0.179000000000
25.151597412000,-0.179000000000
25.159284464000,-0.179000000000
25.166971516000,-0.177000000000
25.174658568000,-0.174000000000
25.182345620000,-0.172000000000
25.190032672000,-0.169000000000
25.197719724000,-0.164000000000
25.205406776000,-0.162000000000
25.213093828000,-0.160000000000
25.220780880000,-0.155000000000
25.228467932000,-0.150000000000
25.236154984000,-0.147000000000
25.243842036000,-0.142000000000
25.251529088000,-0.137000000000
25.259216140000,-0.135000000000
25.266903192000,-0.132000000000
25.274590244000,-0.128000000000
25.282277296000,-0.123000000000
25.289964348000,-0.120000000000
25.297651400000,-0.118000000000
25.305338452000,-0.113000000000
25.313025504000,-0.110000000000
25.320712556000,-0.108000000000
25.328399608000,-0.103000000000
25.336086660000,-0.103000000000
25.343773712000,-0.105000000000
25.351460764000,-0.105000000000
25.359147816000,-0.096000000000
25.366834868000,-0.076000000000
25.374521920000,-0.056000000000
25.382208972000,-0.051000000000
25.389896024000,-0.051000000000
25.397583076000,-0.051000000000
25.405270128000,-0.064000000000
25.412957180000,-0.098000000000
25.420644232000,-0.115000000000
25.428331284000,-0.108000000000
25.436018336000,-0.100000000000
25.443705388000,-0.100000000000
25.451392440000,-0.098000000000
25.459079492000,-0.096000000000
25.466766544000,-0.093000000000
25.474453596000,-0.093000000000
25.482140648000,-0.105000000000
25.489827700000,-0.142000000000
25.497514752000,-0.211000000000
25.505201804000,-0.167000000000
25.512888856000,0.253000000000
25.520575908000,1.041000000000
25.528262960000,1.848000000000
25.535950012000,1.932000000000
25.543637064000,0.679000000000
25.551324116000,-0.605000000000
25.559011168000,-0.465000000000
25.566698220000,-0.034000000000
25.574385272000,-0.219000000000
25.582072324000,-0.290000000000
25.589759376000,-0.152000000000
25.597446428000,-0.169000000000
25.605133480000,-0.204000000000
25.612820532000,-0.145000000000
25.620507584000,-0.123000000000
25.628194636000,-0.125000000000
25.635881688000,-0.098000000000
25.643568740000,-0.071000000000
25.651255792000,-0.056000000000
25.658942844000,-0.032000000000
25.666629910000,-0.004000000000
25.674316613000,0.017000000000
25.682003316000,0.046000000000
25.689690019000,0.081000000000
25.697376722000,0.118000000000
25.705063425000,0.155000000000
25.712750128000,0.194000000000
25.720436831000,0.238000000000
25.728123534000,0.278000000000
25.735810237000,0.310000000000
25.743496940000,0.332000000000
25.751183643000,0.339000000000
25.758870346000,0.334000000000
25.766557049000,0.317000000000
25.774243752000,0.292000000000
25.781930455000,0.251000000000
25.789617158000,0.182000000000
25.797303861000,0.086000000000
25.804990564000,-0.019000000000
25.812677267000,-0.115000000000
25.820363970000,-0.192000000000
25.828050673000,-0.248000000000
25.835737376000,-0.285000000000
25.843424079000,-0.302000000000
25.851110782000,-0.305000000000
25.858797485000,-0.300000000000
25.866484188000,-0.292000000000
25.874170891000,-0.280000000000
25.881857594000,-0.268000000000
25.889544297000,-0.256000000000
25.897231000000,-0.243000000000
25.904917703000,-0.233000000000
25.912604406000,-0.221000000000
25.920291109000,-0.214000000000
25.927977812000,-0.206000000000
25.935664515000,-0.201000000000
25.943351218000,-0.196000000000
25.951037921000,-0.194000000000
25.958724624000,-0.192000000000
25.966411327000,-0.187000000000
25.974098030000,-0.184000000000
25.981784733000,-0.184000000000
25.989471436000,-0.182000000000
25.997158139000,-0.179000000000
26.004844842000,-0.177000000000
26.012531545000,-0.174000000000
26.020218248000,-0.174000000000
26.027904951000,-0.174000000000
26.035591654000,-0.169000000000
26.043278357000,-0.167000000000
26.050965060000,-0.162000000000
26.058651763000,-0.160000000000
26.066338466000,-0.157000000000
26.074025169000,-0.152000000000
26.081711872000,-0.147000000000
26.089398575000,-0.145000000000
26.097085278000,-0.140000000000
26.104771981000,-0.135000000000
26.112458684000,-0.132000000000
26.120145387000,-0.130000000000
26.127832090000,-0.128000000000
26.135518793000,-0.123000000000
26.143205496000,-0.120000000000
26.150892199000,-0.115000000000
26.158578902000,-0.113000000000
26.166265605000,-0.108000000000
26.173952308000,-0.105000000000
26.181639011000,-0.103000000000
26.189325714000,-0.100000000000
26.197012417000,-0.098000000000
26.204699120000,-0.093000000000
26.212385823000,-0.093000000000
26.220072526000,-0.096000000000
26.227759289000,-0.096000000000
26.235446271000,-0.088000000000
26.243133253000,-0.068000000000
26.250820235000,-0.049000000000
26.258507217000,-0.041000000000
26.266194199000,-0.041000000000
26.273881181000,-0.041000000000
26.281568163000,-0.056000000000
26.289255145000,-0.091000000000
26.296942127000,-0.108000000000
26.304629109000,-0.098000000000
26.312316091000,-0.091000000000
26.320003073000,-0.091000000000
26.327690055000,-0.091000000000
26.335377037000,-0.086000000000
26.343064019000,-0.083000000000
26.350751001000,-0.083000000000
26.358437983000,-0.096000000000
26.366124965000,-0.140000000000
26.373811947000,-0.209000000000
26.381498929000,-0.140000000000
26.389185911000,0.322000000000
26.396872893000,1.125000000000
26.404559875000,1.902000000000
26.412246857000,1.878000000000
26.419933839000,0.548000000000
26.427620821000,-0.632000000000
26.435307803000,-0.403000000000
26.442994785000,-0.029000000000
26.450681767000,-0.231000000000
26.458368749000,-0.270000000000
26.466055731000,-0.140000000000
26.473742713000,-0.169000000000
26.481429695000,-0.192000000000
26.489116677000,-0.130000000000
26.496803659000,-0.115000000000
26.504490641000,-0.115000000000
26.512177623000,-0.083000000000
26.519864605000,-0.059000000000
26.527551587000,-0.049000000000
26.535238569000,-0.024000000000
26.542925551000,0.002000000000
26.550612533000,0.027000000000
26.558299515000,0.056000000000
26.565986497000,0.091000000000
26.573673479000,0.125000000000
26.581360461000,0.164000000000
26.589047443000,0.206000000000
26.596734425000,0.246000000000
26.604421407000,0.283000000000
26.612108389000,0.315000000000
26.619795371000,0.332000000000
26.627482353000,0.339000000000
26.635169335000,0.337000000000
26.642856317000,0.322000000000
26.650543299000,0.292000000000
26.658230281000,0.248000000000
26.665917263000,0.184000000000
26.673604245000,0.091000000000
26.681291227000,-0.014000000000
26.688978209000,-0.108000000000
26.696665191000,-0.184000000000
26.704352173000,-0.243000000000
26.712039155000,-0.278000000000
26.719726137000,-0.290000000000
26.727413119000,-0.295000000000
26.735100101000,-0.290000000000
26.742787083000,-0.278000000000
26.750474065000,-0.265000000000
26.758161047000,-0.253000000000
26.765848029000,-0.243000000000
26.773535011000,-0.236000000000
26.781221993000,-0.224000000000
26.788909016000,-0.211000000000
26.796595859000,-0.204000000000
26.804282702000,-0.201000000000
26.811969545000,-0.194000000000
26.819656388000,-0.187000000000
26.827343231000,-0.184000000000
26.835030074000,-0.182000000000
26.842716917000,-0.177000000000
26.850403760000,-0.174000000000
26.858090603000,-0.172000000000
26.865777446000,-0.172000000000
26.873464289000,-0.172000000000
26.881151132000,-0.174000000000
26.888837975000,-0.169000000000
26.896524818000,-0.162000000000
26.904211661000,-0.162000000000
26.911898504000,-0.169000000000
26.919585347000,-0.164000000000
26.927272190000,-0.152000000000
26.934959033000,-0.147000000000
26.942645876000,-0.152000000000
26.950332719000,-0.150000000000
26.958019562000,-0.135000000000
26.965706405000,-0.128000000000
26.973393248000,-0.130000000000
26.981080091000,-0.130000000000
26.988766934000,-0.128000000000
26.996453777000,-0.125000000000
27.004140620000,-0.118000000000
27.011827463000,-0.115000000000
27.019514306000,-0.113000000000
27.027201149000,-0.103000000000
27.034887992000,-0.096000000000
27.042574835000,-0.100000000000
27.050261678000,-0.098000000000
27.057948521000,-0.091000000000
27.065635364000,-0.088000000000
27.073322207000,-0.088000000000
27.081009050000,-0.086000000000
27.088695893000,-0.086000000000
27.096382736000,-0.088000000000
27.104069579000,-0.086000000000
27.111756422000,-0.068000000000
27.119443265000,-0.046000000000
27.127130108000,-0.036000000000
27.134816951000,-0.036000000000
27.142503794000,-0.032000000000
27.150190637000,-0.036000000000
27.157877480000,-0.071000000000
27.165564323000,-0.100000000000
27.173251166000,-0.098000000000
27.180938009000,-0.081000000000
27.188624852000,-0.081000000000
27.196311695000,-0.091000000000
27.203998538000,-0.086000000000
27.211685381000,-0.073000000000
27.219372224000,-0.073000000000
27.227059067000,-0.088000000000
27.234745910000,-0.120000000000
27.242432753000,-0.189000000000
27.250119596000,-0.194000000000
27.257806439000,0.147000000000
27.265493282000,0.913000000000
27.273180125000,1.757000000000
27.280866968000,2.016000000000
27.288553811000,0.992000000000
27.296240654000,-0.420000000000
27.303927497000,-0.548000000000
27.311614340000,-0.071000000000
27.319301183000,-0.157000000000
27.326988026000,-0.278000000000
27.334674869000,-0.150000000000
27.342361712000,-0.142000000000
27.350048565000,-0.182000000000
27.357735686000,-0.128000000000
27.365422807000,-0.096000000000
27.373109928000,-0.105000000000
27.380797049000,-0.081000000000
27.388484170000,-0.051000000000
27.396171291000,-0.036000000000
27.403858412000,-0.014000000000
27.411545533000,0.014000000000
27.419232654000,0.044000000000
27.426919775000,0.071000000000
27.434606896000,0.096000000000
27.442294017000,0.132000000000
27.449981138000,0.169000000000
27.457668259000,0.206000000000
27.465355380000,0.253000000000
27.473042501000,0.302000000000
27.480729622000,0.337000000000
27.488416743000,0.361000000000
27.496103864000,0.371000000000
27.503790985000,0.359000000000
27.511478106000,0.339000000000
27.519165227000,0.322000000000
27.526852348000,0.285000000000
27.534539469000,0.216000000000
27.542226590000,0.118000000000
27.549913711000,0.009000000000
27.557600832000,-0.086000000000
27.565287953000,-0.167000000000
27.572975074000,-0.238000000000
27.580662195000,-0.285000000000
27.588349316000,-0.300000000000
27.596036437000,-0.302000000000
27.603723558000,-0.307000000000
27.611410679000,-0.302000000000
27.619097800000,-0.283000000000
27.626784921000,-0.273000000000
27.634472042000,-0.268000000000
27.642159163000,-0.248000000000
27.649846284000,-0.233000000000
27.657533405000,-0.231000000000
27.665220526000,-0.216000000000
27.672907647000,-0.206000000000
27.680594768000,-0.201000000000
27.688281889000,-0.192000000000
27.695969010000,-0.182000000000
27.703656131000,-0.187000000000
27.711343252000,-0.189000000000
27.719030373000,-0.179000000000
27.726717494000,-0.172000000000
27.734404615000,-0.177000000000
27.742091736000,-0.177000000000
27.749778857000,-0.167000000000
27.757465978000,-0.164000000000
27.765153099000,-0.169000000000
27.772840220000,-0.167000000000
27.780527341000,-0.164000000000
27.788214462000,-0.167000000000
27.795901583000,-0.160000000000
27.803588704000,-0.150000000000
27.811275825000,-0.147000000000
27.818962946000,-0.147000000000
27.826650067000,-0.140000000000
27.834337188000,-0.132000000000
27.842024309000,-0.135000000000
27.849711430000,-0.137000000000
27.857398551000,-0.130000000000
27.865085672000,-0.123000000000
27.872772793000,-0.120000000000
27.880459914000,-0.120000000000
27.888147035000,-0.115000000000
27.895834156000,-0.108000000000
27.903521277000,-0.105000000000
27.911208466000,-0.105000000000
27.918895169000,-0.103000000000
27.926581872000,-0.100000000000
27.934268575000,-0.098000000000
27.941955278000,-0.098000000000
27.949641981000,-0.098000000000
27.957328684000,-0.088000000000
27.965015387000,-0.071000000000
27.972702090000,-0.054000000000
27.980388793000,-0.046000000000
27.988075496000,-0.046000000000
27.995762199000,-0.046000000000
28.003448902000,-0.068000000000
28.011135605000,-0.100000000000
28.018822308000,-0.113000000000
28.026509011000,-0.103000000000
28.034195714000,-0.096000000000
28.041882417000,-0.096000000000
28.049569120000,-0.096000000000
28.057255823000,-0.093000000000
28.064942526000,-0.088000000000
28.072629229000,-0.093000000000
28.080315932000,-0.108000000000
28.088002635000,-0.157000000000
28.095689338000,-0.219000000000
28.103376041000,-0.081000000000
28.111062744000,0.504000000000
28.118749447000,1.358000000000
28.126436150000,1.971000000000
28.134122853000,1.570000000000
28.141809556000,0.108000000000
28.149496259000,-0.696000000000
28.157182962000,-0.273000000000
28.164869665000,-0.064000000000
28.172556368000,-0.275000000000
28.180243071000,-0.224000000000
28.187929774000,-0.125000000000
28.195616477000,-0.179000000000
28.203303180000,-0.172000000000
28.210989883000,-0.115000000000
28.218676586000,-0.110000000000
28.226363289000,-0.105000000000
28.234049992000,-0.073000000000
28.241736695000,-0.054000000000
28.249423398000,-0.036000000000
28.257110101000,-0.009000000000
28.264796804000,0.014000000000
28.272483507000,0.039000000000
28.280170210000,0.068000000000
28.287856913000,0.103000000000
28.295543616000,0.140000000000
28.303230319000,0.177000000000
28.310917022000,0.219000000000
28.318603725000,0.260000000000
28.326290428000,0.300000000000
28.333977131000,0.327000000000
28.341663834000,0.342000000000
28.349350537000,0.344000000000
28.357037240000,0.332000000000
28.364723943000,0.312000000000
28.372410646000,0.278000000000
28.380097349000,0.224000000000
28.387784052000,0.140000000000
28.395470755000,0.036000000000
28.403157458000,-0.068000000000
28.410844161000,-0.157000000000
28.418530864000,-0.228000000000
28.426217567000,-0.275000000000
28.433904270000,-0.302000000000
28.441590973000,-0.310000000000
28.449277676000,-0.312000000000
28.456964379000,-0.310000000000
28.464651082000,-0.300000000000
28.472337845000,-0.288000000000
28.480024688000,-0.275000000000
28.487711531000,-0.263000000000
28.495398374000,-0.248000000000
28.503085217000,-0.236000000000
28.510772060000,-0.226000000000
28.518458903000,-0.216000000000
28.526145746000,-0.209000000000
28.533832589000,-0.204000000000
28.541519432000,-0.196000000000
28.549206275000,-0.192000000000
28.556893118000,-0.189000000000
28.564579961000,-0.184000000000
28.572266804000,-0.182000000000
28.579953647000,-0.179000000000
28.587640490000,-0.179000000000
28.595327333000,-0.179000000000
28.603014176000,-0.177000000000
28.610701019000,-0.174000000000
28.618387862000,-0.174000000000
28.626074705000,-0.174000000000
28.633761548000,-0.169000000000
28.641448391000,-0.164000000000
28.649135234000,-0.162000000000
28.656822077000,-0.157000000000
28.664508920000,-0.155000000000
28.672195763000,-0.152000000000
28.679882606000,-0.147000000000
28.687569449000,-0.142000000000
28.695256292000,-0.140000000000
28.702943135000,-0.135000000000
28.710629978000,-0.132000000000
28.718316821000,-0.128000000000
28.726003664000,-0.125000000000
28.733690507000,-0.123000000000
28.741377350000,-0.118000000000
28.749064193000,-0.115000000000
28.756751036000,-0.113000000000
28.764437879000,-0.108000000000
28.772124722000,-0.105000000000
28.779811565000,-0.105000000000
28.787498408000,-0.108000000000
28.795185251000,-0.105000000000
28.802872094000,-0.096000000000
28.810558937000,-0.078000000000
28.818245780000,-0.059000000000
28.825932623000,-0.054000000000
28.833619466000,-0.054000000000
28.841306309000,-0.054000000000
28.848993152000,-0.066000000000
28.856679995000,-0.100000000000
28.864366838000,-0.118000000000
28.872053681000,-0.108000000000
28.879740524000,-0.100000000000
28.887427367000,-0.100000000000
28.895114210000,-0.098000000000
28.902801053000,-0.093000000000
28.910487896000,-0.093000000000
28.918174739000,-0.096000000000
28.925861582000,-0.110000000000
28.933548425000,-0.160000000000
28.941235268000,-0.224000000000
28.948922111000,-0.098000000000
28.956608954000,0.450000000000
28.964295797000,1.294000000000
28.971982640000,1.981000000000
28.979669483000,1.688000000000
28.987356326000,0.224000000000
28.995043169000,-0.694000000000
29.002730012000,-0.297000000000
29.010416855000,-0.041000000000
29.018103698000,-0.270000000000
29.025790541000,-0.248000000000
29.033477398000,-0.137000000000
29.041164380000,-0.184000000000
29.048851362000,-0.184000000000
29.056538344000,-0.128000000000
29.064225326000,-0.120000000000
29.071912308000,-0.115000000000
29.079599290000,-0.083000000000
29.087286272000,-0.064000000000
29.094973254000,-0.049000000000
29.102660236000,-0.024000000000
29.110347218000,0.002000000000
29.118034200000,0.027000000000
29.125721182000,0.056000000000
29.133408164000,0.091000000000
29.141095146000,0.128000000000
29.148782128000,0.164000000000
29.156469110000,0.206000000000
29.164156092000,0.248000000000
29.171843074000,0.288000000000
29.179530056000,0.317000000000
29.187217038000,0.334000000000
29.194904020000,0.339000000000
29.202591002000,0.332000000000
29.210277984000,0.312000000000
29.217964966000,0.283000000000
29.225651948000,0.233000000000
29.233338930000,0.155000000000
29.241025912000,0.054000000000
29.248712894000,-0.044000000000
29.256399876000,-0.137000000000
29.264086858000,-0.214000000000
29.271773840000,-0.263000000000
29.279460822000,-0.290000000000
29.287147804000,-0.302000000000
29.294834786000,-0.305000000000
29.302521768000,-0.300000000000
29.310208750000,-0.290000000000
29.317895732000,-0.280000000000
29.325582714000,-0.268000000000
