time,LSB
0.000000000000,0.009000000000
0.007686285000,0.034000000000
0.015372570000,0.061000000000
0.023058855000,0.101000000000
0.030745140000,0.138000000000
0.038431425000,0.177000000000
0.046117710000,0.222000000000
0.053803995000,0.266000000000
0.061490280000,0.306000000000
0.069176565000,0.340000000000
0.076862850000,0.365000000000
0.084549135000,0.375000000000
0.092235420000,0.372000000000
0.099921705000,0.363000000000
0.107607990000,0.343000000000
0.115294275000,0.306000000000
0.122980560000,0.244000000000
0.130666845000,0.148000000000
0.138353130000,0.032000000000
0.146039415000,-0.086000000000
0.153725760000,-0.197000000000
0.161411697000,-0.286000000000
0.169097634000,-0.345000000000
0.176783571000,-0.377000000000
0.184469508000,-0.390000000000
0.192155445000,-0.390000000000
0.199841382000,-0.385000000000
0.207527319000,-0.375000000000
0.215213256000,-0.360000000000
0.222899193000,-0.348000000000
0.230585130000,-0.333000000000
0.238271067000,-0.318000000000
0.245957004000,-0.303000000000
0.253642941000,-0.288000000000
0.261328878000,-0.276000000000
0.269014815000,-0.266000000000
0.276700752000,-0.254000000000
0.284386689000,-0.246000000000
0.292072626000,-0.239000000000
0.299758563000,-0.232000000000
0.307444500000,-0.229000000000
0.315130437000,-0.227000000000
0.322816374000,-0.224000000000
0.330502311000,-0.222000000000
0.338188248000,-0.219000000000
0.345874185000,-0.217000000000
0.353560122000,-0.217000000000
0.361246059000,-0.214000000000
0.368931996000,-0.209000000000
0.376617933000,-0.207000000000
0.384303870000,-0.205000000000
0.391989807000,-0.200000000000
0.399675744000,-0.195000000000
0.407361681000,-0.190000000000
0.415047618000,-0.190000000000
0.422733555000,-0.192000000000
0.430419492000,-0.197000000000
0.438105429000,-0.190000000000
0.445791366000,-0.170000000000
0.453477303000,-0.150000000000
0.461163240000,-0.138000000000
0.468849177000,-0.125000000000
0.476535114000,-0.108000000000
0.484221051000,-0.113000000000
0.491906988000,-0.150000000000
0.499592925000,-0.175000000000
0.507278862000,-0.163000000000
0.514964799000,-0.155000000000
0.522650736000,-0.155000000000
0.530336673000,-0.150000000000
0.538022610000,-0.143000000000
0.545708547000,-0.143000000000
0.553394484000,-0.140000000000
0.561080421000,-0.138000000000
0.568766358000,-0.148000000000
0.576452295000,-0.180000000000
0.584138232000,-0.234000000000
0.591824169000,-0.133000000000
0.599510106000,0.382000000000
0.607196043000,1.170000000000
0.614881980000,1.748000000000
0.622567917000,1.526000000000
0.630253854000,0.234000000000
0.637939791000,-0.778000000000
0.645625728000,-0.432000000000
0.653311665000,-0.002000000000
0.660997602000,-0.185000000000
0.668683539000,-0.219000000000
0.676369476000,-0.088000000000
0.684055413000,-0.116000000000
0.691741350000,-0.138000000000
0.699427287000,-0.074000000000
0.707113224000,-0.054000000000
0.714799190000,-0.049000000000
0.722485406000,-0.009000000000
0.730171622000,0.024000000000
0.737857838000,0.046000000000
0.745544054000,0.081000000000
0.753230270000,0.121000000000
0.760916486000,0.158000000000
0.768602702000,0.200000000000
0.776288918000,0.246000000000
0.783975134000,0.291000000000
0.791661350000,0.328000000000
0.799347566000,0.363000000000
0.807033782000,0.382000000000
0.814719998000,0.387000000000
0.822406214000,0.382000000000
0.830092430000,0.370000000000
0.837778646000,0.345000000000
0.845464862000,0.301000000000
0.853151078000,0.229000000000
0.860837294000,0.125000000000
0.868523510000,0.007000000000
0.876209726000,-0.111000000000
0.883895942000,-0.219000000000
0.891582158000,-0.303000000000
0.899268374000,-0.353000000000
0.906954590000,-0.375000000000
0.914640806000,-0.387000000000
0.922327022000,-0.385000000000
0.930013238000,-0.377000000000
0.937699454000,-0.368000000000
0.945385670000,-0.355000000000
0.953071886000,-0.340000000000
0.960758102000,-0.326000000000
0.968444318000,-0.311000000000
0.976130534000,-0.298000000000
0.983816750000,-0.286000000000
0.991502966000,-0.274000000000
0.999189182000,-0.261000000000
1.006875398000,-0.251000000000
1.014561614000,-0.244000000000
1.022247830000,-0.239000000000
1.029934046000,-0.232000000000
1.037620262000,-0.229000000000
1.045306478000,-0.227000000000
1.052992694000,-0.224000000000
1.060678910000,-0.222000000000
1.068365126000,-0.222000000000
1.076051342000,-0.219000000000
1.083737558000,-0.217000000000
1.091423774000,-0.214000000000
1.099109990000,-0.212000000000
1.106796206000,-0.207000000000
1.114482422000,-0.205000000000
1.122168638000,-0.200000000000
1.129854854000,-0.197000000000
1.137541070000,-0.192000000000
1.145227286000,-0.187000000000
1.152913502000,-0.187000000000
1.160599718000,-0.192000000000
1.168285934000,-0.192000000000
1.175972150000,-0.185000000000
1.183658366000,-0.163000000000
1.191344582000,-0.140000000000
1.199030798000,-0.130000000000
1.206717014000,-0.118000000000
1.214403230000,-0.103000000000
1.222089446000,-0.111000000000
1.229775662000,-0.148000000000
1.237461878000,-0.170000000000
1.245148094000,-0.158000000000
1.252834310000,-0.148000000000
1.260520526000,-0.148000000000
1.268206742000,-0.143000000000
1.275892964000,-0.138000000000
1.283579249000,-0.135000000000
1.291265534000,-0.133000000000
1.298951819000,-0.130000000000
1.306638104000,-0.143000000000
1.314324389000,-0.180000000000
1.322010674000,-0.232000000000
1.329696959000,-0.106000000000
1.337383244000,0.437000000000
1.345069529000,1.234000000000
1.352755814000,1.810000000000
1.360442099000,1.523000000000
1.368128384000,0.160000000000
1.375814669000,-0.792000000000
1.383500954000,-0.385000000000
1.391187239000,0.000000000000
1.398873524000,-0.197000000000
1.406559809000,-0.207000000000
1.414246094000,-0.083000000000
1.421932379000,-0.118000000000
1.429618664000,-0.130000000000
1.437304949000,-0.066000000000
1.444991234000,-0.051000000000
1.452677519000,-0.044000000000
1.460363804000,-0.004000000000
1.468050089000,0.027000000000
1.475736374000,0.051000000000
1.483422659000,0.088000000000
1.491108944000,0.128000000000
1.498795229000,0.163000000000
1.506481514000,0.205000000000
1.514167799000,0.251000000000
1.521854084000,0.296000000000
1.529540369000,0.338000000000
1.537226654000,0.370000000000
1.544912939000,0.387000000000
1.552599224000,0.392000000000
1.560285509000,0.387000000000
1.567971794000,0.375000000000
1.575658079000,0.350000000000
1.583344364000,0.311000000000
1.591030649000,0.237000000000
1.598716934000,0.133000000000
1.606403219000,0.014000000000
1.614089504000,-0.108000000000
1.621775789000,-0.217000000000
1.629462074000,-0.298000000000
1.637148359000,-0.350000000000
1.644834644000,-0.380000000000
1.652520929000,-0.387000000000
1.660207214000,-0.385000000000
1.667893499000,-0.380000000000
1.675579784000,-0.368000000000
1.683266069000,-0.353000000000
1.690952354000,-0.338000000000
1.698638639000,-0.323000000000
1.706324924000,-0.311000000000
1.714011209000,-0.296000000000
1.721697494000,-0.281000000000
1.729383779000,-0.271000000000
1.737070064000,-0.259000000000
1.744756349000,-0.249000000000
1.752442634000,-0.242000000000
1.760128919000,-0.234000000000
1.767815204000,-0.229000000000
1.775501489000,-0.227000000000
1.783187774000,-0.224000000000
1.790874059000,-0.222000000000
1.798560344000,-0.219000000000
1.806246629000,-0.219000000000
1.813932914000,-0.217000000000
1.821619199000,-0.214000000000
1.829305484000,-0.212000000000
1.836991825000,-0.207000000000
1.844678110000,-0.205000000000
1.852364395000,-0.202000000000
1.860050680000,-0.200000000000
1.867736965000,-0.195000000000
1.875423250000,-0.190000000000
1.883109535000,-0.185000000000
1.890795820000,-0.182000000000
1.898482105000,-0.185000000000
1.906168390000,-0.190000000000
1.913854675000,-0.187000000000
1.921540960000,-0.172000000000
1.929227245000,-0.150000000000
1.936913530000,-0.135000000000
1.944599815000,-0.125000000000
1.952286100000,-0.108000000000
1.959972385000,-0.103000000000
1.967658670000,-0.133000000000
1.975344955000,-0.165000000000
1.983031240000,-0.165000000000
1.990717525000,-0.153000000000
1.998403810000,-0.153000000000
2.006090095000,-0.148000000000
2.013776380000,-0.140000000000
2.021462665000,-0.140000000000
2.029148950000,-0.135000000000
2.036835235000,-0.130000000000
2.044521520000,-0.140000000000
2.052207805000,-0.165000000000
2.059894090000,-0.219000000000
2.067580375000,-0.205000000000
2.075266660000,0.153000000000
2.082952945000,0.894000000000
2.090639230000,1.622000000000
2.098325515000,1.783000000000
2.106011800000,0.812000000000
2.113698085000,-0.555000000000
2.121384370000,-0.664000000000
2.129070655000,-0.079000000000
2.136756940000,-0.101000000000
2.144443225000,-0.249000000000
2.152129510000,-0.128000000000
2.159815795000,-0.096000000000
2.167502080000,-0.145000000000
2.175188365000,-0.101000000000
2.182874650000,-0.056000000000
2.190560935000,-0.054000000000
2.198247220000,-0.029000000000
2.205933505000,0.009000000000
2.213619790000,0.032000000000
2.221306075000,0.061000000000
2.228992360000,0.103000000000
2.236678645000,0.140000000000
2.244364930000,0.180000000000
2.252051215000,0.224000000000
2.259737500000,0.269000000000
2.267423785000,0.311000000000
2.275110070000,0.348000000000
2.282796355000,0.375000000000
2.290482640000,0.387000000000
2.298168925000,0.387000000000
2.305855210000,0.380000000000
2.313541495000,0.360000000000
2.321227780000,0.326000000000
2.328914065000,0.266000000000
2.336600350000,0.175000000000
2.344286635000,0.061000000000
2.351972920000,-0.061000000000
2.359659205000,-0.180000000000
2.367345490000,-0.276000000000
2.375031775000,-0.338000000000
2.382718060000,-0.375000000000
2.390404345000,-0.392000000000
2.398090686000,-0.395000000000
2.405776902000,-0.387000000000
2.413463118000,-0.377000000000
2.421149334000,-0.365000000000
2.428835550000,-0.353000000000
2.436521766000,-0.338000000000
2.444207982000,-0.321000000000
2.451894198000,-0.306000000000
2.459580414000,-0.293000000000
2.467266630000,-0.281000000000
2.474952846000,-0.266000000000
2.482639062000,-0.256000000000
2.490325278000,-0.249000000000
2.498011494000,-0.242000000000
2.505697710000,-0.234000000000
2.513383926000,-0.229000000000
2.521070142000,-0.227000000000
2.528756358000,-0.222000000000
2.536442574000,-0.217000000000
2.544128790000,-0.214000000000
2.551815006000,-0.217000000000
2.559501222000,-0.217000000000
2.567187438000,-0.209000000000
2.574873654000,-0.209000000000
2.582559870000,-0.207000000000
2.590246086000,-0.202000000000
2.597932302000,-0.197000000000
2.605618518000,-0.195000000000
2.613304734000,-0.187000000000
2.620990950000,-0.185000000000
2.628677166000,-0.187000000000
2.636363382000,-0.187000000000
2.644049598000,-0.190000000000
2.651735814000,-0.185000000000
2.659422030000,-0.170000000000
2.667108246000,-0.145000000000
2.674794462000,-0.133000000000
2.682480678000,-0.123000000000
2.690166894000,-0.108000000000
2.697853110000,-0.106000000000
2.705539326000,-0.138000000000
2.713225542000,-0.167000000000
2.720911758000,-0.160000000000
2.728597974000,-0.150000000000
2.736284190000,-0.153000000000
2.743970406000,-0.148000000000
2.751656622000,-0.138000000000
2.759342838000,-0.133000000000
2.767029054000,-0.133000000000
2.774715270000,-0.130000000000
2.782401486000,-0.140000000000
2.790087702000,-0.165000000000
2.797773918000,-0.217000000000
2.805460134000,-0.167000000000
2.813146350000,0.264000000000
2.820832566000,1.032000000000
2.828518782000,1.649000000000
2.836204998000,1.575000000000
2.843891214000,0.464000000000
2.851577430000,-0.674000000000
2.859263646000,-0.535000000000
2.866949862000,-0.032000000000
2.874636078000,-0.130000000000
2.882322294000,-0.214000000000
2.890008510000,-0.088000000000
2.897694726000,-0.088000000000
2.905380942000,-0.125000000000
2.913067158000,-0.074000000000
2.920753374000,-0.041000000000
2.928439590000,-0.037000000000
2.936125806000,-0.004000000000
2.943812022000,0.029000000000
2.951498238000,0.051000000000
2.959184464000,0.083000000000
2.966871237000,0.123000000000
2.974558010000,0.160000000000
2.982244783000,0.200000000000
2.989931556000,0.244000000000
2.997618329000,0.291000000000
3.005305102000,0.335000000000
3.012991875000,0.368000000000
3.020678648000,0.387000000000
3.028365421000,0.397000000000
3.036052194000,0.397000000000
3.043738967000,0.382000000000
3.051425740000,0.360000000000
3.059112513000,0.326000000000
3.066799286000,0.259000000000
3.074486059000,0.160000000000
3.082172832000,0.041000000000
3.089859605000,-0.081000000000
3.097546378000,-0.195000000000
3.105233151000,-0.284000000000
3.112919924000,-0.340000000000
3.120606697000,-0.372000000000
3.128293470000,-0.387000000000
3.135980243000,-0.385000000000
3.143667016000,-0.380000000000
3.151353789000,-0.372000000000
3.159040562000,-0.360000000000
3.166727335000,-0.348000000000
3.174414108000,-0.333000000000
3.182100881000,-0.321000000000
3.189787654000,-0.308000000000
3.197474427000,-0.293000000000
3.205161200000,-0.281000000000
3.212847973000,-0.269000000000
3.220534746000,-0.259000000000
3.228221519000,-0.251000000000
3.235908292000,-0.242000000000
3.243595065000,-0.237000000000
3.251281838000,-0.232000000000
3.258968611000,-0.229000000000
3.266655384000,-0.227000000000
3.274342157000,-0.224000000000
3.282028930000,-0.224000000000
3.289715703000,-0.222000000000
3.297402476000,-0.219000000000
3.305089249000,-0.217000000000
3.312776022000,-0.217000000000
3.320462795000,-0.214000000000
3.328149568000,-0.212000000000
3.335836341000,-0.209000000000
3.343523114000,-0.205000000000
3.351209887000,-0.202000000000
3.358896660000,-0.200000000000
3.366583433000,-0.205000000000
3.374270206000,-0.209000000000
3.381956979000,-0.200000000000
3.389643752000,-0.182000000000
3.397330525000,-0.160000000000
3.405017298000,-0.148000000000
3.412704071000,-0.138000000000
3.420390844000,-0.123000000000
3.428077617000,-0.128000000000
3.435764390000,-0.163000000000
3.443451163000,-0.187000000000
3.451137936000,-0.180000000000
3.458824709000,-0.170000000000
3.466511482000,-0.167000000000
3.474198255000,-0.163000000000
3.481885028000,-0.158000000000
3.489571801000,-0.158000000000
3.497258574000,-0.155000000000
3.504945347000,-0.153000000000
3.512632120000,-0.160000000000
3.520318928000,-0.195000000000
3.528004377000,-0.246000000000
3.535689826000,-0.160000000000
3.543375275000,0.338000000000
3.551060724000,1.121000000000
3.558746173000,1.701000000000
3.566431622000,1.514000000000
3.574117071000,0.271000000000
3.581802520000,-0.770000000000
3.589487969000,-0.479000000000
3.597173418000,-0.027000000000
3.604858867000,-0.182000000000
3.612544316000,-0.232000000000
3.620229765000,-0.101000000000
3.627915214000,-0.121000000000
3.635600663000,-0.145000000000
3.643286112000,-0.086000000000
3.650971561000,-0.064000000000
3.658657010000,-0.061000000000
3.666342459000,-0.024000000000
3.674027908000,0.007000000000
3.681713357000,0.029000000000
3.689398806000,0.066000000000
3.697084255000,0.103000000000
3.704769704000,0.140000000000
3.712455153000,0.185000000000
3.720140602000,0.232000000000
3.727826051000,0.276000000000
3.735511500000,0.318000000000
3.743196949000,0.353000000000
3.750882398000,0.372000000000
3.758567847000,0.382000000000
3.766253296000,0.380000000000
3.773938745000,0.368000000000
3.781624194000,0.343000000000
3.789309643000,0.303000000000
3.796995092000,0.232000000000
3.804680541000,0.130000000000
3.812365990000,0.009000000000
3.820051439000,-0.111000000000
3.827736888000,-0.222000000000
3.835422337000,-0.306000000000
3.843107786000,-0.358000000000
3.850793235000,-0.385000000000
3.858478684000,-0.397000000000
3.866164133000,-0.397000000000
3.873849582000,-0.390000000000
3.881535031000,-0.377000000000
3.889220480000,-0.368000000000
3.896905929000,-0.353000000000
3.904591378000,-0.335000000000
3.912276827000,-0.323000000000
3.919962276000,-0.308000000000
3.927647725000,-0.296000000000
3.935333174000,-0.281000000000
3.943018623000,-0.271000000000
3.950704072000,-0.261000000000
3.958389521000,-0.254000000000
3.966074970000,-0.244000000000
3.973760419000,-0.239000000000
3.981445868000,-0.237000000000
3.989131317000,-0.232000000000
3.996816766000,-0.229000000000
4.004502215000,-0.227000000000
4.012187664000,-0.224000000000
4.019873113000,-0.222000000000
4.027558562000,-0.222000000000
4.035244011000,-0.219000000000
4.042929460000,-0.217000000000
4.050614909000,-0.214000000000
4.058300358000,-0.212000000000
4.065985807000,-0.207000000000
4.073671256000,-0.205000000000
4.081356755000,-0.200000000000
4.089043040000,-0.195000000000
4.096729325000,-0.197000000000
4.104415610000,-0.202000000000
4.112101895000,-0.202000000000
4.119788180000,-0.190000000000
4.127474465000,-0.167000000000
4.135160750000,-0.150000000000
4.142847035000,-0.140000000000
4.150533320000,-0.125000000000
4.158219605000,-0.116000000000
4.165905890000,-0.133000000000
4.173592175000,-0.170000000000
4.181278460000,-0.180000000000
4.188964745000,-0.167000000000
4.196651030000,-0.163000000000
4.204337315000,-0.160000000000
4.212023600000,-0.155000000000
4.219709885000,-0.150000000000
4.227396170000,-0.148000000000
4.235082455000,-0.143000000000
4.242768740000,-0.145000000000
4.250455025000,-0.158000000000
4.258141310000,-0.202000000000
4.265827595000,-0.242000000000
4.273513880000,-0.041000000000
4.281200165000,0.590000000000
4.288886450000,1.380000000000
4.296572735000,1.832000000000
4.304259020000,1.294000000000
4.311945305000,-0.150000000000
4.319631590000,-0.805000000000
4.327317875000,-0.259000000000
4.335004160000,-0.027000000000
4.342690445000,-0.239000000000
4.350376730000,-0.185000000000
4.358063015000,-0.088000000000
4.365749300000,-0.143000000000
4.373435585000,-0.130000000000
4.381121870000,-0.069000000000
4.388808155000,-0.061000000000
4.396494440000,-0.049000000000
4.404180725000,-0.009000000000
4.411867010000,0.019000000000
4.419553295000,0.044000000000
4.427239580000,0.081000000000
4.434925865000,0.121000000000
4.442612150000,0.160000000000
4.450298435000,0.205000000000
4.457984720000,0.251000000000
4.465671005000,0.296000000000
4.473357290000,0.338000000000
4.481043575000,0.368000000000
4.488729860000,0.385000000000
4.496416145000,0.390000000000
4.504102430000,0.385000000000
4.511788715000,0.372000000000
4.519475000000,0.345000000000
4.527161285000,0.298000000000
4.534847570000,0.217000000000
4.542533855000,0.111000000000
4.550220140000,-0.009000000000
4.557906425000,-0.133000000000
4.565592710000,-0.239000000000
4.573278995000,-0.316000000000
4.580965280000,-0.363000000000
4.588651565000,-0.387000000000
4.596337850000,-0.395000000000
4.604024135000,-0.392000000000
4.611710420000,-0.385000000000
4.619396705000,-0.372000000000
4.627082990000,-0.358000000000
4.634769275000,-0.343000000000
4.642455616000,-0.328000000000
4.650141692000,-0.313000000000
4.657827768000,-0.301000000000
4.665513844000,-0.288000000000
4.673199920000,-0.276000000000
4.680885996000,-0.264000000000
4.688572072000,-0.256000000000
4.696258148000,-0.249000000000
4.703944224000,-0.242000000000
4.711630300000,-0.237000000000
4.719316376000,-0.234000000000
4.727002452000,-0.232000000000
4.734688528000,-0.227000000000
4.742374604000,-0.224000000000
4.750060680000,-0.222000000000
4.757746756000,-0.222000000000
4.765432832000,-0.219000000000
4.773118908000,-0.217000000000
4.780804984000,-0.214000000000
4.788491060000,-0.209000000000
4.796177136000,-0.205000000000
4.803863212000,-0.202000000000
4.811549288000,-0.197000000000
4.819235364000,-0.192000000000
4.826921440000,-0.187000000000
4.834607516000,-0.185000000000
4.842293592000,-0.187000000000
4.849979668000,-0.192000000000
4.857665744000,-0.187000000000
4.865351820000,-0.170000000000
4.873037896000,-0.148000000000
4.880723972000,-0.133000000000
4.888410048000,-0.121000000000
4.896096124000,-0.103000000000
4.903782200000,-0.103000000000
4.911468276000,-0.138000000000
4.919154352000,-0.167000000000
4.926840428000,-0.163000000000
4.934526504000,-0.150000000000
4.942212580000,-0.150000000000
4.949898656000,-0.145000000000
4.957584732000,-0.140000000000
4.965270808000,-0.140000000000
4.972956884000,-0.135000000000
4.980642960000,-0.133000000000
4.988329036000,-0.140000000000
4.996015112000,-0.167000000000
5.003701188000,-0.224000000000
5.011387264000,-0.190000000000
5.019073340000,0.217000000000
5.026759416000,0.980000000000
5.034445492000,1.699000000000
5.042131568000,1.795000000000
5.049817644000,0.696000000000
5.057503720000,-0.642000000000
5.065189796000,-0.612000000000
5.072875872000,-0.046000000000
5.080561948000,-0.133000000000
5.088248024000,-0.251000000000
5.095934100000,-0.116000000000
5.103620176000,-0.106000000000
5.111306252000,-0.150000000000
5.118992328000,-0.096000000000
5.126678404000,-0.059000000000
5.134364480000,-0.059000000000
5.142050556000,-0.027000000000
5.149736632000,0.009000000000
5.157422708000,0.032000000000
5.165108784000,0.066000000000
5.172794860000,0.103000000000
5.180480936000,0.140000000000
5.188167012000,0.182000000000
5.195853088000,0.229000000000
5.203539220000,0.274000000000
5.211225296000,0.318000000000
5.218911372000,0.358000000000
5.226597448000,0.382000000000
5.234283524000,0.395000000000
5.241969600000,0.395000000000
5.249655676000,0.385000000000
5.257341752000,0.368000000000
5.265027828000,0.335000000000
5.272713904000,0.276000000000
5.280399980000,0.182000000000
5.288086056000,0.066000000000
5.295772132000,-0.056000000000
5.303458208000,-0.175000000000
5.311144284000,-0.269000000000
5.318830360000,-0.333000000000
5.326516436000,-0.368000000000
5.334202512000,-0.385000000000
5.341888588000,-0.385000000000
5.349574664000,-0.382000000000
5.357260740000,-0.372000000000
5.364946816000,-0.358000000000
5.372632892000,-0.343000000000
5.380318968000,-0.328000000000
5.388005044000,-0.313000000000
5.395691120000,-0.298000000000
5.403377196000,-0.284000000000
5.411063272000,-0.271000000000
5.418749348000,-0.259000000000
5.426435424000,-0.246000000000
5.434121500000,-0.237000000000
5.441807576000,-0.229000000000
5.449493652000,-0.227000000000
5.457179728000,-0.222000000000
5.464865804000,-0.217000000000
5.472551880000,-0.217000000000
5.480237956000,-0.214000000000
5.487924032000,-0.209000000000
5.495610108000,-0.207000000000
5.503296184000,-0.207000000000
5.510982260000,-0.205000000000
5.518668336000,-0.202000000000
5.526354412000,-0.202000000000
5.534040488000,-0.195000000000
5.541726564000,-0.190000000000
5.549412640000,-0.187000000000
5.557098716000,-0.182000000000
5.564784792000,-0.177000000000
5.572470868000,-0.180000000000
5.580156944000,-0.187000000000
5.587843020000,-0.185000000000
5.595529096000,-0.170000000000
5.603215172000,-0.148000000000
5.610901248000,-0.130000000000
5.618587324000,-0.121000000000
5.626273400000,-0.103000000000
5.633959476000,-0.093000000000
5.641645552000,-0.118000000000
5.649331628000,-0.150000000000
5.657017704000,-0.153000000000
5.664703780000,-0.143000000000
5.672389856000,-0.143000000000
5.680075932000,-0.140000000000
5.687762008000,-0.133000000000
5.695448084000,-0.133000000000
5.703134160000,-0.130000000000
5.710820236000,-0.123000000000
5.718506312000,-0.125000000000
5.726192388000,-0.145000000000
5.733878464000,-0.192000000000
5.741564540000,-0.219000000000
5.749250616000,0.017000000000
5.756936692000,0.686000000000
5.764622820000,1.462000000000
5.772309105000,1.820000000000
5.779995390000,1.163000000000
5.787681675000,-0.249000000000
5.795367960000,-0.755000000000
5.803054245000,-0.195000000000
5.810740530000,-0.029000000000
5.818426815000,-0.229000000000
5.826113100000,-0.153000000000
5.833799385000,-0.071000000000
5.841485670000,-0.123000000000
5.849171955000,-0.101000000000
5.856858240000,-0.046000000000
5.864544525000,-0.041000000000
5.872230810000,-0.022000000000
5.879917095000,0.017000000000
5.887603380000,0.044000000000
5.895289665000,0.074000000000
5.902975950000,0.108000000000
5.910662235000,0.143000000000
5.918348520000,0.182000000000
5.926034805000,0.234000000000
5.933721090000,0.284000000000
5.941407375000,0.326000000000
5.949093660000,0.363000000000
5.956779945000,0.390000000000
5.964466230000,0.412000000000
5.972152515000,0.414000000000
5.979838800000,0.407000000000
5.987525085000,0.390000000000
5.995211370000,0.363000000000
6.002897655000,0.313000000000
6.010583940000,0.229000000000
6.018270225000,0.111000000000
6.025956510000,-0.009000000000
6.033642795000,-0.130000000000
6.041329080000,-0.237000000000
6.049015365000,-0.308000000000
6.056701650000,-0.343000000000
6.064387935000,-0.368000000000
6.072074220000,-0.380000000000
6.079760505000,-0.377000000000
6.087446790000,-0.365000000000
6.095133075000,-0.355000000000
6.102819360000,-0.343000000000
6.110505645000,-0.326000000000
6.118191930000,-0.313000000000
6.125878215000,-0.296000000000
6.133564500000,-0.281000000000
6.141250785000,-0.269000000000
6.148937070000,-0.256000000000
6.156623355000,-0.246000000000
6.164309640000,-0.239000000000
6.171995925000,-0.232000000000
6.179682210000,-0.224000000000
6.187368495000,-0.217000000000
6.195054780000,-0.217000000000
6.202741065000,-0.212000000000
6.210427350000,-0.202000000000
6.218113635000,-0.200000000000
6.225799920000,-0.202000000000
6.233486205000,-0.205000000000
6.241172490000,-0.205000000000
6.248858775000,-0.200000000000
6.256545060000,-0.197000000000
6.264231345000,-0.200000000000
6.271917630000,-0.195000000000
6.279603915000,-0.177000000000
6.287290200000,-0.172000000000
6.294976485000,-0.185000000000
6.302662770000,-0.192000000000
6.310349055000,-0.185000000000
6.318035340000,-0.170000000000
6.325721681000,-0.148000000000
6.333407966000,-0.133000000000
6.341094251000,-0.121000000000
6.348780536000,-0.103000000000
6.356466821000,-0.101000000000
6.364153106000,-0.133000000000
6.371839391000,-0.163000000000
6.379525676000,-0.163000000000
6.387211961000,-0.153000000000
6.394898246000,-0.145000000000
6.402584531000,-0.138000000000
6.410270816000,-0.138000000000
6.417957101000,-0.135000000000
6.425643386000,-0.130000000000
6.433329671000,-0.128000000000
6.441015956000,-0.133000000000
6.448702241000,-0.145000000000
6.456388526000,-0.192000000000
6.464074811000,-0.200000000000
6.471761096000,0.103000000000
6.479447381000,0.807000000000
6.487133666000,1.452000000000
6.494819951000,1.518000000000
6.502506236000,0.696000000000
6.510192521000,-0.469000000000
6.517878806000,-0.629000000000
6.525565091000,-0.106000000000
6.533251376000,-0.059000000000
6.540937661000,-0.180000000000
6.548623946000,-0.083000000000
6.556310231000,-0.054000000000
6.563996516000,-0.101000000000
6.571682801000,-0.061000000000
6.579369086000,-0.017000000000
6.587055371000,-0.014000000000
6.594741656000,0.009000000000
6.602427941000,0.046000000000
6.610114226000,0.071000000000
6.617800511000,0.106000000000
6.625486796000,0.140000000000
6.633173081000,0.167000000000
6.640859366000,0.209000000000
6.648545651000,0.266000000000
6.656231936000,0.308000000000
6.663918221000,0.348000000000
6.671604506000,0.390000000000
6.679290791000,0.417000000000
6.686977076000,0.429000000000
6.694663361000,0.424000000000
6.702349646000,0.410000000000
6.710035931000,0.397000000000
6.717722216000,0.363000000000
6.725408501000,0.296000000000
6.733094786000,0.205000000000
6.740781071000,0.088000000000
6.748467356000,-0.032000000000
6.756153641000,-0.145000000000
6.763839926000,-0.249000000000
6.771526211000,-0.316000000000
6.779212496000,-0.340000000000
6.786898781000,-0.365000000000
6.794585066000,-0.377000000000
6.802271351000,-0.358000000000
6.809957636000,-0.345000000000
6.817643921000,-0.348000000000
6.825330206000,-0.330000000000
6.833016491000,-0.311000000000
6.840702776000,-0.293000000000
6.848389061000,-0.281000000000
6.856075346000,-0.274000000000
6.863761631000,-0.266000000000
6.871447916000,-0.246000000000
6.879134201000,-0.227000000000
6.886820542000,-0.227000000000
6.894506479000,-0.229000000000
6.902192416000,-0.217000000000
6.909878353000,-0.202000000000
6.917564290000,-0.200000000000
6.925250227000,-0.200000000000
6.932936164000,-0.192000000000
6.940622101000,-0.190000000000
6.948308038000,-0.200000000000
6.955993975000,-0.200000000000
6.963679912000,-0.185000000000
6.971365849000,-0.180000000000
6.979051786000,-0.180000000000
6.986737723000,-0.182000000000
6.994423660000,-0.187000000000
7.002109597000,-0.195000000000
7.009795534000,-0.192000000000
7.017481471000,-0.170000000000
7.025167408000,-0.155000000000
7.032853345000,-0.148000000000
7.040539282000,-0.130000000000
7.048225219000,-0.108000000000
7.055911156000,-0.108000000000
7.063597093000,-0.140000000000
7.071283030000,-0.170000000000
7.078968967000,-0.172000000000
7.086654904000,-0.160000000000
7.094340841000,-0.155000000000
7.102026778000,-0.148000000000
7.109712715000,-0.145000000000
7.117398652000,-0.148000000000
7.125084589000,-0.140000000000
7.132770526000,-0.135000000000
7.140456463000,-0.143000000000
7.148142400000,-0.153000000000
7.155828337000,-0.190000000000
7.163514274000,-0.197000000000
7.171200211000,0.111000000000
7.178886148000,0.790000000000
7.186572085000,1.311000000000
7.194258022000,1.230000000000
7.201943959000,0.437000000000
7.209629896000,-0.513000000000
7.217315833000,-0.580000000000
7.225001770000,-0.121000000000
7.232687707000,-0.076000000000
7.240373644000,-0.160000000000
7.248059581000,-0.081000000000
7.255745518000,-0.061000000000
7.263431455000,-0.088000000000
7.271117392000,-0.056000000000
7.278803329000,-0.024000000000
7.286489266000,-0.022000000000
7.294175203000,0.000000000000
7.301861140000,0.037000000000
7.309547077000,0.061000000000
7.317233014000,0.086000000000
7.324918951000,0.118000000000
7.332604888000,0.153000000000
7.340290825000,0.192000000000
7.347976762000,0.237000000000
7.355662699000,0.281000000000
7.363348636000,0.323000000000
7.371034573000,0.355000000000
7.378720510000,0.375000000000
7.386406447000,0.385000000000
7.394092384000,0.380000000000
7.401778321000,0.365000000000
7.409464258000,0.340000000000
7.417150195000,0.298000000000
7.424836132000,0.237000000000
7.432522069000,0.145000000000
7.440208006000,0.029000000000
7.447893976000,-0.091000000000
7.455580192000,-0.200000000000
7.463266408000,-0.288000000000
7.470952624000,-0.348000000000
7.478638840000,-0.375000000000
7.486325056000,-0.385000000000
7.494011272000,-0.390000000000
7.501697488000,-0.387000000000
7.509383704000,-0.375000000000
7.517069920000,-0.360000000000
7.524756136000,-0.348000000000
7.532442352000,-0.335000000000
7.540128568000,-0.323000000000
7.547814784000,-0.311000000000
7.555501000000,-0.296000000000
7.563187216000,-0.281000000000
7.570873432000,-0.269000000000
7.578559648000,-0.259000000000
7.586245864000,-0.249000000000
7.593932080000,-0.246000000000
7.601618296000,-0.242000000000
7.609304512000,-0.234000000000
7.616990728000,-0.229000000000
7.624676944000,-0.227000000000
7.632363160000,-0.224000000000
7.640049376000,-0.222000000000
7.647735592000,-0.222000000000
7.655421808000,-0.219000000000
7.663108024000,-0.217000000000
7.670794240000,-0.214000000000
7.678480456000,-0.212000000000
7.686166672000,-0.209000000000
7.693852888000,-0.207000000000
7.701539104000,-0.205000000000
7.709225320000,-0.207000000000
7.716911536000,-0.212000000000
7.724597752000,-0.212000000000
7.732283968000,-0.200000000000
7.739970184000,-0.180000000000
7.747656400000,-0.165000000000
7.755342616000,-0.155000000000
7.763028832000,-0.140000000000
7.770715048000,-0.123000000000
7.778401264000,-0.135000000000
7.786087480000,-0.172000000000
7.793773696000,-0.190000000000
7.801459912000,-0.175000000000
7.809146128000,-0.167000000000
7.816832344000,-0.167000000000
7.824518560000,-0.163000000000
7.832204776000,-0.158000000000
7.839890992000,-0.155000000000
7.847577208000,-0.150000000000
7.855263424000,-0.150000000000
7.862949640000,-0.163000000000
7.870635856000,-0.202000000000
7.878322072000,-0.222000000000
7.886008288000,0.017000000000
7.893694504000,0.661000000000
7.901380720000,1.358000000000
7.909066936000,1.617000000000
7.916753152000,0.985000000000
7.924439368000,-0.288000000000
7.932125584000,-0.743000000000
7.939811800000,-0.209000000000
7.947498016000,-0.034000000000
7.955184232000,-0.219000000000
7.962870448000,-0.165000000000
7.970556664000,-0.083000000000
7.978242880000,-0.128000000000
7.985929096000,-0.111000000000
7.993615312000,-0.059000000000
8.001301528000,-0.049000000000
8.008987750000,-0.034000000000
8.016674035000,0.004000000000
8.024360320000,0.029000000000
8.032046605000,0.054000000000
8.039732890000,0.091000000000
8.047419175000,0.128000000000
8.055105460000,0.167000000000
8.062791745000,0.209000000000
8.070478030000,0.254000000000
8.078164315000,0.296000000000
8.085850600000,0.333000000000
8.093536885000,0.360000000000
8.101223170000,0.377000000000
8.108909455000,0.380000000000
8.116595740000,0.370000000000
8.124282025000,0.355000000000
8.131968310000,0.326000000000
8.139654595000,0.274000000000
8.147340880000,0.187000000000
8.155027165000,0.076000000000
8.162713450000,-0.041000000000
8.170399735000,-0.158000000000
8.178086020000,-0.256000000000
8.185772305000,-0.323000000000
8.193458590000,-0.363000000000
8.201144875000,-0.382000000000
8.208831160000,-0.387000000000
8.216517445000,-0.382000000000
8.224203730000,-0.372000000000
8.231890015000,-0.360000000000
8.239576300000,-0.348000000000
8.247262585000,-0.333000000000
8.254948870000,-0.318000000000
8.262635155000,-0.303000000000
8.270321440000,-0.288000000000
8.278007725000,-0.276000000000
8.285694010000,-0.264000000000
8.293380295000,-0.254000000000
8.301066580000,-0.244000000000
8.308752865000,-0.234000000000
8.316439150000,-0.229000000000
8.324125435000,-0.222000000000
8.331811720000,-0.219000000000
8.339498005000,-0.217000000000
8.347184290000,-0.214000000000
8.354870575000,-0.212000000000
8.362556860000,-0.209000000000
8.370243145000,-0.209000000000
8.377929430000,-0.207000000000
8.385615715000,-0.205000000000
8.393302000000,-0.200000000000
8.400988285000,-0.197000000000
8.408674570000,-0.195000000000
8.416360855000,-0.192000000000
8.424047140000,-0.195000000000
8.431733425000,-0.200000000000
8.439419710000,-0.197000000000
8.447105995000,-0.182000000000
8.454792280000,-0.160000000000
8.462478565000,-0.145000000000
8.470164850000,-0.135000000000
8.477851135000,-0.118000000000
8.485537420000,-0.111000000000
8.493223705000,-0.138000000000
8.500909990000,-0.172000000000
8.508596275000,-0.172000000000
8.516282560000,-0.158000000000
8.523968845000,-0.158000000000
8.531655130000,-0.155000000000
8.539341415000,-0.145000000000
8.547027700000,-0.143000000000
8.554713985000,-0.143000000000
8.562400270000,-0.138000000000
8.570086611000,-0.143000000000
8.577772896000,-0.163000000000
8.585459181000,-0.212000000000
8.593145466000,-0.202000000000
8.600831751000,0.143000000000
8.608518036000,0.874000000000
8.616204321000,1.558000000000
8.623890606000,1.677000000000
8.631576891000,0.773000000000
8.639263176000,-0.518000000000
8.646949461000,-0.666000000000
8.654635746000,-0.096000000000
8.662322031000,-0.081000000000
8.670008316000,-0.239000000000
8.677694601000,-0.133000000000
8.685380886000,-0.088000000000
8.693067171000,-0.135000000000
8.700753456000,-0.101000000000
8.708439741000,-0.059000000000
8.716126026000,-0.054000000000
8.723812311000,-0.027000000000
8.731498596000,0.009000000000
8.739184881000,0.034000000000
8.746871166000,0.064000000000
8.754557451000,0.103000000000
8.762243736000,0.140000000000
8.769930021000,0.180000000000
8.777616306000,0.224000000000
8.785302591000,0.271000000000
8.792988876000,0.313000000000
8.800675161000,0.350000000000
8.808361446000,0.375000000000
8.816047731000,0.387000000000
8.823734016000,0.387000000000
8.831420301000,0.377000000000
8.839106586000,0.360000000000
8.846792871000,0.323000000000
8.854479156000,0.259000000000
8.862165441000,0.163000000000
8.869851726000,0.044000000000
8.877538011000,-0.076000000000
8.885224296000,-0.192000000000
8.892910581000,-0.286000000000
8.900596866000,-0.345000000000
8.908283151000,-0.377000000000
8.915969436000,-0.392000000000
8.923655721000,-0.392000000000
8.931342006000,-0.387000000000
8.939028291000,-0.375000000000
8.946714576000,-0.365000000000
8.954400861000,-0.350000000000
8.962087146000,-0.335000000000
8.969773431000,-0.321000000000
8.977459716000,-0.308000000000
8.985146001000,-0.293000000000
8.992832286000,-0.281000000000
9.000518571000,-0.269000000000
9.008204856000,-0.256000000000
9.015891141000,-0.249000000000
9.023577426000,-0.244000000000
9.031263711000,-0.237000000000
9.038949996000,-0.232000000000
9.046636281000,-0.227000000000
9.054322566000,-0.227000000000
9.062008851000,-0.224000000000
9.069695136000,-0.219000000000
9.077381421000,-0.217000000000
9.085067706000,-0.217000000000
9.092753991000,-0.212000000000
9.100440276000,-0.209000000000
9.108126561000,-0.209000000000
9.115812846000,-0.205000000000
9.123499131000,-0.200000000000
9.131185472000,-0.197000000000
9.138871688000,-0.192000000000
9.146557904000,-0.192000000000
9.154244120000,-0.197000000000
9.161930336000,-0.200000000000
9.169616552000,-0.190000000000
9.177302768000,-0.167000000000
9.184988984000,-0.148000000000
9.192675200000,-0.140000000000
9.200361416000,-0.128000000000
9.208047632000,-0.113000000000
9.215733848000,-0.123000000000
9.223420064000,-0.160000000000
9.231106280000,-0.177000000000
9.238792496000,-0.167000000000
9.246478712000,-0.160000000000
9.254164928000,-0.158000000000
9.261851144000,-0.153000000000
9.269537360000,-0.148000000000
9.277223576000,-0.145000000000
9.284909792000,-0.143000000000
9.292596008000,-0.140000000000
9.300282224000,-0.148000000000
9.307968440000,-0.177000000000
9.315654656000,-0.227000000000
9.323340872000,-0.125000000000
9.331027088000,0.387000000000
9.338713304000,1.160000000000
9.346399520000,1.706000000000
9.354085736000,1.481000000000
9.361771952000,0.244000000000
9.369458168000,-0.755000000000
9.377144384000,-0.442000000000
9.384830600000,-0.004000000000
9.392516816000,-0.167000000000
9.400203032000,-0.217000000000
9.407889248000,-0.088000000000
9.415575464000,-0.106000000000
9.423261680000,-0.130000000000
9.430947896000,-0.071000000000
9.438634112000,-0.049000000000
9.446320328000,-0.044000000000
9.454006544000,-0.007000000000
9.461692760000,0.027000000000
9.469378976000,0.049000000000
9.477065192000,0.083000000000
9.484751408000,0.121000000000
9.492437624000,0.160000000000
9.500123840000,0.202000000000
9.507810056000,0.249000000000
9.515496272000,0.296000000000
9.523182488000,0.338000000000
9.530868704000,0.372000000000
9.538554920000,0.390000000000
9.546241136000,0.400000000000
9.553927352000,0.397000000000
9.561613568000,0.385000000000
9.569299784000,0.363000000000
9.576986000000,0.321000000000
9.584672216000,0.246000000000
9.592358432000,0.143000000000
9.600044648000,0.022000000000
9.607730864000,-0.103000000000
9.615417080000,-0.212000000000
9.623103296000,-0.293000000000
9.630789512000,-0.348000000000
9.638475728000,-0.372000000000
9.646161944000,-0.382000000000
9.653848160000,-0.382000000000
9.661534376000,-0.375000000000
9.669220592000,-0.363000000000
9.676906808000,-0.353000000000
9.684593024000,-0.338000000000
9.692279250000,-0.323000000000
9.699965187000,-0.308000000000
9.707651124000,-0.298000000000
9.715337061000,-0.286000000000
9.723022998000,-0.274000000000
9.730708935000,-0.261000000000
9.738394872000,-0.251000000000
9.746080809000,-0.242000000000
9.753766746000,-0.234000000000
9.761452683000,-0.232000000000
9.769138620000,-0.227000000000
9.776824557000,-0.224000000000
9.784510494000,-0.222000000000
9.792196431000,-0.219000000000
9.799882368000,-0.214000000000
9.807568305000,-0.214000000000
9.815254242000,-0.212000000000
9.822940179000,-0.209000000000
9.830626116000,-0.207000000000
9.838312053000,-0.205000000000
9.845997990000,-0.200000000000
9.853683927000,-0.195000000000
9.861369864000,-0.190000000000
9.869055801000,-0.187000000000
9.876741738000,-0.187000000000
9.884427675000,-0.195000000000
9.892113612000,-0.192000000000
9.899799549000,-0.180000000000
9.907485486000,-0.158000000000
9.915171423000,-0.140000000000
9.922857360000,-0.133000000000
9.930543297000,-0.116000000000
9.938229234000,-0.106000000000
9.945915171000,-0.128000000000
9.953601108000,-0.165000000000
9.961287045000,-0.170000000000
9.968972982000,-0.155000000000
9.976658919000,-0.153000000000
9.984344856000,-0.150000000000
9.992030793000,-0.143000000000
9.999716730000,-0.140000000000
10.007402667000,-0.138000000000
10.015088604000,-0.133000000000
10.022774541000,-0.133000000000
10.030460478000,-0.148000000000
10.038146415000,-0.190000000000
10.045832352000,-0.227000000000
10.053518289000,-0.027000000000
10.061204226000,0.612000000000
10.068890163000,1.388000000000
10.076576100000,1.783000000000
10.084262037000,1.230000000000
10.091947974000,-0.158000000000
10.099633911000,-0.782000000000
10.107319848000,-0.251000000000
10.115005785000,-0.014000000000
10.122691722000,-0.219000000000
10.130377659000,-0.172000000000
10.138063596000,-0.074000000000
10.145749533000,-0.121000000000
10.153435470000,-0.113000000000
10.161121407000,-0.054000000000
10.168807344000,-0.044000000000
10.176493281000,-0.032000000000
10.184179218000,0.007000000000
10.191865155000,0.037000000000
10.199551092000,0.061000000000
10.207237029000,0.098000000000
10.214922966000,0.138000000000
10.222608903000,0.175000000000
10.230294840000,0.219000000000
10.237980777000,0.269000000000
10.245666714000,0.316000000000
10.253352676000,0.355000000000
10.261038961000,0.385000000000
10.268725246000,0.400000000000
10.276411531000,0.405000000000
10.284097816000,0.400000000000
10.291784101000,0.385000000000
10.299470386000,0.355000000000
10.307156671000,0.303000000000
10.314842956000,0.219000000000
10.322529241000,0.108000000000
10.330215526000,-0.014000000000
10.337901811000,-0.135000000000
10.345588096000,-0.239000000000
10.353274381000,-0.311000000000
10.360960666000,-0.355000000000
10.368646951000,-0.377000000000
10.376333236000,-0.385000000000
10.384019521000,-0.377000000000
10.391705806000,-0.368000000000
10.399392091000,-0.355000000000
10.407078376000,-0.343000000000
10.414764661000,-0.328000000000
10.422450946000,-0.313000000000
10.430137231000,-0.298000000000
10.437823516000,-0.284000000000
10.445509801000,-0.271000000000
10.453196086000,-0.259000000000
10.460882371000,-0.246000000000
10.468568656000,-0.237000000000
10.476254941000,-0.227000000000
10.483941226000,-0.222000000000
10.491627511000,-0.217000000000
10.499313796000,-0.214000000000
10.507000081000,-0.212000000000
10.514686366000,-0.209000000000
10.522372651000,-0.205000000000
10.530058936000,-0.202000000000
10.537745221000,-0.197000000000
10.545431506000,-0.197000000000
10.553117791000,-0.195000000000
10.560804076000,-0.190000000000
10.568490361000,-0.187000000000
10.576176646000,-0.185000000000
10.583862931000,-0.177000000000
10.591549216000,-0.177000000000
10.599235501000,-0.175000000000
10.606921786000,-0.167000000000
10.614608071000,-0.165000000000
10.622294356000,-0.167000000000
10.629980641000,-0.167000000000
10.637666926000,-0.160000000000
10.645353211000,-0.138000000000
10.653039496000,-0.118000000000
10.660725781000,-0.108000000000
10.668412066000,-0.098000000000
10.676098351000,-0.083000000000
10.683784636000,-0.098000000000
10.691470921000,-0.138000000000
10.699157206000,-0.150000000000
10.706843491000,-0.138000000000
10.714529776000,-0.133000000000
10.722216061000,-0.130000000000
10.729902346000,-0.125000000000
10.737588631000,-0.118000000000
10.745274916000,-0.116000000000
10.752961201000,-0.116000000000
10.760647486000,-0.116000000000
10.768333771000,-0.118000000000
10.776020056000,-0.155000000000
10.783706341000,-0.214000000000
10.791392626000,-0.066000000000
10.799078911000,0.516000000000
10.806765196000,1.281000000000
10.814451541000,1.738000000000
10.822137826000,1.341000000000
10.829824111000,0.034000000000
10.837510396000,-0.750000000000
10.845196681000,-0.303000000000
10.852882966000,0.017000000000
10.860569251000,-0.175000000000
10.868255536000,-0.163000000000
10.875941821000,-0.046000000000
10.883628106000,-0.088000000000
10.891314391000,-0.096000000000
10.899000676000,-0.034000000000
10.906686961000,-0.017000000000
10.914373246000,-0.004000000000
10.922059531000,0.029000000000
10.929745816000,0.056000000000
10.937432101000,0.083000000000
10.945118386000,0.121000000000
10.952804671000,0.158000000000
10.960490956000,0.195000000000
10.968177241000,0.234000000000
10.975863526000,0.286000000000
10.983549811000,0.335000000000
10.991236096000,0.375000000000
10.998922381000,0.405000000000
11.006608666000,0.424000000000
11.014294951000,0.434000000000
11.021981236000,0.434000000000
11.029667521000,0.417000000000
11.037353806000,0.387000000000
11.045040091000,0.338000000000
11.052726376000,0.261000000000
11.060412661000,0.160000000000
11.068098946000,0.032000000000
11.075785231000,-0.098000000000
11.083471516000,-0.205000000000
11.091157801000,-0.284000000000
11.098844086000,-0.335000000000
11.106530371000,-0.358000000000
11.114216656000,-0.360000000000
11.121902941000,-0.363000000000
11.129589226000,-0.358000000000
11.137275511000,-0.345000000000
11.144961796000,-0.333000000000
11.152648081000,-0.326000000000
11.160334366000,-0.311000000000
11.168020651000,-0.291000000000
11.175706936000,-0.279000000000
11.183393221000,-0.266000000000
11.191079506000,-0.249000000000
11.198765791000,-0.234000000000
11.206452076000,-0.229000000000
11.214138361000,-0.224000000000
11.221824646000,-0.224000000000
11.229510931000,-0.217000000000
11.237197216000,-0.209000000000
11.244883501000,-0.209000000000
11.252569786000,-0.207000000000
11.260256071000,-0.197000000000
11.267942356000,-0.192000000000
11.275628641000,-0.197000000000
11.283314926000,-0.197000000000
11.291001211000,-0.192000000000
11.298687496000,-0.187000000000
11.306373781000,-0.185000000000
11.314060066000,-0.187000000000
11.321746351000,-0.185000000000
11.329432636000,-0.185000000000
11.337118921000,-0.187000000000
11.344805206000,-0.177000000000
11.352491491000,-0.160000000000
11.360177776000,-0.143000000000
11.367864061000,-0.128000000000
11.375550402000,-0.121000000000
11.383236478000,-0.116000000000
11.390922554000,-0.123000000000
11.398608630000,-0.150000000000
11.406294706000,-0.170000000000
11.413980782000,-0.165000000000
11.421666858000,-0.155000000000
11.429352934000,-0.150000000000
11.437039010000,-0.140000000000
11.444725086000,-0.138000000000
11.452411162000,-0.140000000000
11.460097238000,-0.133000000000
11.467783314000,-0.133000000000
11.475469390000,-0.148000000000
11.483155466000,-0.170000000000
11.490841542000,-0.212000000000
11.498527618000,-0.106000000000
11.506213694000,0.422000000000
11.513899770000,1.136000000000
11.521585846000,1.469000000000
11.529271922000,1.069000000000
11.536957998000,-0.009000000000
11.544644074000,-0.694000000000
11.552330150000,-0.345000000000
11.560016226000,-0.012000000000
11.567702302000,-0.135000000000
11.575388378000,-0.140000000000
11.583074454000,-0.051000000000
11.590760530000,-0.069000000000
11.598446606000,-0.064000000000
11.606132682000,-0.022000000000
11.613818758000,-0.012000000000
11.621504834000,0.004000000000
11.629190910000,0.041000000000
11.636876986000,0.071000000000
11.644563062000,0.098000000000
11.652249138000,0.130000000000
11.659935214000,0.158000000000
11.667621290000,0.200000000000
11.675307366000,0.251000000000
11.682993442000,0.286000000000
11.690679518000,0.333000000000
11.698365594000,0.385000000000
11.706051670000,0.412000000000
11.713737746000,0.432000000000
11.721423822000,0.439000000000
11.729109898000,0.424000000000
11.736795974000,0.407000000000
11.744482050000,0.382000000000
11.752168126000,0.323000000000
11.759854202000,0.232000000000
11.767540278000,0.133000000000
11.775226354000,0.022000000000
11.782912430000,-0.106000000000
11.790598506000,-0.222000000000
11.798284582000,-0.291000000000
11.805970658000,-0.335000000000
11.813656734000,-0.365000000000
11.821342810000,-0.365000000000
11.829028886000,-0.353000000000
11.836714962000,-0.350000000000
11.844401038000,-0.353000000000
11.852087114000,-0.340000000000
11.859773190000,-0.323000000000
11.867459266000,-0.306000000000
11.875145342000,-0.288000000000
11.882831418000,-0.281000000000
11.890517494000,-0.269000000000
11.898203570000,-0.249000000000
11.905889646000,-0.246000000000
11.913575722000,-0.246000000000
11.921261798000,-0.232000000000
11.928947874000,-0.214000000000
11.936634006000,-0.214000000000
11.944320082000,-0.212000000000
11.952006158000,-0.200000000000
11.959692234000,-0.200000000000
11.967378310000,-0.200000000000
11.975064386000,-0.200000000000
11.982750462000,-0.200000000000
11.990436538000,-0.192000000000
11.998122614000,-0.192000000000
12.005808690000,-0.195000000000
12.013494766000,-0.192000000000
12.021180842000,-0.195000000000
12.028866918000,-0.195000000000
12.036552994000,-0.195000000000
12.044239070000,-0.190000000000
12.051925146000,-0.172000000000
12.059611222000,-0.150000000000
12.067297298000,-0.138000000000
12.074983374000,-0.130000000000
12.082669450000,-0.128000000000
12.090355526000,-0.155000000000
12.098041602000,-0.185000000000
12.105727678000,-0.185000000000
12.113413754000,-0.175000000000
12.121099830000,-0.170000000000
12.128785906000,-0.167000000000
12.136471982000,-0.167000000000
12.144158058000,-0.167000000000
12.151844134000,-0.163000000000
12.159530210000,-0.158000000000
12.167216286000,-0.165000000000
12.174902362000,-0.177000000000
12.182588438000,-0.222000000000
12.190274514000,-0.195000000000
12.197960590000,0.195000000000
12.205646666000,0.886000000000
12.213332742000,1.323000000000
12.221018818000,1.121000000000
12.228704894000,0.227000000000
12.236390970000,-0.634000000000
12.244077046000,-0.531000000000
12.251763122000,-0.098000000000
12.259449198000,-0.123000000000
12.267135274000,-0.182000000000
12.274821350000,-0.093000000000
12.282507426000,-0.086000000000
12.290193502000,-0.103000000000
12.297879578000,-0.064000000000
12.305565654000,-0.044000000000
12.313251730000,-0.041000000000
12.320937806000,-0.009000000000
12.328623882000,0.024000000000
12.336309958000,0.044000000000
12.343996034000,0.076000000000
12.351682110000,0.113000000000
12.359368186000,0.145000000000
12.367054262000,0.185000000000
12.374740338000,0.232000000000
12.382426414000,0.274000000000
12.390112490000,0.311000000000
12.397798566000,0.343000000000
12.405484642000,0.363000000000
12.413170718000,0.365000000000
12.420856794000,0.355000000000
12.428542870000,0.343000000000
12.436228946000,0.318000000000
12.443915022000,0.276000000000
12.451601098000,0.202000000000
12.459287174000,0.103000000000
12.466973250000,-0.009000000000
12.474659326000,-0.125000000000
12.482345402000,-0.232000000000
12.490031478000,-0.311000000000
12.497717606000,-0.358000000000
12.505403891000,-0.385000000000
12.513090176000,-0.397000000000
12.520776461000,-0.392000000000
12.528462746000,-0.385000000000
12.536149031000,-0.377000000000
12.543835316000,-0.365000000000
12.551521601000,-0.350000000000
12.559207886000,-0.338000000000
12.566894171000,-0.323000000000
12.574580456000,-0.311000000000
12.582266741000,-0.296000000000
12.589953026000,-0.284000000000
12.597639311000,-0.271000000000
12.605325596000,-0.259000000000
12.613011881000,-0.249000000000
12.620698166000,-0.244000000000
12.628384451000,-0.239000000000
12.636070736000,-0.234000000000
12.643757021000,-0.232000000000
12.651443306000,-0.229000000000
12.659129591000,-0.227000000000
12.666815876000,-0.224000000000
12.674502161000,-0.222000000000
12.682188446000,-0.219000000000
12.689874731000,-0.217000000000
12.697561016000,-0.214000000000
12.705247301000,-0.214000000000
12.712933586000,-0.209000000000
12.720619871000,-0.205000000000
12.728306156000,-0.209000000000
12.735992441000,-0.214000000000
12.743678726000,-0.214000000000
12.751365011000,-0.202000000000
12.759051296000,-0.182000000000
12.766737581000,-0.170000000000
12.774423866000,-0.158000000000
12.782110151000,-0.143000000000
12.789796436000,-0.130000000000
12.797482721000,-0.145000000000
12.805169006000,-0.180000000000
12.812855291000,-0.190000000000
12.820541576000,-0.175000000000
12.828227861000,-0.170000000000
12.835914146000,-0.170000000000
12.843600431000,-0.160000000000
12.851286716000,-0.158000000000
12.858973001000,-0.155000000000
12.866659286000,-0.148000000000
12.874345571000,-0.153000000000
12.882031856000,-0.175000000000
12.889718141000,-0.219000000000
12.897404426000,-0.190000000000
12.905090711000,0.187000000000
12.912776996000,0.908000000000
12.920463281000,1.526000000000
12.928149566000,1.563000000000
12.935835851000,0.624000000000
12.943522136000,-0.575000000000
12.951208421000,-0.624000000000
12.958894706000,-0.076000000000
12.966580991000,-0.096000000000
12.974267276000,-0.234000000000
12.981953561000,-0.125000000000
12.989639846000,-0.093000000000
12.997326131000,-0.135000000000
13.005012416000,-0.091000000000
13.012698701000,-0.049000000000
13.020384986000,-0.046000000000
13.028071271000,-0.019000000000
13.035757556000,0.017000000000
13.043443841000,0.039000000000
13.051130126000,0.066000000000
13.058816467000,0.108000000000
13.066502752000,0.145000000000
13.074189037000,0.180000000000
13.081875322000,0.227000000000
13.089561607000,0.271000000000
13.097247892000,0.313000000000
13.104934177000,0.350000000000
13.112620462000,0.375000000000
13.120306747000,0.387000000000
13.127993032000,0.387000000000
13.135679317000,0.377000000000
13.143365602000,0.355000000000
13.151051887000,0.318000000000
13.158738172000,0.254000000000
13.166424457000,0.158000000000
13.174110742000,0.041000000000
13.181797027000,-0.079000000000
13.189483312000,-0.192000000000
13.197169597000,-0.284000000000
13.204855882000,-0.343000000000
13.212542167000,-0.372000000000
13.220228452000,-0.385000000000
13.227914737000,-0.385000000000
13.235601022000,-0.380000000000
13.243287307000,-0.372000000000
13.250973592000,-0.360000000000
13.258659877000,-0.345000000000
13.266346162000,-0.328000000000
13.274032447000,-0.316000000000
13.281718732000,-0.301000000000
13.289405017000,-0.286000000000
13.297091302000,-0.274000000000
13.304777587000,-0.264000000000
13.312463872000,-0.251000000000
13.320150157000,-0.244000000000
13.327836442000,-0.239000000000
13.335522727000,-0.234000000000
13.343209012000,-0.227000000000
13.350895297000,-0.224000000000
13.358581582000,-0.222000000000
13.366267867000,-0.219000000000
13.373954152000,-0.217000000000
13.381640437000,-0.217000000000
13.389326722000,-0.214000000000
13.397013007000,-0.212000000000
13.404699292000,-0.209000000000
13.412385577000,-0.207000000000
13.420071862000,-0.212000000000
13.427758147000,-0.214000000000
13.435444432000,-0.209000000000
13.443130717000,-0.195000000000
13.450817002000,-0.177000000000
13.458503287000,-0.165000000000
13.466189572000,-0.153000000000
13.473875857000,-0.133000000000
13.481562142000,-0.128000000000
13.489248427000,-0.155000000000
13.496934712000,-0.187000000000
13.504620997000,-0.185000000000
13.512307282000,-0.170000000000
13.519993567000,-0.167000000000
13.527679852000,-0.163000000000
13.535366137000,-0.160000000000
13.543052422000,-0.158000000000
13.550738707000,-0.153000000000
13.558424992000,-0.150000000000
13.566111277000,-0.160000000000
13.573797562000,-0.192000000000
13.581483847000,-0.246000000000
13.589170132000,-0.160000000000
13.596856417000,0.345000000000
13.604542702000,1.141000000000
13.612228987000,1.741000000000
13.619915332000,1.583000000000
13.627601199000,0.350000000000
13.635287066000,-0.745000000000
13.642972933000,-0.498000000000
13.650658800000,-0.027000000000
13.658344667000,-0.170000000000
13.666030534000,-0.234000000000
13.673716401000,-0.106000000000
13.681402268000,-0.116000000000
13.689088135000,-0.143000000000
13.696774002000,-0.086000000000
13.704459869000,-0.056000000000
13.712145736000,-0.051000000000
13.719831603000,-0.017000000000
13.727517470000,0.017000000000
13.735203337000,0.041000000000
13.742889204000,0.076000000000
13.750575071000,0.116000000000
13.758260938000,0.153000000000
13.765946805000,0.197000000000
13.773632672000,0.246000000000
13.781318539000,0.293000000000
13.789004406000,0.338000000000
13.796690273000,0.372000000000
13.804376140000,0.395000000000
13.812062007000,0.402000000000
13.819747874000,0.397000000000
13.827433741000,0.387000000000
13.835119608000,0.365000000000
13.842805475000,0.318000000000
13.850491342000,0.239000000000
13.858177209000,0.128000000000
13.865863076000,0.002000000000
13.873548943000,-0.123000000000
13.881234810000,-0.232000000000
13.888920677000,-0.313000000000
13.896606544000,-0.363000000000
13.904292411000,-0.390000000000
13.911978278000,-0.400000000000
13.919664145000,-0.397000000000
13.927350012000,-0.387000000000
13.935035879000,-0.377000000000
13.942721746000,-0.363000000000
13.950407613000,-0.348000000000
13.958093480000,-0.333000000000
13.965779347000,-0.318000000000
13.973465214000,-0.306000000000
13.981151081000,-0.293000000000
13.988836948000,-0.279000000000
13.996522815000,-0.266000000000
14.004208682000,-0.259000000000
14.011894549000,-0.251000000000
14.019580416000,-0.244000000000
14.027266283000,-0.237000000000
14.034952150000,-0.234000000000
14.042638017000,-0.232000000000
14.050323884000,-0.227000000000
14.058009751000,-0.222000000000
14.065695618000,-0.222000000000
14.073381485000,-0.222000000000
14.081067352000,-0.217000000000
14.088753219000,-0.214000000000
14.096439086000,-0.212000000000
14.104124953000,-0.214000000000
14.111810820000,-0.219000000000
14.119496687000,-0.217000000000
14.127182554000,-0.207000000000
14.134868421000,-0.187000000000
14.142554288000,-0.172000000000
14.150240155000,-0.163000000000
14.157926022000,-0.143000000000
14.165611889000,-0.130000000000
14.173297756000,-0.153000000000
14.180983675000,-0.187000000000
14.188669960000,-0.192000000000
14.196356245000,-0.180000000000
14.204042530000,-0.175000000000
14.211728815000,-0.170000000000
14.219415100000,-0.165000000000
14.227101385000,-0.160000000000
14.234787670000,-0.155000000000
14.242473955000,-0.153000000000
14.250160240000,-0.163000000000
14.257846525000,-0.187000000000
14.265532810000,-0.246000000000
14.273219095000,-0.214000000000
14.280905380000,0.209000000000
14.288591665000,0.997000000000
14.296277950000,1.686000000000
14.303964235000,1.696000000000
14.311650520000,0.580000000000
14.319336805000,-0.671000000000
14.327023090000,-0.602000000000
14.334709375000,-0.064000000000
14.342395660000,-0.145000000000
14.350081945000,-0.249000000000
14.357768230000,-0.121000000000
14.365454515000,-0.116000000000
14.373140800000,-0.153000000000
14.380827085000,-0.098000000000
14.388513370000,-0.064000000000
14.396199655000,-0.061000000000
14.403885940000,-0.032000000000
14.411572225000,0.004000000000
14.419258510000,0.029000000000
14.426944795000,0.061000000000
14.434631080000,0.103000000000
14.442317365000,0.143000000000
14.450003650000,0.185000000000
14.457689935000,0.234000000000
14.465376220000,0.281000000000
14.473062505000,0.321000000000
14.480748790000,0.358000000000
14.488435075000,0.385000000000
14.496121360000,0.395000000000
14.503807645000,0.392000000000
14.511493930000,0.382000000000
14.519180215000,0.363000000000
14.526866500000,0.321000000000
14.534552785000,0.249000000000
14.542239070000,0.145000000000
14.549925355000,0.027000000000
14.557611640000,-0.098000000000
14.565297925000,-0.212000000000
14.572984210000,-0.296000000000
14.580670495000,-0.348000000000
14.588356780000,-0.375000000000
14.596043065000,-0.387000000000
14.603729350000,-0.387000000000
14.611415635000,-0.380000000000
14.619101920000,-0.370000000000
14.626788205000,-0.358000000000
14.634474490000,-0.343000000000
14.642160775000,-0.326000000000
14.649847060000,-0.311000000000
14.657533345000,-0.296000000000
14.665219630000,-0.284000000000
14.672905915000,-0.274000000000
14.680592200000,-0.259000000000
14.688278485000,-0.246000000000
14.695964770000,-0.239000000000
14.703651055000,-0.234000000000
14.711337340000,-0.229000000000
14.719023625000,-0.227000000000
14.726709910000,-0.222000000000
14.734396195000,-0.217000000000
14.742082536000,-0.217000000000
14.749768612000,-0.217000000000
14.757454688000,-0.212000000000
14.765140764000,-0.207000000000
14.772826840000,-0.209000000000
14.780512916000,-0.214000000000
14.788198992000,-0.219000000000
14.795885068000,-0.212000000000
14.803571144000,-0.197000000000
14.811257220000,-0.180000000000
14.818943296000,-0.167000000000
14.826629372000,-0.158000000000
14.834315448000,-0.138000000000
14.842001524000,-0.138000000000
14.849687600000,-0.170000000000
14.857373676000,-0.195000000000
14.865059752000,-0.185000000000
14.872745828000,-0.175000000000
14.880431904000,-0.175000000000
14.888117980000,-0.170000000000
14.895804056000,-0.163000000000
14.903490132000,-0.160000000000
14.911176208000,-0.155000000000
14.918862284000,-0.155000000000
14.926548360000,-0.167000000000
14.934234436000,-0.217000000000
14.941920512000,-0.244000000000
14.949606588000,0.004000000000
14.957292664000,0.691000000000
14.964978740000,1.474000000000
14.972664816000,1.810000000000
14.980350892000,1.108000000000
14.988036968000,-0.308000000000
14.995723044000,-0.768000000000
15.003409120000,-0.200000000000
15.011095196000,-0.054000000000
15.018781272000,-0.244000000000
15.026467348000,-0.165000000000
15.034153424000,-0.091000000000
15.041839500000,-0.143000000000
15.049525576000,-0.118000000000
15.057211652000,-0.064000000000
15.064897728000,-0.059000000000
15.072583804000,-0.037000000000
15.080269880000,0.004000000000
15.087955956000,0.029000000000
15.095642032000,0.054000000000
15.103328108000,0.093000000000
15.111014184000,0.133000000000
15.118700260000,0.170000000000
15.126386336000,0.217000000000
15.134072412000,0.266000000000
15.141758488000,0.311000000000
15.149444564000,0.350000000000
15.157130640000,0.377000000000
15.164816716000,0.390000000000
15.172502792000,0.392000000000
15.180188868000,0.385000000000
15.187874944000,0.370000000000
15.195561020000,0.338000000000
15.203247096000,0.279000000000
15.210933172000,0.185000000000
15.218619248000,0.069000000000
15.226305324000,-0.054000000000
15.233991400000,-0.172000000000
15.241677476000,-0.269000000000
15.249363552000,-0.333000000000
15.257049628000,-0.370000000000
15.264735704000,-0.387000000000
15.272421780000,-0.387000000000
15.280107856000,-0.380000000000
15.287793932000,-0.372000000000
15.295480008000,-0.363000000000
15.303166140000,-0.345000000000
15.310852216000,-0.330000000000
15.318538292000,-0.318000000000
15.326224368000,-0.303000000000
15.333910444000,-0.288000000000
15.341596520000,-0.279000000000
15.349282596000,-0.269000000000
15.356968672000,-0.259000000000
15.364654748000,-0.249000000000
15.372340824000,-0.242000000000
15.380026900000,-0.239000000000
15.387712976000,-0.234000000000
15.395399052000,-0.229000000000
15.403085128000,-0.227000000000
15.410771204000,-0.224000000000
15.418457280000,-0.219000000000
15.426143356000,-0.219000000000
15.433829432000,-0.219000000000
15.441515508000,-0.222000000000
15.449201584000,-0.227000000000
15.456887660000,-0.224000000000
15.464573736000,-0.209000000000
15.472259812000,-0.190000000000
15.479945888000,-0.180000000000
15.487631964000,-0.172000000000
15.495318040000,-0.150000000000
15.503004116000,-0.135000000000
15.510690192000,-0.163000000000
15.518376268000,-0.200000000000
15.526062344000,-0.200000000000
15.533748420000,-0.182000000000
15.541434496000,-0.182000000000
15.549120572000,-0.180000000000
15.556806648000,-0.167000000000
15.564492724000,-0.163000000000
15.572178800000,-0.160000000000
15.579864876000,-0.155000000000
15.587550952000,-0.158000000000
15.595237028000,-0.192000000000
15.602923104000,-0.249000000000
15.610609180000,-0.135000000000
15.618295256000,0.412000000000
15.625981332000,1.202000000000
15.633667408000,1.743000000000
15.641353484000,1.464000000000
15.649039560000,0.170000000000
15.656725636000,-0.778000000000
15.664411712000,-0.410000000000
15.672097788000,-0.009000000000
15.679783864000,-0.192000000000
15.687469940000,-0.217000000000
15.695156016000,-0.086000000000
15.702842092000,-0.108000000000
15.710528168000,-0.125000000000
15.718214244000,-0.069000000000
15.725900320000,-0.049000000000
15.733586396000,-0.037000000000
15.741272472000,0.007000000000
15.748958548000,0.037000000000
15.756644624000,0.059000000000
15.764330700000,0.101000000000
15.772016776000,0.143000000000
15.779702852000,0.172000000000
15.787388928000,0.219000000000
15.795075004000,0.274000000000
15.802761080000,0.316000000000
15.810447156000,0.358000000000
15.818133232000,0.392000000000
15.825819308000,0.412000000000
15.833505384000,0.417000000000
15.841191460000,0.410000000000
15.848877536000,0.395000000000
15.856563612000,0.370000000000
15.864249740000,0.316000000000
15.871936025000,0.229000000000
15.879622310000,0.123000000000
15.887308595000,0.002000000000
15.894994880000,-0.121000000000
15.902681165000,-0.229000000000
15.910367450000,-0.303000000000
15.918053735000,-0.343000000000
15.925740020000,-0.365000000000
15.933426305000,-0.372000000000
15.941112590000,-0.372000000000
15.948798875000,-0.365000000000
15.956485160000,-0.353000000000
15.964171445000,-0.333000000000
15.971857730000,-0.318000000000
15.979544015000,-0.308000000000
15.987230300000,-0.296000000000
15.994916585000,-0.279000000000
16.002602870000,-0.261000000000
16.010289155000,-0.251000000000
16.017975440000,-0.244000000000
16.025661725000,-0.234000000000
16.033348010000,-0.229000000000
16.041034295000,-0.229000000000
16.048720580000,-0.217000000000
16.056406865000,-0.205000000000
16.064093150000,-0.202000000000
16.071779435000,-0.205000000000
16.079465720000,-0.205000000000
16.087152005000,-0.200000000000
16.094838290000,-0.205000000000
16.102524575000,-0.207000000000
16.110210860000,-0.202000000000
16.117897145000,-0.195000000000
16.125583430000,-0.175000000000
16.133269715000,-0.160000000000
16.140956000000,-0.160000000000
16.148642285000,-0.153000000000
16.156328570000,-0.123000000000
16.164014855000,-0.128000000000
16.171701140000,-0.170000000000
16.179387425000,-0.187000000000
16.187073710000,-0.170000000000
16.194759995000,-0.170000000000
16.202446280000,-0.177000000000
16.210132565000,-0.167000000000
16.217818850000,-0.153000000000
16.225505135000,-0.153000000000
16.233191420000,-0.150000000000
16.240877705000,-0.148000000000
16.248563990000,-0.158000000000
16.256250275000,-0.190000000000
16.263936560000,-0.219000000000
16.271622845000,0.000000000000
16.279309130000,0.637000000000
16.286995415000,1.286000000000
16.294681700000,1.412000000000
16.302367985000,0.743000000000
16.310054270000,-0.355000000000
16.317740555000,-0.671000000000
16.325426840000,-0.200000000000
16.333113125000,-0.049000000000
16.340799410000,-0.170000000000
16.348485695000,-0.108000000000
16.356171980000,-0.056000000000
16.363858265000,-0.091000000000
16.371544550000,-0.069000000000
16.379230835000,-0.024000000000
16.386917120000,-0.017000000000
16.394603405000,0.002000000000
16.402289690000,0.041000000000
16.409975975000,0.061000000000
16.417662260000,0.083000000000
16.425348601000,0.125000000000
16.433034886000,0.167000000000
16.440721171000,0.205000000000
16.448407456000,0.246000000000
16.456093741000,0.291000000000
16.463780026000,0.328000000000
16.471466311000,0.363000000000
16.479152596000,0.385000000000
16.486838881000,0.395000000000
16.494525166000,0.392000000000
16.502211451000,0.377000000000
16.509897736000,0.358000000000
16.517584021000,0.323000000000
16.525270306000,0.259000000000
16.532956591000,0.163000000000
16.540642876000,0.051000000000
16.548329161000,-0.066000000000
16.556015446000,-0.182000000000
16.563701731000,-0.274000000000
16.571388016000,-0.333000000000
16.579074301000,-0.368000000000
16.586760586000,-0.387000000000
16.594446871000,-0.387000000000
16.602133156000,-0.382000000000
16.609819441000,-0.375000000000
16.617505726000,-0.360000000000
16.625192011000,-0.345000000000
16.632878296000,-0.333000000000
16.640564581000,-0.321000000000
16.648250866000,-0.306000000000
16.655937151000,-0.291000000000
16.663623436000,-0.279000000000
16.671309721000,-0.266000000000
16.678996006000,-0.256000000000
16.686682291000,-0.251000000000
16.694368576000,-0.246000000000
16.702054861000,-0.244000000000
16.709741146000,-0.239000000000
16.717427431000,-0.239000000000
16.725113716000,-0.234000000000
16.732800001000,-0.232000000000
16.740486286000,-0.229000000000
16.748172571000,-0.229000000000
16.755858856000,-0.224000000000
16.763545141000,-0.224000000000
16.771231426000,-0.232000000000
16.778917711000,-0.237000000000
16.786603996000,-0.232000000000
16.794290281000,-0.219000000000
16.801976566000,-0.205000000000
16.809662851000,-0.192000000000
16.817349136000,-0.182000000000
16.825035421000,-0.163000000000
16.832721706000,-0.153000000000
16.840407991000,-0.175000000000
16.848094276000,-0.209000000000
16.855780561000,-0.212000000000
16.863466846000,-0.200000000000
16.871153131000,-0.197000000000
16.878839416000,-0.190000000000
16.886525701000,-0.182000000000
16.894211986000,-0.180000000000
16.901898271000,-0.177000000000
16.909584556000,-0.175000000000
16.917270841000,-0.180000000000
16.924957126000,-0.207000000000
16.932643411000,-0.259000000000
16.940329696000,-0.158000000000
16.948015981000,0.360000000000
16.955702266000,1.121000000000
16.963388551000,1.605000000000
16.971074836000,1.311000000000
16.978761121000,0.101000000000
16.986447462000,-0.778000000000
16.994133747000,-0.429000000000
17.001820032000,-0.037000000000
17.009506317000,-0.195000000000
17.017192602000,-0.222000000000
17.024878887000,-0.106000000000
17.032565172000,-0.125000000000
17.040251457000,-0.140000000000
17.047937742000,-0.086000000000
17.055624027000,-0.064000000000
17.063310312000,-0.054000000000
17.070996597000,-0.019000000000
17.078682882000,0.009000000000
17.086369167000,0.034000000000
17.094055452000,0.069000000000
17.101741737000,0.106000000000
17.109428022000,0.143000000000
17.117114307000,0.185000000000
17.124800592000,0.229000000000
17.132486877000,0.271000000000
17.140173162000,0.311000000000
17.147859447000,0.340000000000
17.155545732000,0.355000000000
17.163232017000,0.360000000000
17.170918302000,0.353000000000
17.178604587000,0.340000000000
17.186290872000,0.318000000000
17.193977157000,0.274000000000
17.201663442000,0.197000000000
17.209349727000,0.093000000000
17.217036012000,-0.022000000000
17.224722297000,-0.138000000000
17.232408582000,-0.239000000000
17.240094867000,-0.313000000000
17.247781152000,-0.355000000000
17.255467437000,-0.375000000000
17.263153722000,-0.382000000000
17.270840007000,-0.382000000000
17.278526292000,-0.375000000000
17.286212577000,-0.365000000000
17.293898862000,-0.348000000000
17.301585147000,-0.333000000000
17.309271432000,-0.318000000000
17.316957717000,-0.303000000000
17.324644002000,-0.291000000000
17.332330287000,-0.279000000000
17.340016572000,-0.266000000000
17.347702857000,-0.256000000000
17.355389142000,-0.249000000000
17.363075427000,-0.239000000000
17.370761712000,-0.237000000000
17.378447997000,-0.234000000000
17.386134282000,-0.229000000000
17.393820567000,-0.229000000000
17.401506852000,-0.227000000000
17.409193137000,-0.222000000000
17.416879422000,-0.222000000000
17.424565707000,-0.222000000000
17.432251992000,-0.219000000000
17.439938277000,-0.214000000000
17.447624562000,-0.212000000000
17.455310847000,-0.217000000000
17.462997132000,-0.224000000000
17.470683417000,-0.217000000000
17.478369702000,-0.200000000000
17.486055987000,-0.182000000000
17.493742272000,-0.170000000000
17.501428557000,-0.160000000000
17.509114842000,-0.140000000000
17.516801127000,-0.133000000000
17.524487412000,-0.163000000000
17.532173697000,-0.195000000000
17.539859982000,-0.192000000000
17.547546327000,-0.177000000000
17.555232194000,-0.175000000000
17.562918061000,-0.172000000000
17.570603928000,-0.165000000000
17.578289795000,-0.160000000000
17.585975662000,-0.158000000000
17.593661529000,-0.155000000000
17.601347396000,-0.163000000000
17.609033263000,-0.195000000000
17.616719130000,-0.251000000000
17.624404997000,-0.158000000000
17.632090864000,0.355000000000
17.639776731000,1.136000000000
17.647462598000,1.677000000000
17.655148465000,1.439000000000
17.662834332000,0.205000000000
17.670520199000,-0.765000000000
17.678206066000,-0.447000000000
17.685891933000,-0.022000000000
17.693577800000,-0.180000000000
17.701263667000,-0.219000000000
17.708949534000,-0.093000000000
17.716635401000,-0.116000000000
17.724321268000,-0.135000000000
17.732007135000,-0.076000000000
17.739693002000,-0.051000000000
17.747378869000,-0.046000000000
17.755064736000,-0.009000000000
17.762750603000,0.024000000000
17.770436470000,0.046000000000
17.778122337000,0.079000000000
17.785808204000,0.113000000000
17.793494071000,0.153000000000
17.801179938000,0.195000000000
17.808865805000,0.239000000000
17.816551672000,0.281000000000
17.824237539000,0.318000000000
17.831923406000,0.350000000000
17.839609273000,0.368000000000
17.847295140000,0.370000000000
17.854981007000,0.368000000000
17.862666874000,0.355000000000
17.870352741000,0.333000000000
17.878038608000,0.291000000000
17.885724475000,0.217000000000
17.893410342000,0.116000000000
17.901096209000,-0.002000000000
17.908782076000,-0.121000000000
17.916467943000,-0.224000000000
17.924153810000,-0.301000000000
17.931839677000,-0.350000000000
17.939525544000,-0.372000000000
17.947211411000,-0.380000000000
17.954897278000,-0.380000000000
17.962583145000,-0.370000000000
17.970269012000,-0.360000000000
17.977954879000,-0.348000000000
17.985640746000,-0.330000000000
17.993326613000,-0.316000000000
18.001012480000,-0.303000000000
18.008698347000,-0.288000000000
18.016384214000,-0.276000000000
18.024070081000,-0.264000000000
18.031755948000,-0.254000000000
18.039441815000,-0.246000000000
18.047127682000,-0.239000000000
18.054813549000,-0.234000000000
18.062499416000,-0.232000000000
18.070185283000,-0.229000000000
18.077871150000,-0.227000000000
18.085557017000,-0.224000000000
18.093242884000,-0.222000000000
18.100928751000,-0.219000000000
18.108614670000,-0.219000000000
18.116300955000,-0.214000000000
18.123987240000,-0.212000000000
18.131673525000,-0.207000000000
18.139359810000,-0.205000000000
18.147046095000,-0.200000000000
18.154732380000,-0.205000000000
18.162418665000,-0.212000000000
18.170104950000,-0.209000000000
18.177791235000,-0.197000000000
18.185477520000,-0.177000000000
18.193163805000,-0.163000000000
18.200850090000,-0.150000000000
18.208536375000,-0.135000000000
18.216222660000,-0.123000000000
18.223908945000,-0.140000000000
18.231595230000,-0.177000000000
18.239281515000,-0.185000000000
18.246967800000,-0.170000000000
18.254654085000,-0.167000000000
18.262340370000,-0.165000000000
18.270026655000,-0.158000000000
18.277712940000,-0.155000000000
18.285399225000,-0.153000000000
18.293085510000,-0.150000000000
18.300771795000,-0.153000000000
18.308458080000,-0.172000000000
18.316144365000,-0.224000000000
18.323830650000,-0.219000000000
18.331516935000,0.113000000000
18.339203220000,0.837000000000
18.346889505000,1.533000000000
18.354575790000,1.669000000000
18.362262075000,0.765000000000
18.369948360000,-0.528000000000
18.377634645000,-0.671000000000
18.385320930000,-0.101000000000
18.393007215000,-0.088000000000
18.400693500000,-0.239000000000
18.408379785000,-0.128000000000
18.416066070000,-0.088000000000
18.423752355000,-0.135000000000
18.431438640000,-0.096000000000
18.439124925000,-0.051000000000
18.446811210000,-0.049000000000
18.454497495000,-0.022000000000
18.462183780000,0.017000000000
18.469870065000,0.041000000000
18.477556350000,0.069000000000
18.485242635000,0.106000000000
18.492928920000,0.143000000000
18.500615205000,0.182000000000
18.508301490000,0.224000000000
18.515987775000,0.266000000000
18.523674060000,0.308000000000
18.531360345000,0.340000000000
18.539046630000,0.365000000000
18.546732915000,0.375000000000
18.554419200000,0.372000000000
18.562105485000,0.363000000000
18.569791770000,0.345000000000
18.577478055000,0.316000000000
18.585164340000,0.254000000000
18.592850625000,0.165000000000
18.600536910000,0.054000000000
18.608223195000,-0.061000000000
18.615909480000,-0.175000000000
18.623595765000,-0.266000000000
18.631282050000,-0.328000000000
18.638968335000,-0.360000000000
18.646654620000,-0.375000000000
18.654340905000,-0.377000000000
18.662027190000,-0.372000000000
18.669713531000,-0.363000000000
18.677399816000,-0.350000000000
18.685086101000,-0.335000000000
18.692772386000,-0.321000000000
18.700458671000,-0.306000000000
18.708144956000,-0.293000000000
18.715831241000,-0.279000000000
18.723517526000,-0.266000000000
18.731203811000,-0.256000000000
18.738890096000,-0.249000000000
18.746576381000,-0.242000000000
18.754262666000,-0.237000000000
18.761948951000,-0.234000000000
18.769635236000,-0.229000000000
18.777321521000,-0.227000000000
18.785007806000,-0.224000000000
18.792694091000,-0.224000000000
18.800380376000,-0.222000000000
18.808066661000,-0.219000000000
18.815752946000,-0.217000000000
18.823439231000,-0.214000000000
18.831125516000,-0.212000000000
18.838811801000,-0.207000000000
18.846498086000,-0.205000000000
18.854184371000,-0.200000000000
18.861870656000,-0.195000000000
18.869556941000,-0.200000000000
18.877243226000,-0.205000000000
18.884929511000,-0.200000000000
18.892615796000,-0.187000000000
18.900302081000,-0.165000000000
18.907988366000,-0.150000000000
18.915674651000,-0.140000000000
18.923360936000,-0.125000000000
18.931047221000,-0.113000000000
18.938733506000,-0.135000000000
18.946419791000,-0.172000000000
18.954106076000,-0.177000000000
18.961792361000,-0.163000000000
18.969478646000,-0.160000000000
18.977164931000,-0.155000000000
18.984851216000,-0.148000000000
18.992537501000,-0.143000000000
19.000223786000,-0.140000000000
19.007910071000,-0.138000000000
19.015596356000,-0.140000000000
19.023282641000,-0.160000000000
19.030968926000,-0.212000000000
19.038655211000,-0.217000000000
19.046341496000,0.101000000000
19.054027781000,0.820000000000
19.061714066000,1.528000000000
19.069400351000,1.686000000000
19.077086636000,0.790000000000
19.084772921000,-0.518000000000
19.092459206000,-0.669000000000
19.100145491000,-0.093000000000
19.107831776000,-0.079000000000
19.115518061000,-0.232000000000
19.123204346000,-0.123000000000
19.130890631000,-0.083000000000
19.138576916000,-0.130000000000
19.146263201000,-0.091000000000
19.153949486000,-0.046000000000
19.161635771000,-0.044000000000
19.169322056000,-0.017000000000
19.177008341000,0.019000000000
19.184694626000,0.041000000000
19.192380911000,0.071000000000
19.200067196000,0.108000000000
19.207753481000,0.145000000000
19.215439766000,0.182000000000
19.223126051000,0.227000000000
19.230812392000,0.269000000000
19.238498608000,0.306000000000
19.246184824000,0.340000000000
19.253871040000,0.365000000000
19.261557256000,0.372000000000
19.269243472000,0.372000000000
19.276929688000,0.363000000000
19.284615904000,0.345000000000
19.292302120000,0.316000000000
19.299988336000,0.259000000000
19.307674552000,0.170000000000
19.315360768000,0.059000000000
19.323046984000,-0.056000000000
19.330733200000,-0.170000000000
19.338419416000,-0.261000000000
19.346105632000,-0.328000000000
19.353791848000,-0.363000000000
19.361478064000,-0.380000000000
19.369164280000,-0.382000000000
19.376850496000,-0.377000000000
19.384536712000,-0.365000000000
19.392222928000,-0.355000000000
19.399909144000,-0.340000000000
19.407595360000,-0.326000000000
19.415281576000,-0.313000000000
19.422967792000,-0.301000000000
19.430654008000,-0.286000000000
19.438340224000,-0.271000000000
19.446026440000,-0.261000000000
19.453712656000,-0.251000000000
19.461398872000,-0.244000000000
19.469085088000,-0.239000000000
19.476771304000,-0.237000000000
19.484457520000,-0.232000000000
19.492143736000,-0.227000000000
19.499829952000,-0.224000000000
19.507516168000,-0.224000000000
19.515202384000,-0.219000000000
19.522888600000,-0.219000000000
19.530574816000,-0.219000000000
19.538261032000,-0.217000000000
19.545947248000,-0.214000000000
19.553633464000,-0.212000000000
19.561319680000,-0.207000000000
19.569005896000,-0.202000000000
19.576692112000,-0.200000000000
19.584378328000,-0.195000000000
19.592064544000,-0.195000000000
19.599750760000,-0.200000000000
19.607436976000,-0.200000000000
19.615123192000,-0.187000000000
19.622809408000,-0.167000000000
19.630495624000,-0.150000000000
19.638181840000,-0.143000000000
19.645868056000,-0.128000000000
19.653554272000,-0.111000000000
19.661240488000,-0.123000000000
19.668926704000,-0.160000000000
19.676612920000,-0.177000000000
19.684299136000,-0.165000000000
19.691985352000,-0.158000000000
19.699671568000,-0.155000000000
19.707357784000,-0.150000000000
19.715044000000,-0.145000000000
19.722730216000,-0.143000000000
19.730416432000,-0.140000000000
19.738102648000,-0.140000000000
19.745788864000,-0.155000000000
19.753475080000,-0.200000000000
19.761161296000,-0.232000000000
19.768847512000,-0.017000000000
19.776533728000,0.624000000000
19.784219944000,1.383000000000
19.791906170000,1.733000000000
19.799592107000,1.118000000000
19.807278044000,-0.249000000000
19.814963981000,-0.770000000000
19.822649918000,-0.219000000000
19.830335855000,-0.029000000000
19.838021792000,-0.227000000000
19.845707729000,-0.165000000000
19.853393666000,-0.079000000000
19.861079603000,-0.128000000000
19.868765540000,-0.113000000000
19.876451477000,-0.056000000000
19.884137414000,-0.049000000000
19.891823351000,-0.032000000000
19.899509288000,0.007000000000
19.907195225000,0.034000000000
19.914881162000,0.059000000000
19.922567099000,0.096000000000
19.930253036000,0.133000000000
19.937938973000,0.167000000000
19.945624910000,0.209000000000
19.953310847000,0.254000000000
19.960996784000,0.293000000000
19.968682721000,0.330000000000
19.976368658000,0.358000000000
19.984054595000,0.372000000000
19.991740532000,0.372000000000
19.999426469000,0.365000000000
20.007112406000,0.348000000000
20.014798343000,0.323000000000
20.022484280000,0.276000000000
20.030170217000,0.197000000000
20.037856154000,0.091000000000
20.045542091000,-0.024000000000
20.053228028000,-0.143000000000
20.060913965000,-0.246000000000
20.068599902000,-0.318000000000
20.076285839000,-0.363000000000
20.083971776000,-0.385000000000
20.091657713000,-0.392000000000
20.099343650000,-0.387000000000
20.107029587000,-0.380000000000
20.114715524000,-0.368000000000
20.122401461000,-0.353000000000
20.130087398000,-0.338000000000
20.137773335000,-0.321000000000
20.145459272000,-0.308000000000
20.153145209000,-0.293000000000
20.160831146000,-0.279000000000
20.168517083000,-0.266000000000
20.176203020000,-0.254000000000
20.183888957000,-0.249000000000
20.191574894000,-0.244000000000
20.199260831000,-0.237000000000
20.206946768000,-0.232000000000
20.214632705000,-0.229000000000
20.222318642000,-0.227000000000
20.230004579000,-0.222000000000
20.237690516000,-0.219000000000
20.245376453000,-0.217000000000
20.253062390000,-0.217000000000
20.260748327000,-0.214000000000
20.268434264000,-0.212000000000
20.276120201000,-0.209000000000
20.283806138000,-0.207000000000
20.291492075000,-0.200000000000
20.299178012000,-0.197000000000
20.306863949000,-0.197000000000
20.314549886000,-0.190000000000
20.322235823000,-0.187000000000
20.329921760000,-0.197000000000
20.337607697000,-0.195000000000
20.345293634000,-0.175000000000
20.352979596000,-0.155000000000
20.360665881000,-0.145000000000
20.368352166000,-0.135000000000
20.376038451000,-0.113000000000
20.383724736000,-0.106000000000
20.391411021000,-0.133000000000
20.399097306000,-0.165000000000
20.406783591000,-0.167000000000
20.414469876000,-0.155000000000
20.422156161000,-0.153000000000
20.429842446000,-0.145000000000
20.437528731000,-0.135000000000
20.445215016000,-0.135000000000
20.452901301000,-0.133000000000
20.460587586000,-0.133000000000
20.468273871000,-0.140000000000
20.475960156000,-0.160000000000
20.483646441000,-0.207000000000
20.491332726000,-0.180000000000
20.499019011000,0.195000000000
20.506705296000,0.928000000000
20.514391581000,1.580000000000
20.522077866000,1.610000000000
20.529764151000,0.590000000000
20.537450436000,-0.619000000000
20.545136721000,-0.580000000000
20.552823006000,-0.039000000000
20.560509291000,-0.106000000000
20.568195576000,-0.219000000000
20.575881861000,-0.086000000000
20.583568146000,-0.071000000000
20.591254431000,-0.113000000000
20.598940716000,-0.064000000000
20.606627001000,-0.024000000000
20.614313286000,-0.024000000000
20.621999571000,0.004000000000
20.629685856000,0.046000000000
20.637372141000,0.071000000000
20.645058426000,0.093000000000
20.652744711000,0.128000000000
20.660430996000,0.170000000000
20.668117281000,0.209000000000
20.675803566000,0.254000000000
20.683489851000,0.303000000000
20.691176136000,0.348000000000
20.698862421000,0.377000000000
20.706548706000,0.392000000000
20.714234991000,0.405000000000
20.721921276000,0.410000000000
20.729607561000,0.402000000000
20.737293846000,0.380000000000
20.744980131000,0.340000000000
20.752666416000,0.276000000000
20.760352701000,0.185000000000
20.768038986000,0.074000000000
20.775725271000,-0.044000000000
20.783411556000,-0.163000000000
20.791097841000,-0.259000000000
20.798784126000,-0.318000000000
20.806470411000,-0.350000000000
20.814156696000,-0.365000000000
20.821842981000,-0.360000000000
20.829529266000,-0.360000000000
20.837215551000,-0.360000000000
20.844901836000,-0.345000000000
20.852588121000,-0.323000000000
20.860274406000,-0.308000000000
20.867960691000,-0.301000000000
20.875646976000,-0.286000000000
20.883333261000,-0.269000000000
20.891019546000,-0.256000000000
20.898705831000,-0.249000000000
20.906392116000,-0.237000000000
20.914078461000,-0.224000000000
20.921764746000,-0.219000000000
20.929451031000,-0.217000000000
20.937137316000,-0.214000000000
20.944823601000,-0.214000000000
20.952509886000,-0.209000000000
20.960196171000,-0.202000000000
20.967882456000,-0.200000000000
20.975568741000,-0.200000000000
20.983255026000,-0.202000000000
20.990941311000,-0.197000000000
20.998627596000,-0.195000000000
21.006313881000,-0.202000000000
21.014000166000,-0.195000000000
21.021686451000,-0.185000000000
21.029372736000,-0.187000000000
21.037059021000,-0.192000000000
21.044745306000,-0.190000000000
21.052431591000,-0.180000000000
21.060117876000,-0.158000000000
21.067804161000,-0.143000000000
21.075490446000,-0.130000000000
21.083176731000,-0.113000000000
21.090863016000,-0.106000000000
21.098549301000,-0.125000000000
21.106235586000,-0.155000000000
21.113921871000,-0.167000000000
21.121608156000,-0.158000000000
21.129294441000,-0.145000000000
21.136980726000,-0.143000000000
21.144667011000,-0.145000000000
21.152353296000,-0.143000000000
21.160039581000,-0.135000000000
21.167725866000,-0.125000000000
21.175412151000,-0.128000000000
21.183098436000,-0.148000000000
21.190784721000,-0.187000000000
21.198471006000,-0.214000000000
21.206157291000,0.004000000000
21.213843576000,0.639000000000
21.221529861000,1.304000000000
21.229216146000,1.489000000000
21.236902431000,0.827000000000
21.244588716000,-0.355000000000
21.252275001000,-0.701000000000
21.259961286000,-0.177000000000
21.267647571000,-0.029000000000
21.275333856000,-0.175000000000
21.283020141000,-0.103000000000
21.290706426000,-0.049000000000
21.298392711000,-0.093000000000
21.306078996000,-0.064000000000
21.313765281000,-0.019000000000
21.321451566000,-0.014000000000
21.329137851000,0.007000000000
21.336824136000,0.041000000000
21.344510421000,0.064000000000
21.352196706000,0.091000000000
21.359882991000,0.128000000000
21.367569276000,0.165000000000
21.375255561000,0.202000000000
21.382941846000,0.246000000000
21.390628131000,0.288000000000
21.398314416000,0.326000000000
21.406000701000,0.360000000000
21.413686986000,0.385000000000
21.421373271000,0.395000000000
21.429059556000,0.395000000000
21.436745841000,0.385000000000
21.444432126000,0.365000000000
21.452118411000,0.330000000000
21.459804696000,0.276000000000
21.467490981000,0.192000000000
21.475177322000,0.081000000000
21.482863189000,-0.039000000000
21.490549056000,-0.153000000000
21.498234923000,-0.249000000000
21.505920790000,-0.321000000000
21.513606657000,-0.365000000000
21.521292524000,-0.382000000000
21.528978391000,-0.387000000000
21.536664258000,-0.382000000000
21.544350125000,-0.375000000000
21.552035992000,-0.365000000000
21.559721859000,-0.353000000000
21.567407726000,-0.338000000000
21.575093593000,-0.326000000000
21.582779460000,-0.311000000000
21.590465327000,-0.298000000000
21.598151194000,-0.284000000000
21.605837061000,-0.274000000000
21.613522928000,-0.264000000000
21.621208795000,-0.254000000000
21.628894662000,-0.249000000000
21.636580529000,-0.244000000000
21.644266396000,-0.242000000000
21.651952263000,-0.237000000000
21.659638130000,-0.232000000000
21.667323997000,-0.229000000000
21.675009864000,-0.227000000000
21.682695731000,-0.224000000000
21.690381598000,-0.222000000000
21.698067465000,-0.222000000000
21.705753332000,-0.219000000000
21.713439199000,-0.217000000000
21.721125066000,-0.212000000000
21.728810933000,-0.209000000000
21.736496800000,-0.207000000000
21.744182667000,-0.202000000000
21.751868534000,-0.205000000000
21.759554401000,-0.212000000000
21.767240268000,-0.209000000000
21.774926135000,-0.197000000000
21.782612002000,-0.177000000000
21.790297869000,-0.160000000000
21.797983736000,-0.150000000000
21.805669603000,-0.135000000000
21.813355470000,-0.123000000000
21.821041337000,-0.138000000000
21.828727204000,-0.177000000000
21.836413071000,-0.192000000000
21.844098938000,-0.180000000000
21.851784805000,-0.172000000000
21.859470672000,-0.172000000000
21.867156539000,-0.165000000000
21.874842406000,-0.158000000000
21.882528273000,-0.158000000000
21.890214140000,-0.155000000000
21.897900007000,-0.158000000000
21.905585874000,-0.172000000000
21.913271741000,-0.219000000000
21.920957608000,-0.234000000000
21.928643475000,0.039000000000
21.936329342000,0.713000000000
21.944015209000,1.422000000000
21.951701076000,1.649000000000
21.959386943000,0.884000000000
21.967072810000,-0.434000000000
21.974758677000,-0.728000000000
21.982444544000,-0.153000000000
21.990130411000,-0.064000000000
21.997816278000,-0.239000000000
22.005502145000,-0.148000000000
22.013188012000,-0.091000000000
22.020873879000,-0.140000000000
22.028559746000,-0.111000000000
22.036245665000,-0.061000000000
22.043931950000,-0.056000000000
22.051618235000,-0.037000000000
22.059304520000,0.002000000000
22.066990805000,0.027000000000
22.074677090000,0.054000000000
22.082363375000,0.091000000000
22.090049660000,0.128000000000
22.097735945000,0.163000000000
22.105422230000,0.205000000000
22.113108515000,0.249000000000
22.120794800000,0.291000000000
22.128481085000,0.323000000000
22.136167370000,0.348000000000
22.143853655000,0.360000000000
22.151539940000,0.360000000000
22.159226225000,0.353000000000
22.166912510000,0.335000000000
22.174598795000,0.306000000000
22.182285080000,0.251000000000
22.189971365000,0.170000000000
22.197657650000,0.061000000000
22.205343935000,-0.054000000000
22.213030220000,-0.167000000000
22.220716505000,-0.264000000000
22.228402790000,-0.330000000000
22.236089075000,-0.370000000000
22.243775360000,-0.390000000000
22.251461645000,-0.395000000000
22.259147930000,-0.390000000000
22.266834215000,-0.382000000000
22.274520500000,-0.370000000000
22.282206785000,-0.355000000000
22.289893070000,-0.340000000000
22.297579355000,-0.326000000000
22.305265640000,-0.311000000000
22.312951925000,-0.296000000000
22.320638210000,-0.286000000000
22.328324495000,-0.274000000000
22.336010780000,-0.261000000000
22.343697065000,-0.251000000000
22.351383350000,-0.246000000000
22.359069635000,-0.242000000000
22.366755920000,-0.237000000000
22.374442205000,-0.234000000000
22.382128490000,-0.229000000000
22.389814775000,-0.227000000000
22.397501060000,-0.224000000000
22.405187345000,-0.224000000000
22.412873630000,-0.222000000000
22.420559915000,-0.217000000000
22.428246200000,-0.214000000000
22.435932485000,-0.212000000000
22.443618770000,-0.207000000000
22.451305055000,-0.205000000000
22.458991340000,-0.202000000000
22.466677625000,-0.197000000000
22.474363910000,-0.192000000000
22.482050195000,-0.190000000000
22.489736480000,-0.197000000000
22.497422765000,-0.200000000000
22.505109050000,-0.190000000000
22.512795335000,-0.167000000000
22.520481620000,-0.150000000000
22.528167905000,-0.140000000000
22.535854190000,-0.125000000000
22.543540475000,-0.113000000000
22.551226760000,-0.123000000000
22.558913045000,-0.160000000000
22.566599330000,-0.177000000000
22.574285615000,-0.165000000000
22.581971900000,-0.158000000000
22.589658185000,-0.158000000000
22.597344526000,-0.153000000000
22.605030811000,-0.145000000000
22.612717096000,-0.143000000000
22.620403381000,-0.140000000000
22.628089666000,-0.143000000000
22.635775951000,-0.155000000000
22.643462236000,-0.197000000000
22.651148521000,-0.227000000000
22.658834806000,-0.014000000000
22.666521091000,0.617000000000
22.674207376000,1.365000000000
22.681893661000,1.726000000000
22.689579946000,1.131000000000
22.697266231000,-0.234000000000
22.704952516000,-0.775000000000
22.712638801000,-0.227000000000
22.720325086000,-0.027000000000
22.728011371000,-0.227000000000
22.735697656000,-0.170000000000
22.743383941000,-0.081000000000
22.751070226000,-0.130000000000
22.758756511000,-0.116000000000
22.766442796000,-0.059000000000
22.774129081000,-0.051000000000
22.781815366000,-0.037000000000
22.789501651000,0.002000000000
22.797187936000,0.029000000000
22.804874221000,0.056000000000
22.812560506000,0.093000000000
22.820246791000,0.128000000000
22.827933076000,0.165000000000
22.835619361000,0.207000000000
22.843305646000,0.251000000000
22.850991931000,0.291000000000
22.858678216000,0.330000000000
22.866364501000,0.358000000000
22.874050786000,0.370000000000
22.881737071000,0.375000000000
22.889423356000,0.368000000000
22.897109641000,0.353000000000
22.904795926000,0.328000000000
22.912482211000,0.279000000000
22.920168496000,0.202000000000
22.927854781000,0.096000000000
22.935541066000,-0.019000000000
22.943227351000,-0.138000000000
22.950913636000,-0.239000000000
22.958599921000,-0.313000000000
22.966286206000,-0.358000000000
22.973972491000,-0.380000000000
22.981658776000,-0.390000000000
22.989345061000,-0.387000000000
22.997031346000,-0.380000000000
23.004717631000,-0.365000000000
23.012403916000,-0.353000000000
23.020090201000,-0.338000000000
23.027776486000,-0.323000000000
23.035462771000,-0.308000000000
23.043149056000,-0.296000000000
23.050835341000,-0.281000000000
23.058521626000,-0.269000000000
23.066207911000,-0.259000000000
23.073894196000,-0.249000000000
23.081580481000,-0.242000000000
23.089266766000,-0.237000000000
23.096953051000,-0.234000000000
23.104639336000,-0.229000000000
23.112325621000,-0.224000000000
23.120011906000,-0.222000000000
23.127698191000,-0.222000000000
23.135384476000,-0.219000000000
23.143070761000,-0.217000000000
23.150757046000,-0.214000000000
23.158443387000,-0.209000000000
23.166129254000,-0.207000000000
23.173815121000,-0.205000000000
23.181500988000,-0.202000000000
23.189186855000,-0.197000000000
23.196872722000,-0.195000000000
23.204558589000,-0.190000000000
23.212244456000,-0.185000000000
23.219930323000,-0.185000000000
23.227616190000,-0.192000000000
23.235302057000,-0.192000000000
23.242987924000,-0.180000000000
23.250673791000,-0.160000000000
23.258359658000,-0.145000000000
23.266045525000,-0.135000000000
23.273731392000,-0.118000000000
23.281417259000,-0.108000000000
23.289103126000,-0.125000000000
23.296788993000,-0.160000000000
23.304474860000,-0.172000000000
23.312160727000,-0.158000000000
23.319846594000,-0.155000000000
23.327532461000,-0.155000000000
23.335218328000,-0.150000000000
23.342904195000,-0.145000000000
23.350590062000,-0.140000000000
23.358275929000,-0.138000000000
23.365961796000,-0.140000000000
23.373647663000,-0.155000000000
23.381333530000,-0.202000000000
23.389019397000,-0.214000000000
23.396705264000,0.064000000000
23.404391131000,0.748000000000
23.412076998000,1.474000000000
23.419762865000,1.726000000000
23.427448732000,0.945000000000
23.435134599000,-0.414000000000
23.442820466000,-0.721000000000
23.450506333000,-0.133000000000
23.458192200000,-0.054000000000
23.465878067000,-0.237000000000
23.473563934000,-0.140000000000
23.481249801000,-0.081000000000
23.488935668000,-0.133000000000
23.496621535000,-0.101000000000
23.504307402000,-0.049000000000
23.511993269000,-0.046000000000
23.519679136000,-0.024000000000
23.527365003000,0.014000000000
23.535050870000,0.039000000000
23.542736737000,0.064000000000
23.550422604000,0.103000000000
23.558108471000,0.138000000000
23.565794338000,0.177000000000
23.573480205000,0.222000000000
23.581166072000,0.264000000000
23.588851939000,0.306000000000
23.596537806000,0.343000000000
23.604223673000,0.370000000000
23.611909540000,0.382000000000
23.619595407000,0.382000000000
23.627281274000,0.372000000000
23.634967141000,0.358000000000
23.642653008000,0.330000000000
23.650338875000,0.276000000000
23.658024742000,0.192000000000
23.665710609000,0.086000000000
23.673396476000,-0.032000000000
23.681082343000,-0.148000000000
23.688768210000,-0.246000000000
23.696454077000,-0.318000000000
23.704139944000,-0.360000000000
23.711825811000,-0.380000000000
23.719511730000,-0.385000000000
23.727198015000,-0.380000000000
23.734884300000,-0.372000000000
23.742570585000,-0.360000000000
23.750256870000,-0.348000000000
23.757943155000,-0.330000000000
23.765629440000,-0.316000000000
23.773315725000,-0.301000000000
23.781002010000,-0.291000000000
23.788688295000,-0.276000000000
23.796374580000,-0.264000000000
23.804060865000,-0.251000000000
23.811747150000,-0.244000000000
23.819433435000,-0.239000000000
23.827119720000,-0.234000000000
23.834806005000,-0.229000000000
23.842492290000,-0.227000000000
23.850178575000,-0.222000000000
23.857864860000,-0.219000000000
23.865551145000,-0.217000000000
23.873237430000,-0.214000000000
23.880923715000,-0.212000000000
23.888610000000,-0.209000000000
23.896296285000,-0.207000000000
23.903982570000,-0.205000000000
23.911668855000,-0.205000000000
23.919355140000,-0.200000000000
23.927041425000,-0.197000000000
23.934727710000,-0.192000000000
23.942413995000,-0.187000000000
23.950100280000,-0.182000000000
23.957786565000,-0.187000000000
23.965472850000,-0.192000000000
23.973159135000,-0.190000000000
23.980845420000,-0.175000000000
23.988531705000,-0.150000000000
23.996217990000,-0.135000000000
24.003904275000,-0.128000000000
24.011590560000,-0.113000000000
24.019276845000,-0.106000000000
24.026963130000,-0.133000000000
24.034649415000,-0.167000000000
24.042335700000,-0.165000000000
24.050021985000,-0.153000000000
24.057708270000,-0.153000000000
24.065394555000,-0.150000000000
24.073080840000,-0.145000000000
24.080767125000,-0.140000000000
24.088453410000,-0.138000000000
24.096139695000,-0.135000000000
24.103825980000,-0.143000000000
24.111512265000,-0.167000000000
24.119198550000,-0.224000000000
24.126884835000,-0.195000000000
24.134571120000,0.205000000000
24.142257405000,0.958000000000
24.149943690000,1.620000000000
24.157629975000,1.642000000000
24.165316260000,0.575000000000
24.173002545000,-0.649000000000
24.180688830000,-0.577000000000
24.188375115000,-0.034000000000
24.196061400000,-0.118000000000
24.203747685000,-0.229000000000
24.211433970000,-0.101000000000
24.219120255000,-0.091000000000
24.226806540000,-0.133000000000
24.234492825000,-0.079000000000
24.242179110000,-0.041000000000
24.249865395000,-0.041000000000
24.257551680000,-0.012000000000
24.265237965000,0.024000000000
24.272924250000,0.049000000000
24.280610595000,0.079000000000
24.288296880000,0.118000000000
24.295983165000,0.155000000000
24.303669450000,0.192000000000
24.311355735000,0.234000000000
24.319042020000,0.281000000000
24.326728305000,0.321000000000
24.334414590000,0.355000000000
24.342100875000,0.377000000000
24.349787160000,0.387000000000
24.357473445000,0.387000000000
24.365159730000,0.375000000000
24.372846015000,0.355000000000
24.380532300000,0.323000000000
24.388218585000,0.264000000000
24.395904870000,0.172000000000
24.403591155000,0.061000000000
24.411277440000,-0.059000000000
24.418963725000,-0.175000000000
24.426650010000,-0.266000000000
24.434336295000,-0.328000000000
24.442022580000,-0.363000000000
24.449708865000,-0.377000000000
24.457395150000,-0.380000000000
24.465081435000,-0.377000000000
24.472767720000,-0.368000000000
24.480454005000,-0.353000000000
24.488140290000,-0.335000000000
24.495826575000,-0.321000000000
24.503512860000,-0.311000000000
24.511199145000,-0.296000000000
24.518885430000,-0.281000000000
24.526571715000,-0.269000000000
24.534258000000,-0.256000000000
24.541944285000,-0.246000000000
24.549630570000,-0.237000000000
24.557316855000,-0.229000000000
24.565003140000,-0.227000000000
24.572689425000,-0.224000000000
24.580375710000,-0.222000000000
24.588061995000,-0.217000000000
24.595748280000,-0.217000000000
24.603434565000,-0.212000000000
24.611120850000,-0.207000000000
24.618807135000,-0.207000000000
24.626493420000,-0.207000000000
24.634179705000,-0.205000000000
24.641865990000,-0.202000000000
24.649552275000,-0.197000000000
24.657238560000,-0.192000000000
24.664924845000,-0.187000000000
24.672611130000,-0.185000000000
24.680297415000,-0.182000000000
24.687983700000,-0.175000000000
24.695669985000,-0.170000000000
24.703356270000,-0.172000000000
24.711042555000,-0.180000000000
24.718728840000,-0.177000000000
24.726415125000,-0.160000000000
24.734101410000,-0.140000000000
24.741787695000,-0.125000000000
24.749473980000,-0.116000000000
24.757160265000,-0.101000000000
24.764846550000,-0.093000000000
24.772532835000,-0.121000000000
24.780219120000,-0.153000000000
24.787905405000,-0.153000000000
24.795591690000,-0.143000000000
24.803277975000,-0.143000000000
24.810964260000,-0.140000000000
24.818650545000,-0.133000000000
24.826336830000,-0.128000000000
24.834023115000,-0.123000000000
24.841709456000,-0.123000000000
24.849395532000,-0.130000000000
24.857081608000,-0.155000000000
24.864767684000,-0.207000000000
24.872453760000,-0.165000000000
24.880139836000,0.239000000000
24.887825912000,0.983000000000
24.895511988000,1.620000000000
24.903198064000,1.607000000000
24.910884140000,0.531000000000
24.918570216000,-0.656000000000
24.926256292000,-0.558000000000
24.933942368000,-0.029000000000
24.941628444000,-0.116000000000
24.949314520000,-0.217000000000
24.957000596000,-0.088000000000
24.964686672000,-0.086000000000
24.972372748000,-0.123000000000
24.980058824000,-0.069000000000
24.987744900000,-0.039000000000
24.995430976000,-0.039000000000
25.003117052000,-0.004000000000
25.010803128000,0.032000000000
25.018489204000,0.051000000000
25.026175280000,0.083000000000
25.033861356000,0.123000000000
25.041547432000,0.158000000000
25.049233508000,0.195000000000
25.056919584000,0.239000000000
25.064605660000,0.286000000000
25.072291736000,0.326000000000
25.079977812000,0.360000000000
25.087663888000,0.382000000000
25.095349964000,0.390000000000
25.103036040000,0.387000000000
25.110722116000,0.377000000000
25.118408192000,0.358000000000
25.126094268000,0.326000000000
25.133780344000,0.266000000000
25.141466420000,0.175000000000
25.149152496000,0.064000000000
25.156838572000,-0.054000000000
25.164524648000,-0.167000000000
25.172210724000,-0.261000000000
25.179896800000,-0.326000000000
25.187582876000,-0.363000000000
25.195268952000,-0.380000000000
25.202955028000,-0.382000000000
25.210641104000,-0.375000000000
25.218327180000,-0.365000000000
25.226013256000,-0.355000000000
25.233699332000,-0.340000000000
25.241385408000,-0.326000000000
25.249071484000,-0.311000000000
25.256757560000,-0.298000000000
25.264443636000,-0.284000000000
25.272129712000,-0.271000000000
25.279815788000,-0.261000000000
25.287501864000,-0.251000000000
25.295187940000,-0.242000000000
25.302874016000,-0.237000000000
25.310560092000,-0.232000000000
25.318246168000,-0.224000000000
25.325932244000,-0.222000000000
25.333618320000,-0.219000000000
25.341304396000,-0.217000000000
25.348990472000,-0.214000000000
25.356676548000,-0.212000000000
25.364362624000,-0.209000000000
25.372048700000,-0.207000000000
25.379734776000,-0.207000000000
25.387420852000,-0.207000000000
25.395106928000,-0.202000000000
25.402793060000,-0.200000000000
25.410479136000,-0.195000000000
25.418165212000,-0.190000000000
25.425851288000,-0.187000000000
25.433537364000,-0.185000000000
25.441223440000,-0.180000000000
25.448909516000,-0.182000000000
25.456595592000,-0.185000000000
25.464281668000,-0.182000000000
25.471967744000,-0.167000000000
25.479653820000,-0.148000000000
25.487339896000,-0.133000000000
25.495025972000,-0.123000000000
25.502712048000,-0.108000000000
25.510398124000,-0.101000000000
25.518084200000,-0.123000000000
25.525770276000,-0.158000000000
25.533456352000,-0.163000000000
25.541142428000,-0.150000000000
25.548828504000,-0.148000000000
25.556514580000,-0.145000000000
25.564200656000,-0.140000000000
25.571886732000,-0.135000000000
25.579572808000,-0.135000000000
25.587258884000,-0.133000000000
25.594944960000,-0.138000000000
25.602631036000,-0.158000000000
25.610317112000,-0.207000000000
25.618003188000,-0.192000000000
25.625689264000,0.158000000000
25.633375340000,0.879000000000
25.641061416000,1.565000000000
25.648747492000,1.679000000000
25.656433568000,0.721000000000
25.664119644000,-0.570000000000
25.671805720000,-0.639000000000
25.679491796000,-0.066000000000
25.687177872000,-0.091000000000
25.694863948000,-0.232000000000
25.702550024000,-0.111000000000
25.710236100000,-0.083000000000
25.717922176000,-0.130000000000
25.725608252000,-0.086000000000
25.733294328000,-0.046000000000
25.740980404000,-0.044000000000
25.748666480000,-0.017000000000
25.756352556000,0.019000000000
25.764038632000,0.044000000000
25.771724708000,0.074000000000
25.779410784000,0.108000000000
25.787096860000,0.145000000000
25.794782936000,0.187000000000
25.802469012000,0.229000000000
25.810155088000,0.274000000000
25.817841164000,0.318000000000
25.825527240000,0.353000000000
25.833213316000,0.377000000000
25.840899392000,0.390000000000
25.848585468000,0.390000000000
25.856271544000,0.380000000000
25.863957620000,0.360000000000
25.871643696000,0.330000000000
25.879329772000,0.276000000000
25.887015848000,0.187000000000
25.894701924000,0.079000000000
25.902388000000,-0.041000000000
25.910074076000,-0.155000000000
25.917760152000,-0.254000000000
25.925446228000,-0.323000000000
25.933132304000,-0.363000000000
25.940818380000,-0.380000000000
25.948504456000,-0.385000000000
25.956190532000,-0.382000000000
25.963876660000,-0.372000000000
25.971562945000,-0.360000000000
25.979249230000,-0.345000000000
25.986935515000,-0.330000000000
25.994621800000,-0.316000000000
26.002308085000,-0.303000000000
26.009994370000,-0.288000000000
26.017680655000,-0.276000000000
26.025366940000,-0.264000000000
26.033053225000,-0.251000000000
26.040739510000,-0.244000000000
26.048425795000,-0.237000000000
26.056112080000,-0.232000000000
26.063798365000,-0.227000000000
26.071484650000,-0.224000000000
26.079170935000,-0.219000000000
26.086857220000,-0.217000000000
26.094543505000,-0.217000000000
26.102229790000,-0.214000000000
26.109916075000,-0.212000000000
26.117602360000,-0.209000000000
26.125288645000,-0.209000000000
26.132974930000,-0.207000000000
26.140661215000,-0.202000000000
26.148347500000,-0.197000000000
26.156033785000,-0.195000000000
26.163720070000,-0.192000000000
26.171406355000,-0.187000000000
26.179092640000,-0.182000000000
26.186778925000,-0.180000000000
26.194465210000,-0.180000000000
26.202151495000,-0.185000000000
26.209837780000,-0.182000000000
26.217524065000,-0.170000000000
26.225210350000,-0.148000000000
26.232896635000,-0.133000000000
26.240582920000,-0.123000000000
26.248269205000,-0.108000000000
26.255955490000,-0.098000000000
26.263641775000,-0.118000000000
26.271328060000,-0.155000000000
26.279014345000,-0.163000000000
26.286700630000,-0.150000000000
26.294386915000,-0.148000000000
26.302073200000,-0.145000000000
26.309759485000,-0.138000000000
26.317445770000,-0.135000000000
26.325132055000,-0.133000000000
26.332818340000,-0.128000000000
26.340504625000,-0.133000000000
26.348190910000,-0.153000000000
26.355877195000,-0.202000000000
26.363563480000,-0.207000000000
26.371249765000,0.093000000000
26.378936050000,0.792000000000
26.386622335000,1.521000000000
26.394308620000,1.756000000000
26.401994905000,0.923000000000
26.409681190000,-0.451000000000
26.417367475000,-0.708000000000
26.425053760000,-0.118000000000
26.432740045000,-0.066000000000
26.440426330000,-0.237000000000
26.448112615000,-0.130000000000
26.455798900000,-0.081000000000
26.463485185000,-0.135000000000
26.471171470000,-0.098000000000
26.478857755000,-0.051000000000
26.486544040000,-0.049000000000
26.494230325000,-0.024000000000
26.501916610000,0.014000000000
26.509602895000,0.039000000000
26.517289180000,0.066000000000
26.524975521000,0.106000000000
26.532661806000,0.143000000000
26.540348091000,0.180000000000
26.548034376000,0.224000000000
26.555720661000,0.269000000000
26.563406946000,0.311000000000
26.571093231000,0.350000000000
26.578779516000,0.377000000000
26.586465801000,0.390000000000
26.594152086000,0.392000000000
26.601838371000,0.385000000000
26.609524656000,0.365000000000
26.617210941000,0.338000000000
26.624897226000,0.286000000000
26.632583511000,0.202000000000
26.640269796000,0.093000000000
26.647956081000,-0.024000000000
26.655642366000,-0.140000000000
26.663328651000,-0.242000000000
26.671014936000,-0.313000000000
26.678701221000,-0.358000000000
26.686387506000,-0.380000000000
26.694073791000,-0.387000000000
26.701760076000,-0.382000000000
26.709446361000,-0.372000000000
26.717132646000,-0.360000000000
26.724818931000,-0.348000000000
26.732505216000,-0.333000000000
26.740191501000,-0.318000000000
26.747877786000,-0.303000000000
26.755564071000,-0.288000000000
26.763250356000,-0.274000000000
26.770936641000,-0.264000000000
26.778622926000,-0.251000000000
26.786309211000,-0.244000000000
26.793995496000,-0.237000000000
26.801681781000,-0.229000000000
26.809368066000,-0.224000000000
26.817054351000,-0.222000000000
26.824740636000,-0.217000000000
26.832426921000,-0.212000000000
26.840113206000,-0.209000000000
26.847799491000,-0.209000000000
26.855485776000,-0.207000000000
26.863172061000,-0.205000000000
26.870858346000,-0.202000000000
26.878544631000,-0.202000000000
26.886230916000,-0.200000000000
26.893917201000,-0.195000000000
26.901603486000,-0.192000000000
26.909289771000,-0.190000000000
26.916976056000,-0.187000000000
26.924662341000,-0.182000000000
26.932348626000,-0.182000000000
26.940034911000,-0.187000000000
26.947721196000,-0.190000000000
26.955407481000,-0.187000000000
26.963093766000,-0.167000000000
26.970780051000,-0.145000000000
26.978466336000,-0.135000000000
26.986152621000,-0.125000000000
26.993838906000,-0.108000000000
27.001525191000,-0.108000000000
27.009211476000,-0.143000000000
27.016897761000,-0.172000000000
27.024584046000,-0.165000000000
27.032270331000,-0.155000000000
27.039956616000,-0.155000000000
27.047642901000,-0.150000000000
27.055329186000,-0.145000000000
27.063015471000,-0.145000000000
27.070701756000,-0.140000000000
27.078388041000,-0.135000000000
27.086074386000,-0.148000000000
27.093760253000,-0.180000000000
27.101446120000,-0.232000000000
27.109131987000,-0.138000000000
27.116817854000,0.355000000000
27.124503721000,1.123000000000
27.132189588000,1.743000000000
27.139875455000,1.605000000000
27.147561322000,0.321000000000
27.155247189000,-0.778000000000
27.162933056000,-0.469000000000
27.170618923000,-0.009000000000
27.178304790000,-0.182000000000
27.185990657000,-0.224000000000
27.193676524000,-0.091000000000
27.201362391000,-0.118000000000
27.209048258000,-0.140000000000
27.216734125000,-0.076000000000
27.224419992000,-0.056000000000
27.232105859000,-0.051000000000
27.239791726000,-0.012000000000
27.247477593000,0.019000000000
27.255163460000,0.044000000000
27.262849327000,0.079000000000
27.270535194000,0.118000000000
27.278221061000,0.155000000000
27.285906928000,0.197000000000
27.293592795000,0.244000000000
27.301278662000,0.288000000000
27.308964529000,0.330000000000
27.316650396000,0.368000000000
27.324336263000,0.390000000000
27.332022130000,0.397000000000
27.339707997000,0.395000000000
27.347393864000,0.385000000000
27.355079731000,0.363000000000
27.362765598000,0.328000000000
27.370451465000,0.266000000000
27.378137332000,0.172000000000
27.385823199000,0.054000000000
27.393509066000,-0.069000000000
27.401194933000,-0.180000000000
27.408880800000,-0.271000000000
27.416566667000,-0.335000000000
27.424252534000,-0.370000000000
27.431938401000,-0.382000000000
27.439624268000,-0.382000000000
27.447310135000,-0.380000000000
27.454996002000,-0.370000000000
27.462681869000,-0.355000000000
27.470367736000,-0.340000000000
27.478053603000,-0.328000000000
27.485739470000,-0.313000000000
27.493425337000,-0.298000000000
27.501111204000,-0.286000000000
27.508797071000,-0.271000000000
27.516482938000,-0.261000000000
27.524168805000,-0.249000000000
27.531854672000,-0.242000000000
27.539540539000,-0.237000000000
27.547226406000,-0.229000000000
27.554912273000,-0.227000000000
27.562598140000,-0.224000000000
27.570284007000,-0.219000000000
27.577969874000,-0.219000000000
27.585655741000,-0.217000000000
27.593341608000,-0.214000000000
27.601027475000,-0.212000000000
27.608713342000,-0.212000000000
27.616399209000,-0.209000000000
27.624085076000,-0.205000000000
27.631770943000,-0.202000000000
27.639456810000,-0.200000000000
27.647142729000,-0.195000000000
27.654829014000,-0.190000000000
27.662515299000,-0.187000000000
27.670201584000,-0.182000000000
27.677887869000,-0.180000000000
27.685574154000,-0.185000000000
27.693260439000,-0.185000000000
27.700946724000,-0.172000000000
27.708633009000,-0.150000000000
27.716319294000,-0.133000000000
27.724005579000,-0.123000000000
27.731691864000,-0.108000000000
27.739378149000,-0.098000000000
27.747064434000,-0.116000000000
27.754750719000,-0.153000000000
27.762437004000,-0.163000000000
27.770123289000,-0.150000000000
27.777809574000,-0.145000000000
27.785495859000,-0.143000000000
27.793182144000,-0.138000000000
27.800868429000,-0.135000000000
27.808554714000,-0.130000000000
27.816240999000,-0.128000000000
27.823927284000,-0.133000000000
27.831613569000,-0.153000000000
27.839299854000,-0.207000000000
27.846986139000,-0.217000000000
27.854672424000,0.083000000000
27.862358709000,0.787000000000
27.870044994000,1.551000000000
27.877731279000,1.862000000000
27.885417564000,1.049000000000
27.893103849000,-0.412000000000
27.900790134000,-0.738000000000
27.908476419000,-0.133000000000
27.916162704000,-0.069000000000
27.923848989000,-0.251000000000
27.931535274000,-0.143000000000
27.939221559000,-0.088000000000
27.946907844000,-0.145000000000
27.954594129000,-0.108000000000
27.962280414000,-0.056000000000
27.969966699000,-0.056000000000
27.977652984000,-0.034000000000
27.985339269000,0.007000000000
27.993025554000,0.032000000000
28.000711839000,0.059000000000
28.008398124000,0.098000000000
28.016084409000,0.135000000000
28.023770694000,0.175000000000
28.031456979000,0.219000000000
28.039143264000,0.266000000000
28.046829549000,0.311000000000
28.054515834000,0.350000000000
28.062202119000,0.380000000000
28.069888404000,0.392000000000
28.077574689000,0.397000000000
28.085260974000,0.390000000000
28.092947259000,0.375000000000
28.100633544000,0.348000000000
28.108319829000,0.298000000000
28.116006114000,0.217000000000
28.123692399000,0.108000000000
28.131378684000,-0.009000000000
28.139064969000,-0.128000000000
28.146751254000,-0.234000000000
28.154437539000,-0.311000000000
28.162123824000,-0.355000000000
28.169810109000,-0.377000000000
28.177496394000,-0.382000000000
28.185182679000,-0.380000000000
28.192868964000,-0.372000000000
28.200555249000,-0.360000000000
28.208241590000,-0.348000000000
28.215927875000,-0.333000000000
28.223614160000,-0.318000000000
28.231300445000,-0.303000000000
28.238986730000,-0.288000000000
28.246673015000,-0.276000000000
28.254359300000,-0.261000000000
28.262045585000,-0.251000000000
28.269731870000,-0.244000000000
28.277418155000,-0.239000000000
28.285104440000,-0.232000000000
28.292790725000,-0.227000000000
28.300477010000,-0.222000000000
28.308163295000,-0.219000000000
28.315849580000,-0.217000000000
28.323535865000,-0.214000000000
28.331222150000,-0.212000000000
28.338908435000,-0.212000000000
28.346594720000,-0.209000000000
28.354281005000,-0.207000000000
28.361967290000,-0.202000000000
28.369653575000,-0.200000000000
28.377339860000,-0.197000000000
28.385026145000,-0.192000000000
28.392712430000,-0.190000000000
28.400398715000,-0.187000000000
28.408085000000,-0.192000000000
28.415771285000,-0.195000000000
28.423457570000,-0.185000000000
28.431143855000,-0.165000000000
28.438830140000,-0.145000000000
28.446516425000,-0.133000000000
28.454202710000,-0.121000000000
28.461888995000,-0.106000000000
28.469575280000,-0.113000000000
28.477261565000,-0.150000000000
28.484947850000,-0.172000000000
28.492634135000,-0.163000000000
28.500320420000,-0.153000000000
28.508006705000,-0.153000000000
28.515692990000,-0.145000000000
28.523379275000,-0.140000000000
28.531065560000,-0.140000000000
28.538751845000,-0.135000000000
28.546438130000,-0.135000000000
28.554124415000,-0.150000000000
28.561810700000,-0.192000000000
28.569496985000,-0.244000000000
28.577183270000,-0.091000000000
28.584869555000,0.491000000000
28.592555840000,1.301000000000
28.600242125000,1.864000000000
28.607928410000,1.504000000000
28.615614695000,0.069000000000
28.623300980000,-0.810000000000
28.630987265000,-0.348000000000
28.638673550000,-0.017000000000
28.646359835000,-0.224000000000
28.654046120000,-0.205000000000
28.661732405000,-0.091000000000
28.669418690000,-0.138000000000
28.677104975000,-0.138000000000
28.684791260000,-0.074000000000
28.692477545000,-0.059000000000
28.700163830000,-0.051000000000
28.707850115000,-0.012000000000
28.715536400000,0.019000000000
28.723222685000,0.044000000000
28.730908970000,0.079000000000
28.738595255000,0.118000000000
28.746281540000,0.155000000000
28.753967825000,0.200000000000
28.761654110000,0.246000000000
28.769340451000,0.291000000000
28.777026318000,0.333000000000
28.784712185000,0.368000000000
28.792398052000,0.387000000000
28.800083919000,0.392000000000
28.807769786000,0.390000000000
28.815455653000,0.375000000000
28.823141520000,0.353000000000
28.830827387000,0.313000000000
28.838513254000,0.242000000000
28.846199121000,0.140000000000
28.853884988000,0.022000000000
28.861570855000,-0.101000000000
28.869256722000,-0.209000000000
28.876942589000,-0.296000000000
28.884628456000,-0.348000000000
28.892314323000,-0.377000000000
28.900000190000,-0.387000000000
28.907686057000,-0.385000000000
28.915371924000,-0.377000000000
28.923057791000,-0.365000000000
28.930743658000,-0.353000000000
28.938429525000,-0.338000000000
28.946115392000,-0.326000000000
28.953801259000,-0.311000000000
28.961487126000,-0.293000000000
28.969172993000,-0.279000000000
28.976858860000,-0.266000000000
28.984544727000,-0.256000000000
28.992230594000,-0.244000000000
28.999916461000,-0.237000000000
29.007602328000,-0.232000000000
29.015288195000,-0.224000000000
29.022974062000,-0.219000000000
29.030659929000,-0.219000000000
29.038345796000,-0.217000000000
29.046031663000,-0.212000000000
29.053717530000,-0.212000000000
29.061403397000,-0.207000000000
29.069089264000,-0.205000000000
29.076775131000,-0.202000000000
29.084460998000,-0.202000000000
29.092146865000,-0.200000000000
29.099832732000,-0.195000000000
29.107518599000,-0.190000000000
29.115204466000,-0.187000000000
29.122890333000,-0.185000000000
29.130576200000,-0.180000000000
29.138262067000,-0.185000000000
29.145947934000,-0.190000000000
29.153633801000,-0.182000000000
29.161319668000,-0.165000000000
29.169005535000,-0.148000000000
29.176691402000,-0.133000000000
29.184377269000,-0.121000000000
29.192063136000,-0.106000000000
29.199749003000,-0.111000000000
29.207434870000,-0.148000000000
29.215120737000,-0.170000000000
29.222806604000,-0.163000000000
29.230492471000,-0.153000000000
29.238178338000,-0.155000000000
29.245864205000,-0.150000000000
29.253550072000,-0.145000000000
29.261235939000,-0.143000000000
29.268921806000,-0.138000000000
29.276607673000,-0.138000000000
29.284293540000,-0.150000000000
29.291979407000,-0.185000000000
29.299665274000,-0.234000000000
29.307351141000,-0.108000000000
29.315037008000,0.434000000000
29.322722875000,1.217000000000
29.330408794000,1.800000000000
29.338095079000,1.558000000000
29.345781364000,0.205000000000
29.353467649000,-0.797000000000
29.361153934000,-0.412000000000
