time,LSB
0.000000000000,1.725000000000
0.007687748000,0.782000000000
0.015375496000,-0.445000000000
0.023063244000,-0.566000000000
0.030750992000,-0.137000000000
0.038438740000,-0.194000000000
0.046126488000,-0.297000000000
0.053814236000,-0.184000000000
0.061501984000,-0.164000000000
0.069189732000,-0.192000000000
0.076877548000,-0.152000000000
0.084565436000,-0.130000000000
0.092253324000,-0.128000000000
0.099941212000,-0.103000000000
0.107629100000,-0.078000000000
0.115316988000,-0.066000000000
0.123004876000,-0.046000000000
0.130692764000,-0.024000000000
0.138380652000,-0.009000000000
0.146068540000,0.014000000000
0.153756428000,0.044000000000
0.161444316000,0.071000000000
0.169132204000,0.100000000000
0.176820092000,0.130000000000
0.184507980000,0.157000000000
0.192195868000,0.174000000000
0.199883756000,0.182000000000
0.207571644000,0.182000000000
0.215259532000,0.172000000000
0.222947420000,0.150000000000
0.230635308000,0.120000000000
0.238323196000,0.078000000000
0.246011084000,0.009000000000
0.253698972000,-0.073000000000
0.261386860000,-0.145000000000
0.269074748000,-0.199000000000
0.276762636000,-0.238000000000
0.284450524000,-0.258000000000
0.292138412000,-0.263000000000
0.299826300000,-0.260000000000
0.307514188000,-0.253000000000
0.315202076000,-0.241000000000
0.322889964000,-0.228000000000
0.330577852000,-0.216000000000
0.338265740000,-0.206000000000
0.345953628000,-0.199000000000
0.353641516000,-0.189000000000
0.361329404000,-0.179000000000
0.369017292000,-0.169000000000
0.376705180000,-0.160000000000
0.384393068000,-0.155000000000
0.392080956000,-0.155000000000
0.399768844000,-0.150000000000
0.407456732000,-0.142000000000
0.415144620000,-0.140000000000
0.422832508000,-0.140000000000
0.430520396000,-0.142000000000
0.438208284000,-0.140000000000
0.445896172000,-0.135000000000
0.453584060000,-0.135000000000
0.461271948000,-0.137000000000
0.468959836000,-0.135000000000
0.476647724000,-0.132000000000
0.484335612000,-0.135000000000
0.492023500000,-0.137000000000
0.499711388000,-0.142000000000
0.507399276000,-0.140000000000
0.515087164000,-0.130000000000
0.522775052000,-0.118000000000
0.530462940000,-0.115000000000
0.538150828000,-0.118000000000
0.545838716000,-0.105000000000
0.553526604000,-0.088000000000
0.561214492000,-0.100000000000
0.568902380000,-0.130000000000
0.576590268000,-0.130000000000
0.584278156000,-0.115000000000
0.591966044000,-0.113000000000
0.599653932000,-0.113000000000
0.607341820000,-0.108000000000
0.615029708000,-0.108000000000
0.622717596000,-0.123000000000
0.630405484000,-0.167000000000
0.638093398000,-0.256000000000
0.645781007000,-0.224000000000
0.653468616000,0.233000000000
0.661156225000,1.058000000000
0.668843834000,1.737000000000
0.676531443000,1.580000000000
0.684219052000,0.364000000000
0.691906661000,-0.615000000000
0.699594270000,-0.401000000000
0.707281879000,-0.078000000000
0.714969488000,-0.253000000000
0.722657097000,-0.290000000000
0.730344706000,-0.167000000000
0.738032315000,-0.182000000000
0.745719924000,-0.204000000000
0.753407533000,-0.152000000000
0.761095142000,-0.130000000000
0.768782751000,-0.128000000000
0.776470360000,-0.105000000000
0.784157969000,-0.081000000000
0.791845578000,-0.068000000000
0.799533187000,-0.051000000000
0.807220796000,-0.027000000000
0.814908405000,-0.004000000000
0.822596014000,0.014000000000
0.830283623000,0.041000000000
0.837971232000,0.071000000000
0.845658841000,0.100000000000
0.853346450000,0.128000000000
0.861034059000,0.157000000000
0.868721668000,0.177000000000
0.876409277000,0.179000000000
0.884096886000,0.177000000000
0.891784495000,0.167000000000
0.899472104000,0.147000000000
0.907159713000,0.115000000000
0.914847322000,0.064000000000
0.922534931000,-0.009000000000
0.930222540000,-0.091000000000
0.937910149000,-0.162000000000
0.945597758000,-0.214000000000
0.953285367000,-0.246000000000
0.960972976000,-0.263000000000
0.968660585000,-0.268000000000
0.976348194000,-0.265000000000
0.984035803000,-0.253000000000
0.991723412000,-0.238000000000
0.999411021000,-0.226000000000
1.007098630000,-0.219000000000
1.014786239000,-0.206000000000
1.022473848000,-0.194000000000
1.030161457000,-0.189000000000
1.037849066000,-0.184000000000
1.045536675000,-0.172000000000
1.053224284000,-0.167000000000
1.060911893000,-0.167000000000
1.068599502000,-0.162000000000
1.076287111000,-0.157000000000
1.083974720000,-0.157000000000
1.091662329000,-0.155000000000
1.099349938000,-0.150000000000
1.107037547000,-0.147000000000
1.114725156000,-0.147000000000
1.122412765000,-0.145000000000
1.130100374000,-0.145000000000
1.137787983000,-0.142000000000
1.145475592000,-0.135000000000
1.153163201000,-0.135000000000
1.160850810000,-0.135000000000
1.168538419000,-0.130000000000
1.176226028000,-0.135000000000
1.183913637000,-0.142000000000
1.191601246000,-0.142000000000
1.199288896000,-0.132000000000
1.206976854000,-0.123000000000
1.214664812000,-0.113000000000
1.222352770000,-0.110000000000
1.230040728000,-0.100000000000
1.237728686000,-0.088000000000
1.245416644000,-0.093000000000
1.253104602000,-0.118000000000
1.260792560000,-0.130000000000
1.268480518000,-0.118000000000
1.276168476000,-0.113000000000
1.283856434000,-0.113000000000
1.291544392000,-0.103000000000
1.299232350000,-0.096000000000
1.306920308000,-0.105000000000
1.314608266000,-0.130000000000
1.322296224000,-0.199000000000
1.329984182000,-0.280000000000
1.337672140000,-0.120000000000
1.345360098000,0.526000000000
1.353048056000,1.405000000000
1.360736014000,1.863000000000
1.368423972000,1.211000000000
1.376111930000,-0.150000000000
1.383799888000,-0.625000000000
1.391487846000,-0.201000000000
1.399175804000,-0.130000000000
1.406863762000,-0.305000000000
1.414551720000,-0.228000000000
1.422239678000,-0.155000000000
1.429927636000,-0.196000000000
1.437615594000,-0.177000000000
1.445303552000,-0.130000000000
1.452991510000,-0.125000000000
1.460679468000,-0.113000000000
1.468367426000,-0.088000000000
1.476055384000,-0.071000000000
1.483743342000,-0.051000000000
1.491431300000,-0.029000000000
1.499119258000,-0.012000000000
1.506807216000,0.009000000000
1.514495174000,0.039000000000
1.522183132000,0.066000000000
1.529871090000,0.096000000000
1.537559048000,0.130000000000
1.545247006000,0.162000000000
1.552934964000,0.184000000000
1.560622922000,0.199000000000
1.568310880000,0.201000000000
1.575998838000,0.192000000000
1.583686796000,0.179000000000
1.591374754000,0.160000000000
1.599062712000,0.118000000000
1.606750670000,0.054000000000
1.614438628000,-0.024000000000
1.622126586000,-0.105000000000
1.629814544000,-0.172000000000
1.637502502000,-0.219000000000
1.645190460000,-0.246000000000
1.652878418000,-0.258000000000
1.660566376000,-0.258000000000
1.668254334000,-0.251000000000
1.675942292000,-0.238000000000
1.683630250000,-0.226000000000
1.691318208000,-0.216000000000
1.699006166000,-0.204000000000
1.706694124000,-0.192000000000
1.714382082000,-0.184000000000
1.722070040000,-0.177000000000
1.729757998000,-0.169000000000
1.737445956000,-0.162000000000
1.745133914000,-0.157000000000
1.752821872000,-0.152000000000
1.760509833000,-0.152000000000
1.768197790000,-0.152000000000
1.775885747000,-0.147000000000
1.783573704000,-0.140000000000
1.791261661000,-0.142000000000
1.798949618000,-0.145000000000
1.806637575000,-0.137000000000
1.814325532000,-0.130000000000
1.822013489000,-0.137000000000
1.829701446000,-0.137000000000
1.837389403000,-0.128000000000
1.845077360000,-0.125000000000
1.852765317000,-0.130000000000
1.860453274000,-0.128000000000
1.868141231000,-0.120000000000
1.875829188000,-0.118000000000
1.883517145000,-0.118000000000
1.891205102000,-0.120000000000
1.898893059000,-0.130000000000
1.906581016000,-0.130000000000
1.914268973000,-0.120000000000
1.921956930000,-0.105000000000
1.929644887000,-0.096000000000
1.937332844000,-0.093000000000
1.945020801000,-0.083000000000
1.952708758000,-0.068000000000
1.960396715000,-0.081000000000
1.968084672000,-0.108000000000
1.975772629000,-0.115000000000
1.983460586000,-0.100000000000
1.991148543000,-0.096000000000
1.998836500000,-0.096000000000
2.006524457000,-0.091000000000
2.014212414000,-0.088000000000
2.021900371000,-0.096000000000
2.029588328000,-0.120000000000
2.037276285000,-0.196000000000
2.044964242000,-0.273000000000
2.052652199000,-0.076000000000
2.060340156000,0.608000000000
2.068028113000,1.486000000000
2.075716070000,1.870000000000
2.083404027000,1.095000000000
2.091091984000,-0.248000000000
2.098779941000,-0.588000000000
2.106467898000,-0.155000000000
2.114155855000,-0.142000000000
2.121843812000,-0.297000000000
2.129531769000,-0.206000000000
2.137219726000,-0.155000000000
2.144907683000,-0.192000000000
2.152595640000,-0.162000000000
2.160283597000,-0.123000000000
2.167971554000,-0.118000000000
2.175659511000,-0.100000000000
2.183347468000,-0.076000000000
2.191035425000,-0.064000000000
2.198723382000,-0.049000000000
2.206411339000,-0.029000000000
2.214099296000,-0.002000000000
2.221787253000,0.024000000000
2.229475210000,0.046000000000
2.237163167000,0.073000000000
2.244851124000,0.103000000000
2.252539081000,0.135000000000
2.260227038000,0.162000000000
2.267914995000,0.189000000000
2.275602952000,0.201000000000
2.283290909000,0.204000000000
2.290978866000,0.199000000000
2.298666823000,0.184000000000
2.306354780000,0.160000000000
2.314042737000,0.123000000000
2.321730766000,0.064000000000
2.329418514000,-0.014000000000
2.337106262000,-0.093000000000
2.344794010000,-0.157000000000
2.352481758000,-0.204000000000
2.360169506000,-0.236000000000
2.367857254000,-0.243000000000
2.375545002000,-0.243000000000
2.383232750000,-0.246000000000
2.390920498000,-0.233000000000
2.398608246000,-0.214000000000
2.406295994000,-0.204000000000
2.413983742000,-0.199000000000
2.421671490000,-0.187000000000
2.429359238000,-0.174000000000
2.437046986000,-0.169000000000
2.444734734000,-0.164000000000
2.452422482000,-0.157000000000
2.460110230000,-0.150000000000
2.467797978000,-0.147000000000
2.475485726000,-0.150000000000
2.483173474000,-0.145000000000
2.490861222000,-0.137000000000
2.498548970000,-0.137000000000
2.506236718000,-0.140000000000
2.513924466000,-0.140000000000
2.521612214000,-0.137000000000
2.529299962000,-0.130000000000
2.536987710000,-0.130000000000
2.544675458000,-0.132000000000
2.552363206000,-0.125000000000
2.560050954000,-0.120000000000
2.567738702000,-0.123000000000
2.575426450000,-0.118000000000
2.583114198000,-0.113000000000
2.590801946000,-0.118000000000
2.598489694000,-0.123000000000
2.606177442000,-0.123000000000
2.613865190000,-0.128000000000
2.621552938000,-0.120000000000
2.629240686000,-0.103000000000
2.636928434000,-0.096000000000
2.644616182000,-0.093000000000
2.652303930000,-0.086000000000
2.659991678000,-0.071000000000
2.667679426000,-0.076000000000
2.675367174000,-0.098000000000
2.683054922000,-0.113000000000
2.690742670000,-0.105000000000
2.698430418000,-0.098000000000
2.706118166000,-0.096000000000
2.713805914000,-0.098000000000
2.721493662000,-0.093000000000
2.729181410000,-0.091000000000
2.736869158000,-0.115000000000
2.744556906000,-0.184000000000
2.752244654000,-0.273000000000
2.759932402000,-0.160000000000
2.767620150000,0.428000000000
2.775307898000,1.317000000000
2.782995646000,1.873000000000
2.790683394000,1.339000000000
2.798371142000,-0.022000000000
2.806058890000,-0.617000000000
2.813746638000,-0.231000000000
2.821434386000,-0.110000000000
2.829122134000,-0.280000000000
2.836809882000,-0.226000000000
2.844497630000,-0.152000000000
2.852185378000,-0.187000000000
2.859873126000,-0.169000000000
2.867560874000,-0.125000000000
2.875248622000,-0.120000000000
2.882936442000,-0.110000000000
2.890624190000,-0.083000000000
2.898311938000,-0.064000000000
2.905999686000,-0.049000000000
2.913687434000,-0.024000000000
2.921375182000,-0.007000000000
2.929062930000,0.009000000000
2.936750678000,0.036000000000
2.944438426000,0.064000000000
2.952126174000,0.091000000000
2.959813922000,0.125000000000
2.967501670000,0.152000000000
2.975189418000,0.174000000000
2.982877166000,0.192000000000
2.990564914000,0.196000000000
2.998252662000,0.194000000000
3.005940410000,0.179000000000
3.013628158000,0.155000000000
3.021315906000,0.123000000000
3.029003654000,0.071000000000
3.036691402000,-0.007000000000
3.044379150000,-0.088000000000
3.052066898000,-0.150000000000
3.059754646000,-0.201000000000
3.067442394000,-0.236000000000
3.075130142000,-0.248000000000
3.082817890000,-0.251000000000
3.090505638000,-0.243000000000
3.098193386000,-0.236000000000
3.105881134000,-0.226000000000
3.113568882000,-0.216000000000
3.121256630000,-0.201000000000
3.128944378000,-0.189000000000
3.136632126000,-0.184000000000
3.144319874000,-0.174000000000
3.152007622000,-0.164000000000
3.159695370000,-0.160000000000
3.167383118000,-0.157000000000
3.175070866000,-0.152000000000
3.182758614000,-0.145000000000
3.190446362000,-0.145000000000
3.198134110000,-0.145000000000
3.205821858000,-0.145000000000
3.213509606000,-0.142000000000
3.221197354000,-0.140000000000
3.228885102000,-0.140000000000
3.236572850000,-0.137000000000
3.244260598000,-0.137000000000
3.251948346000,-0.137000000000
3.259636094000,-0.132000000000
3.267323842000,-0.128000000000
3.275011590000,-0.128000000000
3.282699338000,-0.125000000000
3.290387086000,-0.120000000000
3.298074834000,-0.118000000000
3.305762582000,-0.118000000000
3.313450330000,-0.118000000000
3.321138078000,-0.128000000000
3.328825826000,-0.132000000000
3.336513574000,-0.130000000000
3.344201322000,-0.115000000000
3.351889070000,-0.100000000000
3.359576818000,-0.098000000000
3.367264566000,-0.098000000000
3.374952314000,-0.081000000000
3.382640062000,-0.076000000000
3.390327810000,-0.100000000000
3.398015558000,-0.118000000000
3.405703306000,-0.113000000000
3.413391054000,-0.105000000000
3.421078802000,-0.100000000000
3.428766550000,-0.098000000000
3.436454298000,-0.098000000000
3.444142114000,-0.098000000000
3.451830002000,-0.113000000000
3.459517890000,-0.162000000000
3.467205778000,-0.258000000000
3.474893666000,-0.233000000000
3.482581554000,0.224000000000
3.490269442000,1.078000000000
3.497957330000,1.799000000000
3.505645218000,1.609000000000
3.513333106000,0.344000000000
3.521020994000,-0.593000000000
3.528708882000,-0.356000000000
3.536396770000,-0.083000000000
3.544084658000,-0.256000000000
3.551772546000,-0.265000000000
3.559460434000,-0.160000000000
3.567148322000,-0.187000000000
3.574836210000,-0.189000000000
3.582524098000,-0.130000000000
3.590211986000,-0.115000000000
3.597899874000,-0.113000000000
3.605587762000,-0.088000000000
3.613275650000,-0.071000000000
3.620963538000,-0.054000000000
3.628651426000,-0.032000000000
3.636339314000,-0.012000000000
3.644027202000,0.012000000000
3.651715090000,0.044000000000
3.659402978000,0.064000000000
3.667090866000,0.086000000000
3.674778754000,0.125000000000
3.682466642000,0.162000000000
3.690154530000,0.187000000000
3.697842418000,0.204000000000
3.705530306000,0.211000000000
3.713218194000,0.196000000000
3.720906082000,0.187000000000
3.728593970000,0.177000000000
3.736281858000,0.152000000000
3.743969746000,0.105000000000
3.751657634000,0.044000000000
3.759345522000,-0.039000000000
3.767033410000,-0.118000000000
3.774721298000,-0.167000000000
3.782409186000,-0.196000000000
3.790097074000,-0.221000000000
3.797784962000,-0.233000000000
3.805472850000,-0.236000000000
3.813160738000,-0.228000000000
3.820848626000,-0.211000000000
3.828536514000,-0.194000000000
3.836224402000,-0.184000000000
3.843912290000,-0.174000000000
3.851600178000,-0.167000000000
3.859288066000,-0.164000000000
3.866975954000,-0.142000000000
3.874663842000,-0.132000000000
3.882351730000,-0.140000000000
3.890039618000,-0.130000000000
3.897727506000,-0.118000000000
3.905415394000,-0.123000000000
3.913103282000,-0.128000000000
3.920791170000,-0.125000000000
3.928479058000,-0.123000000000
3.936166946000,-0.118000000000
3.943854834000,-0.110000000000
3.951542722000,-0.105000000000
3.959230610000,-0.108000000000
3.966918498000,-0.113000000000
3.974606386000,-0.108000000000
3.982294274000,-0.105000000000
3.989982162000,-0.105000000000
3.997670050000,-0.105000000000
4.005357964000,-0.098000000000
4.013045573000,-0.093000000000
4.020733182000,-0.098000000000
4.028420791000,-0.100000000000
4.036108400000,-0.098000000000
4.043796009000,-0.098000000000
4.051483618000,-0.088000000000
4.059171227000,-0.066000000000
4.066858836000,-0.073000000000
4.074546445000,-0.078000000000
4.082234054000,-0.056000000000
4.089921663000,-0.056000000000
4.097609272000,-0.091000000000
4.105296881000,-0.100000000000
4.112984490000,-0.083000000000
4.120672099000,-0.073000000000
4.128359708000,-0.078000000000
4.136047317000,-0.068000000000
4.143734926000,-0.054000000000
4.151422535000,-0.076000000000
4.159110144000,-0.120000000000
4.166797753000,-0.182000000000
4.174485362000,-0.251000000000
4.182172971000,-0.056000000000
4.189860580000,0.657000000000
4.197548189000,1.553000000000
4.205235798000,1.902000000000
4.212923407000,1.093000000000
4.220611016000,-0.238000000000
4.228298625000,-0.553000000000
4.235986234000,-0.135000000000
4.243673843000,-0.147000000000
4.251361452000,-0.275000000000
4.259049061000,-0.155000000000
4.266736670000,-0.115000000000
4.274424279000,-0.160000000000
4.282111888000,-0.115000000000
4.289799497000,-0.078000000000
4.297487106000,-0.088000000000
4.305174715000,-0.073000000000
4.312862324000,-0.036000000000
4.320549933000,-0.009000000000
4.328237542000,0.004000000000
4.335925151000,0.012000000000
4.343612760000,0.039000000000
4.351300369000,0.086000000000
4.358987978000,0.113000000000
4.366675587000,0.125000000000
4.374363196000,0.157000000000
4.382050805000,0.189000000000
4.389738414000,0.211000000000
4.397426023000,0.253000000000
4.405113632000,0.288000000000
4.412801241000,0.283000000000
4.420488850000,0.251000000000
4.428176459000,0.231000000000
4.435864068000,0.211000000000
4.443551677000,0.169000000000
4.451239286000,0.110000000000
4.458926895000,0.027000000000
4.466614504000,-0.068000000000
4.474302113000,-0.150000000000
4.481989722000,-0.196000000000
4.489677331000,-0.221000000000
4.497364940000,-0.238000000000
4.505052549000,-0.216000000000
4.512740158000,-0.196000000000
4.520427767000,-0.219000000000
4.528115376000,-0.219000000000
4.535802985000,-0.196000000000
4.543490594000,-0.182000000000
4.551178203000,-0.164000000000
4.558865812000,-0.145000000000
4.566553462000,-0.142000000000
4.574241420000,-0.155000000000
4.581929378000,-0.147000000000
4.589617336000,-0.125000000000
4.597305294000,-0.115000000000
4.604993252000,-0.113000000000
4.612681210000,-0.108000000000
4.620369168000,-0.113000000000
4.628057126000,-0.132000000000
4.635745084000,-0.130000000000
4.643433042000,-0.098000000000
4.651121000000,-0.098000000000
4.658808958000,-0.118000000000
4.666496916000,-0.105000000000
4.674184874000,-0.105000000000
4.681872832000,-0.128000000000
4.689560790000,-0.120000000000
4.697248748000,-0.115000000000
4.704936706000,-0.118000000000
4.712624664000,-0.103000000000
4.720312622000,-0.091000000000
4.728000580000,-0.086000000000
4.735688538000,-0.086000000000
4.743376496000,-0.076000000000
4.751064454000,-0.066000000000
4.758752412000,-0.091000000000
4.766440370000,-0.113000000000
4.774128328000,-0.108000000000
4.781816286000,-0.103000000000
4.789504244000,-0.103000000000
4.797192202000,-0.096000000000
4.804880160000,-0.091000000000
4.812568118000,-0.088000000000
4.820256076000,-0.108000000000
4.827944034000,-0.177000000000
4.835631992000,-0.268000000000
4.843319950000,-0.160000000000
4.851007908000,0.430000000000
4.858695866000,1.321000000000
4.866383824000,1.866000000000
4.874071782000,1.398000000000
4.881759740000,0.083000000000
4.889447698000,-0.622000000000
4.897135656000,-0.288000000000
4.904823614000,-0.115000000000
4.912511572000,-0.280000000000
4.920199530000,-0.226000000000
4.927887488000,-0.145000000000
4.935575446000,-0.184000000000
4.943263404000,-0.167000000000
4.950951362000,-0.115000000000
4.958639320000,-0.118000000000
4.966327278000,-0.108000000000
4.974015236000,-0.073000000000
4.981703194000,-0.051000000000
4.989391152000,-0.034000000000
4.997079110000,-0.017000000000
5.004767068000,0.000000000000
5.012455026000,0.024000000000
5.020142984000,0.051000000000
5.027830942000,0.083000000000
5.035518900000,0.113000000000
5.043206858000,0.145000000000
5.050894816000,0.172000000000
5.058582774000,0.187000000000
5.066270732000,0.196000000000
5.073958690000,0.201000000000
5.081646648000,0.192000000000
5.089334606000,0.174000000000
5.097022564000,0.145000000000
5.104710522000,0.105000000000
5.112398480000,0.046000000000
5.120086438000,-0.029000000000
5.127774399000,-0.110000000000
5.135462356000,-0.177000000000
5.143150313000,-0.224000000000
5.150838270000,-0.248000000000
5.158526227000,-0.260000000000
5.166214184000,-0.263000000000
5.173902141000,-0.258000000000
5.181590098000,-0.251000000000
5.189278055000,-0.238000000000
5.196966012000,-0.226000000000
5.204653969000,-0.211000000000
5.212341926000,-0.199000000000
5.220029883000,-0.192000000000
5.227717840000,-0.189000000000
5.235405797000,-0.177000000000
5.243093754000,-0.164000000000
5.250781711000,-0.160000000000
5.258469668000,-0.152000000000
5.266157625000,-0.145000000000
5.273845582000,-0.142000000000
5.281533539000,-0.140000000000
5.289221496000,-0.137000000000
5.296909453000,-0.137000000000
5.304597410000,-0.140000000000
5.312285367000,-0.135000000000
5.319973324000,-0.132000000000
5.327661281000,-0.137000000000
5.335349238000,-0.135000000000
5.343037195000,-0.132000000000
5.350725152000,-0.135000000000
5.358413109000,-0.137000000000
5.366101066000,-0.142000000000
5.373789023000,-0.150000000000
5.381476980000,-0.145000000000
5.389164937000,-0.125000000000
5.396852894000,-0.118000000000
5.404540851000,-0.125000000000
5.412228808000,-0.120000000000
5.419916765000,-0.105000000000
5.427604722000,-0.093000000000
5.435292679000,-0.103000000000
5.442980636000,-0.123000000000
5.450668593000,-0.125000000000
5.458356550000,-0.115000000000
5.466044507000,-0.115000000000
5.473732464000,-0.115000000000
5.481420421000,-0.108000000000
5.489108378000,-0.103000000000
5.496796335000,-0.118000000000
5.504484292000,-0.172000000000
5.512172249000,-0.258000000000
5.519860206000,-0.209000000000
5.527548163000,0.268000000000
5.535236120000,1.088000000000
5.542924077000,1.745000000000
5.550612034000,1.550000000000
5.558299991000,0.310000000000
5.565987948000,-0.625000000000
5.573675905000,-0.366000000000
5.581363862000,-0.073000000000
5.589051819000,-0.265000000000
5.596739776000,-0.283000000000
5.604427733000,-0.160000000000
5.612115690000,-0.187000000000
5.619803647000,-0.201000000000
5.627491604000,-0.145000000000
5.635179561000,-0.130000000000
5.642867518000,-0.132000000000
5.650555475000,-0.103000000000
5.658243432000,-0.078000000000
5.665931389000,-0.068000000000
5.673619346000,-0.054000000000
5.681307303000,-0.029000000000
5.688995332000,-0.007000000000
5.696682871000,0.012000000000
5.704370410000,0.036000000000
5.712057949000,0.066000000000
5.719745488000,0.093000000000
5.727433027000,0.123000000000
5.735120566000,0.147000000000
5.742808105000,0.164000000000
5.750495644000,0.167000000000
5.758183183000,0.164000000000
5.765870722000,0.155000000000
5.773558261000,0.137000000000
5.781245800000,0.110000000000
5.788933339000,0.064000000000
5.796620878000,-0.004000000000
5.804308417000,-0.086000000000
5.811995956000,-0.152000000000
5.819683495000,-0.196000000000
5.827371034000,-0.231000000000
5.835058573000,-0.248000000000
5.842746112000,-0.248000000000
5.850433651000,-0.246000000000
5.858121190000,-0.241000000000
5.865808729000,-0.228000000000
5.873496268000,-0.214000000000
5.881183807000,-0.204000000000
5.888871346000,-0.194000000000
5.896558885000,-0.182000000000
5.904246424000,-0.174000000000
5.911933963000,-0.167000000000
5.919621502000,-0.160000000000
5.927309041000,-0.155000000000
5.934996580000,-0.155000000000
5.942684119000,-0.150000000000
5.950371658000,-0.145000000000
5.958059197000,-0.147000000000
5.965746736000,-0.145000000000
5.973434275000,-0.140000000000
5.981121814000,-0.140000000000
5.988809353000,-0.137000000000
5.996496892000,-0.132000000000
6.004184431000,-0.132000000000
6.011871970000,-0.130000000000
6.019559509000,-0.128000000000
6.027247048000,-0.125000000000
6.034934587000,-0.120000000000
6.042622126000,-0.120000000000
6.050309665000,-0.128000000000
6.057997204000,-0.135000000000
6.065684743000,-0.132000000000
6.073372282000,-0.120000000000
6.081059821000,-0.105000000000
6.088747360000,-0.103000000000
6.096434899000,-0.103000000000
6.104122438000,-0.093000000000
6.111809977000,-0.081000000000
6.119497516000,-0.086000000000
6.127185055000,-0.110000000000
6.134872594000,-0.120000000000
6.142560133000,-0.105000000000
6.150247672000,-0.100000000000
6.157935211000,-0.103000000000
6.165622750000,-0.098000000000
6.173310289000,-0.093000000000
6.180997828000,-0.105000000000
6.188685367000,-0.145000000000
6.196372906000,-0.231000000000
6.204060445000,-0.258000000000
6.211747984000,0.088000000000
6.219435523000,0.876000000000
6.227123062000,1.671000000000
6.234810601000,1.755000000000
6.242498140000,0.672000000000
6.250185747000,-0.507000000000
6.257873704000,-0.480000000000
6.265561661000,-0.081000000000
6.273249618000,-0.206000000000
6.280937575000,-0.295000000000
6.288625532000,-0.172000000000
6.296313489000,-0.162000000000
6.304001446000,-0.192000000000
6.311689403000,-0.145000000000
6.319377360000,-0.120000000000
6.327065317000,-0.120000000000
6.334753274000,-0.096000000000
6.342441231000,-0.071000000000
6.350129188000,-0.061000000000
6.357817145000,-0.041000000000
6.365505102000,-0.019000000000
6.373193059000,0.002000000000
6.380881016000,0.027000000000
6.388568973000,0.054000000000
6.396256930000,0.078000000000
6.403944887000,0.108000000000
6.411632844000,0.142000000000
6.419320801000,0.172000000000
6.427008758000,0.189000000000
6.434696715000,0.199000000000
6.442384672000,0.196000000000
6.450072629000,0.187000000000
6.457760586000,0.172000000000
6.465448543000,0.147000000000
6.473136500000,0.103000000000
6.480824457000,0.032000000000
6.488512414000,-0.051000000000
6.496200371000,-0.125000000000
6.503888328000,-0.182000000000
6.511576285000,-0.219000000000
6.519264242000,-0.238000000000
6.526952199000,-0.243000000000
6.534640156000,-0.243000000000
6.542328113000,-0.236000000000
6.550016070000,-0.224000000000
6.557704027000,-0.211000000000
6.565391984000,-0.199000000000
6.573079941000,-0.189000000000
6.580767898000,-0.179000000000
6.588455855000,-0.167000000000
6.596143812000,-0.160000000000
6.603831769000,-0.160000000000
6.611519726000,-0.157000000000
6.619207683000,-0.150000000000
6.626895640000,-0.145000000000
6.634583597000,-0.147000000000
6.642271554000,-0.145000000000
6.649959511000,-0.145000000000
6.657647468000,-0.140000000000
6.665335425000,-0.132000000000
6.673023382000,-0.130000000000
6.680711339000,-0.130000000000
6.688399296000,-0.128000000000
6.696087253000,-0.123000000000
6.703775210000,-0.125000000000
6.711463167000,-0.120000000000
6.719151124000,-0.118000000000
6.726839081000,-0.115000000000
6.734527038000,-0.115000000000
6.742214995000,-0.110000000000
6.749902952000,-0.113000000000
6.757590909000,-0.123000000000
6.765278866000,-0.125000000000
6.772966823000,-0.115000000000
6.780654780000,-0.098000000000
6.788342737000,-0.088000000000
6.796030694000,-0.088000000000
6.803718651000,-0.081000000000
6.811406680000,-0.066000000000
6.819094568000,-0.071000000000
6.826782456000,-0.098000000000
6.834470344000,-0.108000000000
6.842158232000,-0.096000000000
6.849846120000,-0.093000000000
6.857534008000,-0.091000000000
6.865221896000,-0.086000000000
6.872909784000,-0.086000000000
6.880597672000,-0.091000000000
6.888285560000,-0.115000000000
6.895973448000,-0.189000000000
6.903661336000,-0.268000000000
6.911349224000,-0.093000000000
6.919037112000,0.566000000000
6.926725000000,1.440000000000
6.934412888000,1.866000000000
6.942100776000,1.157000000000
6.949788664000,-0.194000000000
6.957476552000,-0.600000000000
6.965164440000,-0.167000000000
6.972852328000,-0.123000000000
6.980540216000,-0.288000000000
6.988228104000,-0.204000000000
6.995915992000,-0.142000000000
7.003603880000,-0.182000000000
7.011291768000,-0.157000000000
7.018979656000,-0.115000000000
7.026667544000,-0.113000000000
7.034355432000,-0.098000000000
7.042043320000,-0.068000000000
7.049731208000,-0.054000000000
7.057419096000,-0.039000000000
7.065106984000,-0.017000000000
7.072794872000,0.007000000000
7.080482760000,0.029000000000
7.088170648000,0.051000000000
7.095858536000,0.081000000000
7.103546424000,0.110000000000
7.111234312000,0.137000000000
7.118922200000,0.162000000000
7.126610088000,0.187000000000
7.134297976000,0.196000000000
7.141985864000,0.196000000000
7.149673752000,0.194000000000
7.157361640000,0.179000000000
7.165049528000,0.157000000000
7.172737416000,0.123000000000
7.180425304000,0.064000000000
7.188113192000,-0.012000000000
7.195801080000,-0.088000000000
7.203488968000,-0.152000000000
7.211176856000,-0.199000000000
7.218864744000,-0.226000000000
7.226552632000,-0.238000000000
7.234240520000,-0.238000000000
7.241928408000,-0.233000000000
7.249616296000,-0.221000000000
7.257304184000,-0.209000000000
7.264992072000,-0.199000000000
7.272679960000,-0.189000000000
7.280367848000,-0.177000000000
7.288055736000,-0.167000000000
7.295743624000,-0.160000000000
7.303431512000,-0.152000000000
7.311119400000,-0.147000000000
7.318807288000,-0.142000000000
7.326495176000,-0.140000000000
7.334183064000,-0.137000000000
7.341870952000,-0.137000000000
7.349558840000,-0.132000000000
7.357246728000,-0.130000000000
7.364934616000,-0.130000000000
7.372622530000,-0.132000000000
7.380310139000,-0.128000000000
7.387997748000,-0.125000000000
7.395685357000,-0.125000000000
7.403372966000,-0.123000000000
7.411060575000,-0.120000000000
7.418748184000,-0.118000000000
7.426435793000,-0.115000000000
7.434123402000,-0.110000000000
7.441811011000,-0.110000000000
7.449498620000,-0.108000000000
7.457186229000,-0.105000000000
7.464873838000,-0.108000000000
7.472561447000,-0.115000000000
7.480249056000,-0.118000000000
7.487936665000,-0.113000000000
7.495624274000,-0.098000000000
7.503311883000,-0.086000000000
7.510999492000,-0.086000000000
7.518687101000,-0.081000000000
7.526374710000,-0.064000000000
7.534062319000,-0.064000000000
7.541749928000,-0.091000000000
7.549437537000,-0.105000000000
7.557125146000,-0.098000000000
7.564812755000,-0.088000000000
7.572500364000,-0.088000000000
7.580187973000,-0.086000000000
7.587875582000,-0.083000000000
7.595563191000,-0.086000000000
7.603250800000,-0.105000000000
7.610938409000,-0.169000000000
7.618626018000,-0.260000000000
7.626313627000,-0.167000000000
7.634001236000,0.396000000000
7.641688845000,1.270000000000
7.649376454000,1.848000000000
7.657064063000,1.385000000000
7.664751672000,0.044000000000
7.672439281000,-0.617000000000
7.680126890000,-0.246000000000
7.687814499000,-0.088000000000
7.695502108000,-0.270000000000
7.703189717000,-0.226000000000
7.710877326000,-0.137000000000
7.718564935000,-0.174000000000
7.726252544000,-0.164000000000
7.733940153000,-0.115000000000
7.741627762000,-0.108000000000
7.749315371000,-0.103000000000
7.757002980000,-0.076000000000
7.764690589000,-0.056000000000
7.772378198000,-0.044000000000
7.780065807000,-0.024000000000
7.787753416000,0.000000000000
7.795441025000,0.022000000000
7.803128634000,0.044000000000
7.810816243000,0.071000000000
7.818503852000,0.103000000000
7.826191461000,0.130000000000
7.833879070000,0.155000000000
7.841566679000,0.179000000000
7.849254288000,0.194000000000
7.856941897000,0.196000000000
7.864629506000,0.187000000000
7.872317115000,0.177000000000
7.880004724000,0.160000000000
7.887692333000,0.128000000000
7.895379942000,0.073000000000
7.903067551000,0.004000000000
7.910755160000,-0.071000000000
7.918442769000,-0.137000000000
7.926130378000,-0.184000000000
7.933818028000,-0.211000000000
7.941505986000,-0.228000000000
7.949193944000,-0.233000000000
7.956881902000,-0.228000000000
7.964569860000,-0.221000000000
7.972257818000,-0.211000000000
7.979945776000,-0.199000000000
7.987633734000,-0.187000000000
7.995321692000,-0.177000000000
8.003009650000,-0.167000000000
8.010697608000,-0.157000000000
8.018385566000,-0.155000000000
8.026073524000,-0.147000000000
8.033761482000,-0.142000000000
8.041449440000,-0.142000000000
8.049137398000,-0.140000000000
8.056825356000,-0.132000000000
8.064513314000,-0.130000000000
8.072201272000,-0.130000000000
8.079889230000,-0.130000000000
8.087577188000,-0.130000000000
8.095265146000,-0.128000000000
8.102953104000,-0.128000000000
8.110641062000,-0.128000000000
8.118329020000,-0.123000000000
8.126016978000,-0.123000000000
8.133704936000,-0.123000000000
8.141392894000,-0.118000000000
8.149080852000,-0.113000000000
8.156768810000,-0.110000000000
8.164456768000,-0.108000000000
8.172144726000,-0.108000000000
8.179832684000,-0.105000000000
8.187520642000,-0.105000000000
8.195208600000,-0.115000000000
8.202896558000,-0.120000000000
8.210584516000,-0.110000000000
8.218272474000,-0.096000000000
8.225960432000,-0.088000000000
8.233648390000,-0.083000000000
8.241336348000,-0.078000000000
8.249024306000,-0.064000000000
8.256712264000,-0.068000000000
8.264400222000,-0.091000000000
8.272088180000,-0.105000000000
8.279776138000,-0.098000000000
8.287464096000,-0.093000000000
8.295152054000,-0.091000000000
8.302840012000,-0.086000000000
8.310527970000,-0.083000000000
8.318215928000,-0.086000000000
8.325903886000,-0.105000000000
8.333591844000,-0.167000000000
8.341279802000,-0.258000000000
8.348967760000,-0.164000000000
8.356655718000,0.403000000000
8.364343676000,1.285000000000
8.372031634000,1.846000000000
8.379719592000,1.356000000000
8.387407550000,0.017000000000
8.395095508000,-0.612000000000
8.402783466000,-0.238000000000
8.410471424000,-0.098000000000
8.418159382000,-0.275000000000
8.425847340000,-0.224000000000
8.433535298000,-0.142000000000
8.441223256000,-0.182000000000
8.448911214000,-0.164000000000
8.456599172000,-0.113000000000
8.464287130000,-0.110000000000
8.471975088000,-0.105000000000
8.479663046000,-0.076000000000
8.487351004000,-0.059000000000
8.495038965000,-0.044000000000
8.502726644000,-0.022000000000
8.510414323000,-0.002000000000
8.518102002000,0.017000000000
8.525789681000,0.044000000000
8.533477360000,0.071000000000
8.541165039000,0.096000000000
8.548852718000,0.123000000000
8.556540397000,0.150000000000
8.564228076000,0.174000000000
8.571915755000,0.189000000000
8.579603434000,0.187000000000
8.587291113000,0.182000000000
8.594978792000,0.169000000000
8.602666471000,0.150000000000
8.610354150000,0.118000000000
8.618041829000,0.066000000000
8.625729508000,-0.004000000000
8.633417187000,-0.078000000000
8.641104866000,-0.142000000000
8.648792545000,-0.192000000000
8.656480224000,-0.221000000000
8.664167903000,-0.233000000000
8.671855582000,-0.236000000000
8.679543261000,-0.233000000000
8.687230940000,-0.226000000000
8.694918619000,-0.211000000000
8.702606298000,-0.204000000000
8.710293977000,-0.194000000000
8.717981656000,-0.182000000000
8.725669335000,-0.169000000000
8.733357014000,-0.164000000000
8.741044693000,-0.155000000000
8.748732372000,-0.150000000000
8.756420051000,-0.145000000000
8.764107730000,-0.140000000000
8.771795409000,-0.135000000000
8.779483088000,-0.132000000000
8.787170767000,-0.135000000000
8.794858446000,-0.132000000000
8.802546125000,-0.128000000000
8.810233804000,-0.125000000000
8.817921483000,-0.130000000000
8.825609162000,-0.128000000000
8.833296841000,-0.125000000000
8.840984520000,-0.123000000000
8.848672199000,-0.120000000000
8.856359878000,-0.118000000000
8.864047557000,-0.115000000000
8.871735236000,-0.115000000000
8.879422915000,-0.113000000000
8.887110594000,-0.110000000000
8.894798273000,-0.110000000000
8.902485952000,-0.105000000000
8.910173631000,-0.103000000000
8.917861310000,-0.108000000000
8.925548989000,-0.118000000000
8.933236668000,-0.120000000000
8.940924347000,-0.113000000000
8.948612026000,-0.098000000000
8.956299705000,-0.088000000000
8.963987384000,-0.086000000000
8.971675063000,-0.076000000000
8.979362742000,-0.061000000000
8.987050421000,-0.071000000000
8.994738100000,-0.098000000000
9.002425779000,-0.105000000000
9.010113458000,-0.096000000000
9.017801137000,-0.093000000000
9.025488816000,-0.093000000000
9.033176495000,-0.088000000000
9.040864174000,-0.083000000000
9.048551853000,-0.093000000000
9.056239554000,-0.128000000000
9.063927372000,-0.206000000000
9.071615190000,-0.263000000000
9.079303008000,-0.012000000000
9.086990826000,0.711000000000
9.094678644000,1.563000000000
9.102366462000,1.814000000000
9.110054280000,0.891000000000
9.117742098000,-0.374000000000
9.125429916000,-0.534000000000
9.133117734000,-0.118000000000
9.140805552000,-0.174000000000
9.148493370000,-0.290000000000
9.156181188000,-0.182000000000
9.163869006000,-0.157000000000
9.171556824000,-0.194000000000
9.179244642000,-0.152000000000
9.186932460000,-0.118000000000
9.194620278000,-0.123000000000
9.202308096000,-0.103000000000
9.209995914000,-0.076000000000
9.217683732000,-0.061000000000
9.225371550000,-0.041000000000
9.233059368000,-0.014000000000
9.240747186000,0.004000000000
9.248435004000,0.022000000000
9.256122822000,0.051000000000
9.263810640000,0.081000000000
9.271498458000,0.100000000000
9.279186276000,0.125000000000
9.286874094000,0.160000000000
9.294561912000,0.184000000000
9.302249730000,0.192000000000
9.309937548000,0.192000000000
9.317625366000,0.182000000000
9.325313184000,0.169000000000
9.333001002000,0.155000000000
9.340688820000,0.113000000000
9.348376638000,0.046000000000
9.356064456000,-0.024000000000
9.363752274000,-0.086000000000
9.371440092000,-0.142000000000
9.379127910000,-0.194000000000
9.386815728000,-0.226000000000
9.394503546000,-0.231000000000
9.402191364000,-0.226000000000
9.409879182000,-0.224000000000
9.417567000000,-0.221000000000
9.425254818000,-0.216000000000
9.432942636000,-0.201000000000
9.440630454000,-0.177000000000
9.448318272000,-0.162000000000
9.456006090000,-0.164000000000
9.463693908000,-0.162000000000
9.471381726000,-0.147000000000
9.479069544000,-0.137000000000
9.486757362000,-0.128000000000
9.494445180000,-0.123000000000
9.502132998000,-0.125000000000
9.509820816000,-0.125000000000
9.517508634000,-0.125000000000
9.525196452000,-0.118000000000
9.532884270000,-0.123000000000
9.540572088000,-0.130000000000
9.548259906000,-0.118000000000
9.555947724000,-0.108000000000
9.563635542000,-0.108000000000
9.571323360000,-0.100000000000
9.579011178000,-0.103000000000
9.586698996000,-0.108000000000
9.594386814000,-0.103000000000
9.602074632000,-0.103000000000
9.609762450000,-0.098000000000
9.617450313000,-0.088000000000
9.625138131000,-0.083000000000
9.632825949000,-0.091000000000
9.640513767000,-0.105000000000
9.648201585000,-0.110000000000
9.655889403000,-0.100000000000
9.663577221000,-0.091000000000
9.671265039000,-0.081000000000
9.678952857000,-0.073000000000
9.686640675000,-0.066000000000
9.694328493000,-0.054000000000
9.702016311000,-0.051000000000
9.709704129000,-0.078000000000
9.717391947000,-0.100000000000
9.725079765000,-0.088000000000
9.732767583000,-0.076000000000
9.740455401000,-0.078000000000
9.748143219000,-0.078000000000
9.755831037000,-0.068000000000
9.763518855000,-0.066000000000
9.771206673000,-0.103000000000
9.778894491000,-0.174000000000
9.786582309000,-0.241000000000
9.794270127000,-0.088000000000
9.801957945000,0.551000000000
9.809645763000,1.457000000000
9.817333581000,1.907000000000
9.825021399000,1.171000000000
9.832709217000,-0.192000000000
9.840397035000,-0.573000000000
9.848084853000,-0.147000000000
9.855772671000,-0.120000000000
9.863460489000,-0.260000000000
9.871148307000,-0.162000000000
9.878836125000,-0.118000000000
9.886523943000,-0.164000000000
9.894211761000,-0.135000000000
9.901899579000,-0.096000000000
9.909587397000,-0.086000000000
9.917275215000,-0.059000000000
9.924963033000,-0.034000000000
9.932650851000,-0.024000000000
9.940338669000,-0.007000000000
9.948026487000,0.022000000000
9.955714305000,0.046000000000
9.963402123000,0.051000000000
9.971089941000,0.073000000000
9.978777759000,0.125000000000
9.986465577000,0.157000000000
9.994153395000,0.177000000000
10.001841213000,0.216000000000
10.009529031000,0.246000000000
10.017216849000,0.253000000000
10.024904667000,0.248000000000
10.032592485000,0.241000000000
10.040280303000,0.233000000000
10.047968121000,0.199000000000
10.055655939000,0.157000000000
10.063343757000,0.110000000000
10.071031575000,0.014000000000
10.078719393000,-0.081000000000
10.086407211000,-0.128000000000
10.094095029000,-0.177000000000
10.101782847000,-0.224000000000
10.109470665000,-0.233000000000
10.117158483000,-0.231000000000
10.124846301000,-0.233000000000
10.132534119000,-0.221000000000
10.140221937000,-0.206000000000
10.147909755000,-0.201000000000
10.155597573000,-0.189000000000
10.163285391000,-0.172000000000
10.170973209000,-0.160000000000
10.178661076000,-0.152000000000
10.186348755000,-0.150000000000
10.194036434000,-0.150000000000
10.201724113000,-0.137000000000
10.209411792000,-0.118000000000
10.217099471000,-0.125000000000
10.224787150000,-0.132000000000
10.232474829000,-0.115000000000
10.240162508000,-0.108000000000
10.247850187000,-0.115000000000
10.255537866000,-0.118000000000
10.263225545000,-0.118000000000
10.270913224000,-0.125000000000
10.278600903000,-0.115000000000
10.286288582000,-0.103000000000
10.293976261000,-0.110000000000
10.301663940000,-0.118000000000
10.309351619000,-0.120000000000
10.317039298000,-0.125000000000
10.324726977000,-0.120000000000
10.332414656000,-0.120000000000
10.340102335000,-0.118000000000
10.347790014000,-0.100000000000
10.355477693000,-0.098000000000
10.363165372000,-0.108000000000
10.370853051000,-0.091000000000
10.378540730000,-0.068000000000
10.386228409000,-0.071000000000
10.393916088000,-0.086000000000
10.401603767000,-0.113000000000
10.409291446000,-0.125000000000
10.416979125000,-0.108000000000
10.424666804000,-0.096000000000
10.432354483000,-0.100000000000
10.440042162000,-0.098000000000
10.447729841000,-0.098000000000
10.455417520000,-0.130000000000
10.463105199000,-0.211000000000
10.470792878000,-0.253000000000
10.478480557000,0.086000000000
10.486168236000,0.898000000000
10.493855915000,1.681000000000
10.501543594000,1.733000000000
10.509231273000,0.691000000000
10.516918952000,-0.467000000000
10.524606631000,-0.484000000000
10.532294310000,-0.118000000000
10.539981989000,-0.224000000000
10.547669668000,-0.280000000000
10.555357347000,-0.162000000000
10.563045026000,-0.162000000000
10.570732705000,-0.184000000000
10.578420384000,-0.137000000000
10.586108063000,-0.113000000000
10.593795742000,-0.108000000000
10.601483421000,-0.081000000000
10.609171100000,-0.061000000000
10.616858779000,-0.056000000000
10.624546458000,-0.034000000000
10.632234137000,-0.002000000000
10.639921816000,0.017000000000
10.647609495000,0.039000000000
10.655297174000,0.076000000000
10.662984853000,0.098000000000
10.670672532000,0.120000000000
10.678360211000,0.155000000000
10.686047890000,0.184000000000
10.693735569000,0.204000000000
10.701423248000,0.209000000000
10.709110927000,0.194000000000
10.716798606000,0.177000000000
10.724486285000,0.164000000000
10.732173964000,0.140000000000
10.739861661000,0.091000000000
10.747549619000,0.019000000000
10.755237577000,-0.064000000000
10.762925535000,-0.135000000000
10.770613493000,-0.187000000000
10.778301451000,-0.228000000000
10.785989409000,-0.251000000000
10.793677367000,-0.253000000000
10.801365325000,-0.248000000000
10.809053283000,-0.246000000000
10.816741241000,-0.238000000000
10.824429199000,-0.224000000000
10.832117157000,-0.209000000000
10.839805115000,-0.196000000000
10.847493073000,-0.189000000000
10.855181031000,-0.184000000000
10.862868989000,-0.172000000000
10.870556947000,-0.157000000000
10.878244905000,-0.155000000000
10.885932863000,-0.147000000000
10.893620821000,-0.140000000000
10.901308779000,-0.140000000000
10.908996737000,-0.140000000000
10.916684695000,-0.132000000000
10.924372653000,-0.130000000000
10.932060611000,-0.132000000000
10.939748569000,-0.130000000000
10.947436527000,-0.128000000000
10.955124485000,-0.132000000000
10.962812443000,-0.132000000000
10.970500401000,-0.130000000000
10.978188359000,-0.128000000000
10.985876317000,-0.128000000000
10.993564275000,-0.128000000000
11.001252233000,-0.130000000000
11.008940191000,-0.135000000000
11.016628149000,-0.137000000000
11.024316107000,-0.132000000000
11.032004065000,-0.120000000000
11.039692023000,-0.110000000000
11.047379981000,-0.110000000000
11.055067939000,-0.105000000000
11.062755897000,-0.091000000000
11.070443855000,-0.088000000000
11.078131813000,-0.105000000000
11.085819771000,-0.123000000000
11.093507729000,-0.118000000000
11.101195687000,-0.110000000000
11.108883645000,-0.110000000000
11.116571603000,-0.105000000000
11.124259561000,-0.098000000000
11.131947519000,-0.108000000000
11.139635477000,-0.137000000000
11.147323435000,-0.219000000000
11.155011393000,-0.270000000000
11.162699351000,0.004000000000
11.170387309000,0.753000000000
11.178075267000,1.573000000000
11.185763225000,1.802000000000
11.193451183000,0.893000000000
11.201139141000,-0.386000000000
11.208827099000,-0.566000000000
11.216515057000,-0.130000000000
11.224203015000,-0.177000000000
11.231890973000,-0.310000000000
11.239578931000,-0.196000000000
11.247266889000,-0.157000000000
11.254954847000,-0.199000000000
11.262642805000,-0.164000000000
11.270330763000,-0.125000000000
11.278018721000,-0.120000000000
11.285706679000,-0.100000000000
11.293394637000,-0.076000000000
11.301082598000,-0.064000000000
11.308770207000,-0.049000000000
11.316457816000,-0.027000000000
11.324145425000,-0.004000000000
11.331833034000,0.017000000000
11.339520643000,0.039000000000
11.347208252000,0.068000000000
11.354895861000,0.098000000000
11.362583470000,0.123000000000
11.370271079000,0.147000000000
11.377958688000,0.172000000000
11.385646297000,0.182000000000
11.393333906000,0.177000000000
11.401021515000,0.169000000000
11.408709124000,0.162000000000
11.416396733000,0.137000000000
11.424084342000,0.098000000000
11.431771951000,0.039000000000
11.439459560000,-0.039000000000
11.447147169000,-0.118000000000
11.454834778000,-0.174000000000
11.462522387000,-0.211000000000
11.470209996000,-0.236000000000
11.477897605000,-0.241000000000
11.485585214000,-0.238000000000
11.493272823000,-0.231000000000
11.500960432000,-0.221000000000
11.508648041000,-0.211000000000
11.516335650000,-0.204000000000
11.524023259000,-0.189000000000
11.531710868000,-0.179000000000
11.539398477000,-0.169000000000
11.547086086000,-0.164000000000
11.554773695000,-0.160000000000
11.562461304000,-0.152000000000
11.570148913000,-0.140000000000
11.577836522000,-0.137000000000
11.585524131000,-0.140000000000
11.593211740000,-0.137000000000
11.600899349000,-0.132000000000
11.608586958000,-0.130000000000
11.616274567000,-0.130000000000
11.623962176000,-0.128000000000
11.631649785000,-0.123000000000
11.639337394000,-0.120000000000
11.647025003000,-0.123000000000
11.654712612000,-0.118000000000
11.662400221000,-0.113000000000
11.670087830000,-0.113000000000
11.677775439000,-0.115000000000
11.685463048000,-0.118000000000
11.693150657000,-0.125000000000
11.700838266000,-0.128000000000
11.708525875000,-0.118000000000
11.716213484000,-0.100000000000
11.723901093000,-0.098000000000
11.731588702000,-0.096000000000
11.739276311000,-0.078000000000
11.746963920000,-0.066000000000
11.754651529000,-0.081000000000
11.762339138000,-0.105000000000
11.770026747000,-0.108000000000
11.777714356000,-0.098000000000
11.785401965000,-0.093000000000
11.793089574000,-0.091000000000
11.800777183000,-0.086000000000
11.808464792000,-0.086000000000
11.816152401000,-0.098000000000
11.823840010000,-0.140000000000
11.831527619000,-0.231000000000
11.839215228000,-0.231000000000
11.846902837000,0.169000000000
11.854590446000,0.994000000000
11.862278100000,1.755000000000
11.869965988000,1.696000000000
11.877653876000,0.509000000000
11.885341764000,-0.556000000000
11.893029652000,-0.413000000000
11.900717540000,-0.066000000000
11.908405428000,-0.219000000000
11.916093316000,-0.270000000000
11.923781204000,-0.150000000000
11.931469092000,-0.160000000000
11.939156980000,-0.184000000000
11.946844868000,-0.130000000000
11.954532756000,-0.108000000000
11.962220644000,-0.113000000000
11.969908532000,-0.086000000000
11.977596420000,-0.061000000000
11.985284308000,-0.051000000000
11.992972196000,-0.032000000000
12.000660084000,-0.012000000000
12.008347972000,0.007000000000
12.016035860000,0.032000000000
12.023723748000,0.059000000000
12.031411636000,0.093000000000
12.039099524000,0.123000000000
12.046787412000,0.147000000000
12.054475300000,0.174000000000
12.062163188000,0.196000000000
12.069851076000,0.204000000000
12.077538964000,0.201000000000
12.085226852000,0.194000000000
12.092914740000,0.174000000000
12.100602628000,0.142000000000
12.108290516000,0.093000000000
12.115978404000,0.019000000000
12.123666292000,-0.059000000000
12.131354180000,-0.130000000000
12.139042068000,-0.184000000000
12.146729956000,-0.219000000000
12.154417844000,-0.233000000000
12.162105732000,-0.241000000000
12.169793620000,-0.241000000000
12.177481508000,-0.231000000000
12.185169396000,-0.214000000000
12.192857284000,-0.204000000000
12.200545172000,-0.196000000000
12.208233060000,-0.184000000000
12.215920948000,-0.172000000000
12.223608836000,-0.167000000000
12.231296724000,-0.160000000000
12.238984612000,-0.150000000000
12.246672500000,-0.145000000000
12.254360388000,-0.145000000000
12.262048276000,-0.140000000000
12.269736164000,-0.135000000000
12.277424052000,-0.132000000000
12.285111940000,-0.132000000000
12.292799828000,-0.135000000000
12.300487716000,-0.130000000000
12.308175604000,-0.128000000000
12.315863492000,-0.128000000000
12.323551380000,-0.128000000000
12.331239268000,-0.128000000000
12.338927156000,-0.123000000000
12.346615044000,-0.118000000000
12.354302932000,-0.118000000000
12.361990820000,-0.123000000000
12.369678708000,-0.132000000000
12.377366596000,-0.137000000000
12.385054484000,-0.132000000000
12.392742372000,-0.115000000000
12.400430260000,-0.103000000000
12.408118148000,-0.103000000000
12.415806036000,-0.098000000000
12.423493946000,-0.081000000000
12.431181694000,-0.076000000000
12.438869442000,-0.096000000000
12.446557190000,-0.118000000000
12.454244938000,-0.113000000000
12.461932686000,-0.100000000000
12.469620434000,-0.100000000000
12.477308182000,-0.100000000000
12.484995930000,-0.096000000000
12.492683678000,-0.100000000000
12.500371426000,-0.123000000000
12.508059174000,-0.189000000000
12.515746922000,-0.275000000000
12.523434670000,-0.130000000000
12.531122418000,0.504000000000
12.538810166000,1.385000000000
12.546497914000,1.861000000000
12.554185662000,1.225000000000
12.561873410000,-0.130000000000
12.569561158000,-0.620000000000
12.577248906000,-0.206000000000
12.584936654000,-0.128000000000
12.592624402000,-0.295000000000
12.600312150000,-0.219000000000
12.607999898000,-0.150000000000
12.615687646000,-0.189000000000
12.623375394000,-0.169000000000
12.631063142000,-0.123000000000
12.638750890000,-0.118000000000
12.646438638000,-0.108000000000
12.654126386000,-0.078000000000
12.661814134000,-0.064000000000
12.669501882000,-0.049000000000
12.677189630000,-0.024000000000
12.684877378000,-0.002000000000
12.692565126000,0.017000000000
12.700252874000,0.046000000000
12.707940622000,0.076000000000
12.715628370000,0.108000000000
12.723316118000,0.137000000000
12.731003866000,0.167000000000
12.738691614000,0.192000000000
12.746379362000,0.206000000000
12.754067110000,0.209000000000
12.761754858000,0.201000000000
12.769442606000,0.187000000000
12.777130354000,0.164000000000
12.784818102000,0.125000000000
12.792505850000,0.061000000000
12.800193598000,-0.019000000000
12.807881346000,-0.096000000000
12.815569094000,-0.160000000000
12.823256842000,-0.206000000000
12.830944590000,-0.228000000000
12.838632338000,-0.241000000000
12.846320086000,-0.243000000000
12.854007834000,-0.236000000000
12.861695582000,-0.226000000000
12.869383330000,-0.214000000000
12.877071078000,-0.199000000000
12.884758826000,-0.192000000000
12.892446574000,-0.179000000000
12.900134322000,-0.167000000000
12.907822070000,-0.160000000000
12.915509818000,-0.155000000000
12.923197566000,-0.147000000000
12.930885314000,-0.142000000000
12.938573062000,-0.137000000000
12.946260810000,-0.132000000000
12.953948558000,-0.130000000000
12.961636306000,-0.132000000000
12.969324054000,-0.130000000000
12.977011802000,-0.128000000000
12.984699622000,-0.128000000000
12.992387370000,-0.125000000000
13.000075118000,-0.120000000000
13.007762866000,-0.120000000000
13.015450614000,-0.118000000000
13.023138362000,-0.115000000000
13.030826110000,-0.115000000000
13.038513858000,-0.115000000000
13.046201606000,-0.108000000000
13.053889354000,-0.110000000000
13.061577102000,-0.115000000000
13.069264850000,-0.120000000000
13.076952598000,-0.118000000000
13.084640346000,-0.105000000000
13.092328094000,-0.088000000000
13.100015842000,-0.086000000000
13.107703590000,-0.086000000000
13.115391338000,-0.071000000000
13.123079086000,-0.059000000000
13.130766834000,-0.078000000000
13.138454582000,-0.100000000000
13.146142330000,-0.100000000000
13.153830078000,-0.093000000000
13.161517826000,-0.091000000000
13.169205574000,-0.086000000000
13.176893322000,-0.083000000000
13.184581070000,-0.086000000000
13.192268818000,-0.103000000000
13.199956566000,-0.155000000000
13.207644314000,-0.246000000000
13.215332062000,-0.206000000000
13.223019810000,0.280000000000
13.230707558000,1.142000000000
13.238395306000,1.821000000000
13.246083054000,1.548000000000
13.253770802000,0.248000000000
13.261458550000,-0.605000000000
13.269146298000,-0.320000000000
13.276834046000,-0.078000000000
13.284521794000,-0.253000000000
13.292209542000,-0.246000000000
13.299897290000,-0.145000000000
13.307585038000,-0.174000000000
13.315272786000,-0.172000000000
13.322960534000,-0.120000000000
13.330648282000,-0.110000000000
13.338336030000,-0.105000000000
13.346023778000,-0.073000000000
13.353711526000,-0.056000000000
13.361399274000,-0.044000000000
13.369087022000,-0.022000000000
13.376774770000,-0.002000000000
13.384462518000,0.017000000000
13.392150266000,0.046000000000
13.399838014000,0.076000000000
13.407525762000,0.100000000000
13.415213510000,0.132000000000
13.422901258000,0.164000000000
13.430589006000,0.187000000000
13.438276754000,0.201000000000
13.445964502000,0.206000000000
13.453652250000,0.201000000000
13.461339998000,0.192000000000
13.469027746000,0.174000000000
13.476715494000,0.140000000000
13.484403242000,0.088000000000
13.492090990000,0.012000000000
13.499778738000,-0.071000000000
13.507466486000,-0.137000000000
13.515154234000,-0.184000000000
13.522841982000,-0.221000000000
13.530529730000,-0.238000000000
13.538217478000,-0.241000000000
13.545905294000,-0.236000000000
13.553593182000,-0.231000000000
13.561281070000,-0.219000000000
13.568968958000,-0.206000000000
13.576656846000,-0.196000000000
13.584344734000,-0.187000000000
13.592032622000,-0.174000000000
13.599720510000,-0.167000000000
13.607408398000,-0.160000000000
13.615096286000,-0.155000000000
13.622784174000,-0.150000000000
13.630472062000,-0.142000000000
13.638159950000,-0.140000000000
13.645847838000,-0.142000000000
13.653535726000,-0.140000000000
13.661223614000,-0.137000000000
13.668911502000,-0.137000000000
13.676599390000,-0.137000000000
13.684287278000,-0.135000000000
13.691975166000,-0.132000000000
13.699663054000,-0.130000000000
13.707350942000,-0.128000000000
13.715038830000,-0.123000000000
13.722726718000,-0.123000000000
13.730414606000,-0.120000000000
13.738102494000,-0.118000000000
13.745790382000,-0.115000000000
13.753478270000,-0.115000000000
13.761166158000,-0.123000000000
13.768854046000,-0.130000000000
13.776541934000,-0.125000000000
13.784229822000,-0.110000000000
13.791917710000,-0.096000000000
13.799605598000,-0.093000000000
13.807293486000,-0.091000000000
13.814981374000,-0.073000000000
13.822669262000,-0.066000000000
13.830357150000,-0.088000000000
13.838045038000,-0.110000000000
13.845732926000,-0.100000000000
13.853420814000,-0.093000000000
13.861108702000,-0.096000000000
13.868796590000,-0.091000000000
13.876484478000,-0.083000000000
13.884172366000,-0.086000000000
13.891860254000,-0.103000000000
13.899548142000,-0.160000000000
13.907236030000,-0.253000000000
13.914923918000,-0.189000000000
13.922611806000,0.327000000000
13.930299694000,1.191000000000
13.937987582000,1.838000000000
13.945675470000,1.501000000000
13.953363358000,0.182000000000
13.961051246000,-0.615000000000
13.968739134000,-0.297000000000
13.976427022000,-0.078000000000
13.984114910000,-0.253000000000
13.991802798000,-0.238000000000
13.999490686000,-0.140000000000
14.007178574000,-0.167000000000
14.014866462000,-0.162000000000
14.022554350000,-0.115000000000
14.030242238000,-0.110000000000
14.037930126000,-0.100000000000
14.045618014000,-0.066000000000
14.053305902000,-0.051000000000
14.060993790000,-0.041000000000
14.068681678000,-0.017000000000
14.076369566000,0.007000000000
14.084057454000,0.032000000000
14.091745342000,0.061000000000
14.099433230000,0.086000000000
14.107121144000,0.110000000000
14.114808753000,0.135000000000
14.122496362000,0.169000000000
14.130183971000,0.196000000000
14.137871580000,0.209000000000
14.145559189000,0.214000000000
14.153246798000,0.211000000000
14.160934407000,0.199000000000
14.168622016000,0.177000000000
14.176309625000,0.150000000000
14.183997234000,0.098000000000
14.191684843000,0.022000000000
14.199372452000,-0.061000000000
14.207060061000,-0.137000000000
14.214747670000,-0.189000000000
14.222435279000,-0.211000000000
14.230122888000,-0.224000000000
14.237810497000,-0.231000000000
14.245498106000,-0.226000000000
14.253185715000,-0.221000000000
14.260873324000,-0.209000000000
14.268560933000,-0.189000000000
14.276248542000,-0.187000000000
14.283936151000,-0.179000000000
14.291623760000,-0.164000000000
14.299311369000,-0.160000000000
14.306998978000,-0.155000000000
14.314686587000,-0.132000000000
14.322374196000,-0.128000000000
14.330061805000,-0.135000000000
14.337749414000,-0.130000000000
14.345437023000,-0.118000000000
14.353124632000,-0.118000000000
14.360812241000,-0.123000000000
14.368499850000,-0.123000000000
14.376187459000,-0.118000000000
14.383875068000,-0.120000000000
14.391562677000,-0.118000000000
14.399250286000,-0.110000000000
14.406937895000,-0.115000000000
14.414625504000,-0.118000000000
14.422313113000,-0.105000000000
14.430000722000,-0.093000000000
14.437688331000,-0.103000000000
14.445375940000,-0.120000000000
14.453063549000,-0.120000000000
14.460751158000,-0.108000000000
14.468438767000,-0.098000000000
14.476126376000,-0.086000000000
14.483813985000,-0.081000000000
14.491501594000,-0.083000000000
14.499189203000,-0.076000000000
14.506876812000,-0.068000000000
14.514564421000,-0.073000000000
14.522252030000,-0.086000000000
14.529939639000,-0.088000000000
14.537627248000,-0.081000000000
14.545314857000,-0.088000000000
14.553002466000,-0.103000000000
14.560690075000,-0.088000000000
14.568377684000,-0.068000000000
14.576065293000,-0.086000000000
14.583752902000,-0.135000000000
14.591440511000,-0.219000000000
14.599128120000,-0.231000000000
14.606815729000,0.152000000000
14.614503338000,1.006000000000
14.622190947000,1.789000000000
14.629878556000,1.701000000000
14.637566165000,0.494000000000
14.645253774000,-0.541000000000
14.652941383000,-0.384000000000
14.660628992000,-0.068000000000
14.668316642000,-0.219000000000
14.676004600000,-0.251000000000
14.683692558000,-0.145000000000
14.691380516000,-0.152000000000
14.699068474000,-0.157000000000
14.706756432000,-0.108000000000
14.714444390000,-0.096000000000
14.722132348000,-0.098000000000
14.729820306000,-0.066000000000
14.737508264000,-0.036000000000
14.745196222000,-0.032000000000
14.752884180000,-0.009000000000
14.760572138000,0.024000000000
14.768260096000,0.041000000000
14.775948054000,0.068000000000
14.783636012000,0.105000000000
14.791323970000,0.132000000000
14.799011928000,0.155000000000
14.806699886000,0.189000000000
14.814387844000,0.216000000000
14.822075802000,0.233000000000
14.829763760000,0.243000000000
14.837451718000,0.241000000000
14.845139676000,0.221000000000
14.852827634000,0.196000000000
14.860515592000,0.160000000000
14.868203550000,0.103000000000
14.875891508000,0.029000000000
14.883579466000,-0.051000000000
14.891267424000,-0.128000000000
14.898955382000,-0.194000000000
14.906643340000,-0.236000000000
14.914331298000,-0.246000000000
14.922019256000,-0.248000000000
14.929707214000,-0.248000000000
14.937395172000,-0.238000000000
14.945083130000,-0.226000000000
14.952771088000,-0.219000000000
14.960459046000,-0.211000000000
14.968147004000,-0.201000000000
14.975834962000,-0.184000000000
14.983522920000,-0.172000000000
14.991210878000,-0.167000000000
14.998898836000,-0.162000000000
15.006586794000,-0.162000000000
15.014274752000,-0.147000000000
15.021962710000,-0.135000000000
15.029650668000,-0.140000000000
15.037338626000,-0.145000000000
15.045026584000,-0.135000000000
15.052714542000,-0.130000000000
15.060402500000,-0.130000000000
15.068090458000,-0.130000000000
15.075778416000,-0.132000000000
15.083466374000,-0.130000000000
15.091154332000,-0.123000000000
15.098842290000,-0.128000000000
15.106530248000,-0.132000000000
15.114218206000,-0.128000000000
15.121906164000,-0.128000000000
15.129594122000,-0.137000000000
15.137282080000,-0.137000000000
15.144970038000,-0.130000000000
15.152657996000,-0.115000000000
15.160345954000,-0.108000000000
15.168033912000,-0.108000000000
15.175721870000,-0.098000000000
15.183409828000,-0.081000000000
15.191097786000,-0.083000000000
15.198785744000,-0.110000000000
15.206473702000,-0.120000000000
15.214161660000,-0.110000000000
15.221849618000,-0.105000000000
15.229537579000,-0.105000000000
15.237225536000,-0.100000000000
15.244913493000,-0.098000000000
15.252601450000,-0.105000000000
15.260289407000,-0.137000000000
15.267977364000,-0.214000000000
15.275665321000,-0.260000000000
15.283353278000,0.019000000000
15.291041235000,0.758000000000
15.298729192000,1.563000000000
15.306417149000,1.765000000000
15.314105106000,0.844000000000
15.321793063000,-0.403000000000
15.329481020000,-0.544000000000
15.337168977000,-0.120000000000
15.344856934000,-0.174000000000
15.352544891000,-0.292000000000
15.360232848000,-0.187000000000
15.367920805000,-0.160000000000
15.375608762000,-0.194000000000
15.383296719000,-0.152000000000
15.390984676000,-0.120000000000
15.398672633000,-0.120000000000
15.406360590000,-0.100000000000
15.414048547000,-0.076000000000
15.421736504000,-0.061000000000
15.429424461000,-0.044000000000
15.437112418000,-0.022000000000
15.444800375000,-0.002000000000
15.452488332000,0.022000000000
15.460176289000,0.049000000000
15.467864246000,0.073000000000
15.475552203000,0.100000000000
15.483240160000,0.128000000000
15.490928117000,0.152000000000
15.498616074000,0.174000000000
15.506304031000,0.184000000000
15.513991988000,0.182000000000
15.521679945000,0.172000000000
15.529367902000,0.157000000000
15.537055859000,0.132000000000
15.544743816000,0.093000000000
15.552431773000,0.029000000000
15.560119730000,-0.049000000000
15.567807687000,-0.123000000000
15.575495644000,-0.174000000000
15.583183601000,-0.211000000000
15.590871558000,-0.236000000000
15.598559515000,-0.241000000000
15.606247472000,-0.236000000000
15.613935429000,-0.231000000000
15.621623386000,-0.219000000000
15.629311343000,-0.204000000000
15.636999300000,-0.194000000000
15.644687257000,-0.187000000000
15.652375214000,-0.174000000000
15.660063171000,-0.164000000000
15.667751128000,-0.160000000000
15.675439085000,-0.152000000000
15.683127042000,-0.145000000000
15.690814999000,-0.145000000000
15.698502956000,-0.145000000000
15.706190913000,-0.137000000000
15.713878870000,-0.132000000000
15.721566827000,-0.132000000000
15.729254784000,-0.132000000000
15.736942741000,-0.130000000000
15.744630698000,-0.130000000000
15.752318655000,-0.130000000000
15.760006612000,-0.125000000000
15.767694569000,-0.123000000000
15.775382526000,-0.123000000000
15.783070483000,-0.123000000000
15.790758512000,-0.120000000000
15.798446260000,-0.115000000000
15.806134008000,-0.113000000000
15.813821756000,-0.113000000000
15.821509504000,-0.120000000000
15.829197252000,-0.128000000000
15.836885000000,-0.125000000000
15.844572748000,-0.110000000000
15.852260496000,-0.096000000000
15.859948244000,-0.093000000000
15.867635992000,-0.093000000000
15.875323740000,-0.078000000000
15.883011488000,-0.068000000000
15.890699236000,-0.083000000000
15.898386984000,-0.108000000000
15.906074732000,-0.108000000000
15.913762480000,-0.098000000000
15.921450228000,-0.093000000000
15.929137976000,-0.093000000000
15.936825724000,-0.088000000000
15.944513472000,-0.091000000000
15.952201220000,-0.110000000000
15.959888968000,-0.167000000000
15.967576716000,-0.253000000000
15.975264464000,-0.187000000000
15.982952212000,0.339000000000
15.990639960000,1.208000000000
15.998327708000,1.843000000000
16.006015456000,1.489000000000
16.013703204000,0.160000000000
16.021390952000,-0.625000000000
16.029078700000,-0.295000000000
16.036766448000,-0.086000000000
16.044454196000,-0.270000000000
16.052141944000,-0.248000000000
16.059829692000,-0.147000000000
16.067517440000,-0.182000000000
16.075205188000,-0.179000000000
16.082892936000,-0.128000000000
16.090580684000,-0.115000000000
16.098268432000,-0.108000000000
16.105956180000,-0.081000000000
16.113643928000,-0.064000000000
16.121331676000,-0.049000000000
16.129019424000,-0.029000000000
16.136707172000,-0.007000000000
16.144394920000,0.014000000000
16.152082668000,0.039000000000
16.159770416000,0.064000000000
16.167458164000,0.093000000000
16.175145912000,0.125000000000
16.182833660000,0.155000000000
16.190521408000,0.179000000000
16.198209156000,0.194000000000
16.205896904000,0.196000000000
16.213584652000,0.187000000000
16.221272400000,0.177000000000
16.228960148000,0.160000000000
16.236647896000,0.128000000000
16.244335644000,0.073000000000
16.252023392000,-0.002000000000
16.259711140000,-0.078000000000
16.267398888000,-0.142000000000
16.275086636000,-0.192000000000
16.282774384000,-0.224000000000
16.290462132000,-0.241000000000
16.298149880000,-0.243000000000
16.305837628000,-0.238000000000
16.313525376000,-0.231000000000
16.321213124000,-0.221000000000
16.328900872000,-0.206000000000
16.336588620000,-0.196000000000
16.344276368000,-0.187000000000
16.351964188000,-0.177000000000
16.359651936000,-0.164000000000
16.367339684000,-0.160000000000
16.375027432000,-0.160000000000
16.382715180000,-0.152000000000
16.390402928000,-0.147000000000
16.398090676000,-0.150000000000
16.405778424000,-0.147000000000
16.413466172000,-0.142000000000
16.421153920000,-0.140000000000
16.428841668000,-0.140000000000
16.436529416000,-0.137000000000
16.444217164000,-0.132000000000
16.451904912000,-0.130000000000
16.459592660000,-0.130000000000
16.467280408000,-0.128000000000
16.474968156000,-0.125000000000
16.482655904000,-0.123000000000
16.490343652000,-0.118000000000
16.498031400000,-0.118000000000
16.505719148000,-0.120000000000
16.513406896000,-0.120000000000
16.521094644000,-0.125000000000
16.528782392000,-0.132000000000
16.536470140000,-0.123000000000
16.544157888000,-0.108000000000
16.551845636000,-0.098000000000
16.559533384000,-0.098000000000
16.567221132000,-0.091000000000
16.574908880000,-0.071000000000
16.582596628000,-0.073000000000
16.590284376000,-0.096000000000
16.597972124000,-0.110000000000
16.605659872000,-0.105000000000
16.613347620000,-0.098000000000
16.621035368000,-0.093000000000
16.628723116000,-0.091000000000
16.636410864000,-0.086000000000
16.644098612000,-0.091000000000
16.651786360000,-0.118000000000
16.659474108000,-0.194000000000
16.667161856000,-0.268000000000
16.674849604000,-0.081000000000
16.682537352000,0.593000000000
16.690225100000,1.469000000000
16.697912848000,1.870000000000
16.705600596000,1.120000000000
16.713288344000,-0.228000000000
16.720976092000,-0.593000000000
16.728663840000,-0.162000000000
16.736351588000,-0.135000000000
16.744039336000,-0.292000000000
16.751727084000,-0.201000000000
16.759414832000,-0.147000000000
16.767102580000,-0.187000000000
16.774790328000,-0.155000000000
16.782478076000,-0.115000000000
16.790165824000,-0.118000000000
16.797853572000,-0.103000000000
16.805541320000,-0.073000000000
16.813229068000,-0.056000000000
16.820916816000,-0.041000000000
16.828604564000,-0.017000000000
16.836292312000,0.007000000000
16.843980060000,0.027000000000
16.851667808000,0.049000000000
16.859355556000,0.078000000000
16.867043304000,0.110000000000
16.874731052000,0.137000000000
16.882418800000,0.164000000000
16.890106548000,0.189000000000
16.897794296000,0.199000000000
16.905482044000,0.199000000000
16.913169860000,0.192000000000
16.920857748000,0.179000000000
16.928545636000,0.160000000000
16.936233524000,0.120000000000
16.943921412000,0.056000000000
16.951609300000,-0.022000000000
16.959297188000,-0.100000000000
16.966985076000,-0.162000000000
16.974672964000,-0.204000000000
16.982360852000,-0.231000000000
16.990048740000,-0.243000000000
16.997736628000,-0.241000000000
17.005424516000,-0.236000000000
17.013112404000,-0.226000000000
17.020800292000,-0.214000000000
17.028488180000,-0.204000000000
17.036176068000,-0.194000000000
17.043863956000,-0.182000000000
17.051551844000,-0.172000000000
17.059239732000,-0.162000000000
17.066927620000,-0.157000000000
17.074615508000,-0.155000000000
17.082303396000,-0.147000000000
17.089991284000,-0.145000000000
17.097679172000,-0.142000000000
17.105367060000,-0.140000000000
17.113054948000,-0.137000000000
17.120742836000,-0.137000000000
17.128430724000,-0.135000000000
17.136118612000,-0.132000000000
17.143806500000,-0.130000000000
17.151494388000,-0.128000000000
17.159182276000,-0.128000000000
17.166870164000,-0.128000000000
17.174558052000,-0.125000000000
17.182245940000,-0.118000000000
17.189933828000,-0.118000000000
17.197621716000,-0.115000000000
17.205309604000,-0.113000000000
17.212997492000,-0.118000000000
17.220685380000,-0.125000000000
17.228373268000,-0.130000000000
17.236061156000,-0.125000000000
17.243749044000,-0.110000000000
17.251436932000,-0.096000000000
17.259124820000,-0.093000000000
17.266812708000,-0.093000000000
17.274500596000,-0.078000000000
17.282188484000,-0.071000000000
17.289876372000,-0.093000000000
17.297564260000,-0.113000000000
17.305252148000,-0.108000000000
17.312940036000,-0.098000000000
17.320627924000,-0.098000000000
17.328315812000,-0.096000000000
17.336003700000,-0.088000000000
17.343691588000,-0.091000000000
17.351379476000,-0.113000000000
17.359067364000,-0.174000000000
17.366755252000,-0.260000000000
17.374443140000,-0.160000000000
17.382131028000,0.413000000000
17.389818916000,1.294000000000
17.397506804000,1.861000000000
17.405194692000,1.361000000000
17.412882580000,0.007000000000
17.420570468000,-0.622000000000
17.428258356000,-0.243000000000
17.435946244000,-0.105000000000
17.443634132000,-0.280000000000
17.451322020000,-0.231000000000
17.459009908000,-0.150000000000
17.466697796000,-0.184000000000
17.474385710000,-0.169000000000
17.482073319000,-0.123000000000
17.489760928000,-0.118000000000
17.497448537000,-0.108000000000
17.505136146000,-0.081000000000
17.512823755000,-0.061000000000
17.520511364000,-0.049000000000
17.528198973000,-0.029000000000
17.535886582000,-0.007000000000
17.543574191000,0.014000000000
17.551261800000,0.039000000000
17.558949409000,0.068000000000
17.566637018000,0.096000000000
17.574324627000,0.125000000000
17.582012236000,0.155000000000
17.589699845000,0.179000000000
17.597387454000,0.189000000000
17.605075063000,0.192000000000
17.612762672000,0.192000000000
17.620450281000,0.182000000000
17.628137890000,0.157000000000
17.635825499000,0.120000000000
17.643513108000,0.066000000000
17.651200717000,-0.007000000000
17.658888326000,-0.083000000000
17.666575935000,-0.147000000000
17.674263544000,-0.194000000000
17.681951153000,-0.224000000000
17.689638762000,-0.231000000000
17.697326371000,-0.236000000000
17.705013980000,-0.243000000000
17.712701589000,-0.233000000000
17.720389198000,-0.216000000000
17.728076807000,-0.206000000000
17.735764416000,-0.196000000000
17.743452025000,-0.184000000000
17.751139634000,-0.172000000000
17.758827243000,-0.160000000000
17.766514852000,-0.160000000000
17.774202461000,-0.157000000000
17.781890070000,-0.145000000000
17.789577679000,-0.137000000000
17.797265288000,-0.145000000000
17.804952897000,-0.137000000000
17.812640506000,-0.132000000000
17.820328115000,-0.135000000000
17.828015724000,-0.132000000000
17.835703333000,-0.130000000000
17.843390942000,-0.128000000000
17.851078551000,-0.125000000000
17.858766160000,-0.120000000000
17.866453769000,-0.120000000000
17.874141378000,-0.125000000000
17.881828987000,-0.120000000000
17.889516596000,-0.110000000000
17.897204205000,-0.113000000000
17.904891814000,-0.115000000000
17.912579423000,-0.120000000000
17.920267032000,-0.125000000000
17.927954641000,-0.118000000000
17.935642250000,-0.103000000000
17.943329859000,-0.098000000000
17.951017468000,-0.098000000000
17.958705077000,-0.091000000000
17.966392686000,-0.071000000000
17.974080295000,-0.066000000000
17.981767904000,-0.093000000000
17.989455513000,-0.110000000000
17.997143122000,-0.100000000000
18.004830731000,-0.093000000000
18.012518340000,-0.098000000000
18.020205949000,-0.091000000000
18.027893558000,-0.083000000000
18.035581208000,-0.096000000000
18.043269166000,-0.115000000000
18.050957124000,-0.174000000000
18.058645082000,-0.263000000000
18.066333040000,-0.113000000000
18.074020998000,0.546000000000
18.081708956000,1.435000000000
18.089396914000,1.866000000000
18.097084872000,1.166000000000
18.104772830000,-0.184000000000
18.112460788000,-0.598000000000
18.120148746000,-0.177000000000
18.127836704000,-0.128000000000
18.135524662000,-0.270000000000
18.143212620000,-0.187000000000
18.150900578000,-0.147000000000
18.158588536000,-0.192000000000
18.166276494000,-0.152000000000
18.173964452000,-0.100000000000
18.181652410000,-0.105000000000
18.189340368000,-0.096000000000
18.197028326000,-0.066000000000
18.204716284000,-0.054000000000
18.212404242000,-0.032000000000
18.220092200000,-0.002000000000
18.227780158000,0.004000000000
18.235468116000,0.022000000000
18.243156074000,0.064000000000
18.250844032000,0.096000000000
18.258531990000,0.123000000000
18.266219948000,0.155000000000
18.273907906000,0.179000000000
18.281595864000,0.194000000000
18.289283822000,0.204000000000
18.296971780000,0.209000000000
18.304659738000,0.206000000000
18.312347696000,0.196000000000
18.320035654000,0.174000000000
18.327723612000,0.128000000000
18.335411570000,0.061000000000
18.343099528000,-0.014000000000
18.350787486000,-0.096000000000
18.358475444000,-0.162000000000
18.366163402000,-0.199000000000
18.373851360000,-0.224000000000
18.381539318000,-0.238000000000
18.389227276000,-0.243000000000
18.396915234000,-0.238000000000
18.404603192000,-0.226000000000
18.412291150000,-0.216000000000
18.419979108000,-0.211000000000
18.427667066000,-0.194000000000
18.435355024000,-0.174000000000
18.443042982000,-0.172000000000
18.450730940000,-0.177000000000
18.458418898000,-0.157000000000
18.466106856000,-0.140000000000
18.473794814000,-0.150000000000
18.481482772000,-0.140000000000
18.489170730000,-0.125000000000
18.496858688000,-0.130000000000
18.504546646000,-0.132000000000
18.512234604000,-0.123000000000
18.519922562000,-0.128000000000
18.527610520000,-0.135000000000
18.535298478000,-0.125000000000
18.542986436000,-0.115000000000
18.550674394000,-0.125000000000
18.558362352000,-0.128000000000
18.566050310000,-0.115000000000
18.573738268000,-0.120000000000
18.581426226000,-0.132000000000
18.589114184000,-0.132000000000
18.596802145000,-0.128000000000
18.604489684000,-0.123000000000
18.612177223000,-0.108000000000
18.619864762000,-0.100000000000
18.627552301000,-0.100000000000
18.635239840000,-0.088000000000
18.642927379000,-0.083000000000
18.650614918000,-0.100000000000
18.658302457000,-0.115000000000
18.665989996000,-0.113000000000
18.673677535000,-0.108000000000
18.681365074000,-0.115000000000
18.689052613000,-0.103000000000
18.696740152000,-0.091000000000
18.704427691000,-0.100000000000
18.712115230000,-0.128000000000
18.719802769000,-0.189000000000
18.727490308000,-0.275000000000
18.735177847000,-0.152000000000
18.742865386000,0.465000000000
18.750552925000,1.341000000000
18.758240464000,1.821000000000
18.765928003000,1.253000000000
18.773615542000,-0.066000000000
18.781303081000,-0.627000000000
18.788990620000,-0.243000000000
18.796678159000,-0.132000000000
18.804365698000,-0.288000000000
18.812053237000,-0.221000000000
18.819740776000,-0.155000000000
18.827428315000,-0.199000000000
18.835115854000,-0.174000000000
18.842803393000,-0.123000000000
18.850490932000,-0.123000000000
18.858178471000,-0.115000000000
18.865866010000,-0.086000000000
18.873553549000,-0.071000000000
18.881241088000,-0.061000000000
18.888928627000,-0.034000000000
18.896616166000,-0.007000000000
18.904303705000,0.007000000000
18.911991244000,0.027000000000
18.919678783000,0.056000000000
18.927366322000,0.086000000000
18.935053861000,0.113000000000
18.942741400000,0.142000000000
18.950428939000,0.162000000000
18.958116478000,0.164000000000
18.965804017000,0.162000000000
18.973491556000,0.157000000000
18.981179095000,0.145000000000
18.988866634000,0.120000000000
18.996554173000,0.083000000000
19.004241712000,0.027000000000
19.011929251000,-0.049000000000
19.019616790000,-0.120000000000
19.027304329000,-0.177000000000
19.034991868000,-0.219000000000
19.042679407000,-0.246000000000
19.050366946000,-0.256000000000
19.058054485000,-0.253000000000
19.065742024000,-0.248000000000
19.073429563000,-0.241000000000
19.081117102000,-0.228000000000
19.088804641000,-0.216000000000
19.096492180000,-0.204000000000
19.104179719000,-0.192000000000
19.111867258000,-0.182000000000
19.119554797000,-0.179000000000
19.127242336000,-0.174000000000
19.134929875000,-0.162000000000
19.142617414000,-0.155000000000
19.150304953000,-0.152000000000
19.157992560000,-0.150000000000
19.165680517000,-0.142000000000
19.173368474000,-0.140000000000
19.181056431000,-0.142000000000
19.188744388000,-0.142000000000
19.196432345000,-0.137000000000
19.204120302000,-0.140000000000
19.211808259000,-0.142000000000
19.219496216000,-0.137000000000
19.227184173000,-0.135000000000
19.234872130000,-0.137000000000
19.242560087000,-0.137000000000
19.250248044000,-0.135000000000
19.257936001000,-0.140000000000
19.265623958000,-0.150000000000
19.273311915000,-0.150000000000
19.280999872000,-0.140000000000
19.288687829000,-0.125000000000
19.296375786000,-0.115000000000
19.304063743000,-0.115000000000
19.311751700000,-0.105000000000
19.319439657000,-0.093000000000
19.327127614000,-0.098000000000
19.334815571000,-0.123000000000
19.342503528000,-0.130000000000
19.350191485000,-0.118000000000
19.357879442000,-0.113000000000
19.365567399000,-0.113000000000
19.373255356000,-0.113000000000
19.380943313000,-0.108000000000
19.388631270000,-0.120000000000
19.396319227000,-0.164000000000
19.404007184000,-0.251000000000
19.411695141000,-0.251000000000
19.419383098000,0.145000000000
19.427071055000,0.962000000000
19.434759012000,1.723000000000
19.442446969000,1.673000000000
19.450134926000,0.499000000000
19.457822883000,-0.571000000000
19.465510840000,-0.440000000000
19.473198797000,-0.091000000000
19.480886754000,-0.243000000000
19.488574711000,-0.297000000000
19.496262668000,-0.177000000000
19.503950625000,-0.182000000000
19.511638582000,-0.204000000000
19.519326539000,-0.152000000000
19.527014496000,-0.132000000000
19.534702453000,-0.135000000000
19.542390410000,-0.108000000000
19.550078367000,-0.081000000000
19.557766324000,-0.068000000000
19.565454281000,-0.051000000000
19.573142238000,-0.029000000000
19.580830195000,-0.009000000000
19.588518152000,0.014000000000
19.596206109000,0.044000000000
19.603894066000,0.068000000000
19.611582023000,0.096000000000
19.619269980000,0.123000000000
19.626957937000,0.150000000000
19.634645894000,0.167000000000
19.642333851000,0.172000000000
19.650021808000,0.167000000000
19.657709765000,0.160000000000
19.665397722000,0.142000000000
19.673085679000,0.113000000000
19.680773636000,0.068000000000
19.688461593000,0.000000000000
19.696149550000,-0.081000000000
19.703837507000,-0.150000000000
19.711525464000,-0.199000000000
19.719213493000,-0.233000000000
19.726901311000,-0.248000000000
19.734589129000,-0.251000000000
19.742276947000,-0.253000000000
19.749964765000,-0.246000000000
19.757652583000,-0.233000000000
19.765340401000,-0.221000000000
19.773028219000,-0.211000000000
19.780716037000,-0.199000000000
19.788403855000,-0.189000000000
19.796091673000,-0.182000000000
19.803779491000,-0.177000000000
19.811467309000,-0.169000000000
19.819155127000,-0.160000000000
19.826842945000,-0.160000000000
19.834530763000,-0.160000000000
19.842218581000,-0.155000000000
19.849906399000,-0.150000000000
19.857594217000,-0.150000000000
19.865282035000,-0.147000000000
19.872969853000,-0.142000000000
19.880657671000,-0.142000000000
19.888345489000,-0.142000000000
19.896033307000,-0.137000000000
19.903721125000,-0.135000000000
19.911408943000,-0.132000000000
19.919096761000,-0.132000000000
19.926784579000,-0.130000000000
19.934472397000,-0.130000000000
19.942160215000,-0.137000000000
19.949848033000,-0.145000000000
19.957535851000,-0.135000000000
19.965223669000,-0.123000000000
19.972911487000,-0.110000000000
19.980599305000,-0.108000000000
19.988287123000,-0.100000000000
19.995974941000,-0.086000000000
20.003662759000,-0.081000000000
20.011350577000,-0.103000000000
20.019038395000,-0.123000000000
20.026726213000,-0.115000000000
20.034414031000,-0.105000000000
20.042101849000,-0.105000000000
20.049789667000,-0.105000000000
20.057477485000,-0.098000000000
20.065165303000,-0.098000000000
20.072853121000,-0.118000000000
20.080540939000,-0.177000000000
20.088228757000,-0.268000000000
20.095916575000,-0.189000000000
20.103604393000,0.356000000000
20.111292211000,1.233000000000
20.118980029000,1.843000000000
20.126667847000,1.430000000000
20.134355665000,0.091000000000
20.142043483000,-0.630000000000
20.149731301000,-0.280000000000
20.157419119000,-0.098000000000
20.165106937000,-0.280000000000
20.172794755000,-0.248000000000
20.180482573000,-0.157000000000
20.188170391000,-0.187000000000
20.195858209000,-0.179000000000
20.203546027000,-0.130000000000
20.211233845000,-0.123000000000
20.218921663000,-0.113000000000
20.226609481000,-0.086000000000
20.234297299000,-0.066000000000
20.241985117000,-0.051000000000
20.249672935000,-0.034000000000
20.257360753000,-0.012000000000
20.265048571000,0.012000000000
20.272736389000,0.036000000000
20.280424256000,0.064000000000
20.288111935000,0.091000000000
20.295799614000,0.120000000000
20.303487293000,0.150000000000
20.311174972000,0.177000000000
20.318862651000,0.189000000000
20.326550330000,0.189000000000
20.334238009000,0.187000000000
20.341925688000,0.174000000000
20.349613367000,0.152000000000
20.357301046000,0.118000000000
20.364988725000,0.059000000000
20.372676404000,-0.014000000000
20.380364083000,-0.093000000000
20.388051762000,-0.162000000000
20.395739441000,-0.204000000000
20.403427120000,-0.231000000000
20.411114799000,-0.248000000000
20.418802478000,-0.248000000000
20.426490157000,-0.241000000000
20.434177836000,-0.233000000000
20.441865515000,-0.224000000000
20.449553194000,-0.209000000000
20.457240873000,-0.196000000000
20.464928552000,-0.189000000000
20.472616231000,-0.177000000000
20.480303910000,-0.167000000000
20.487991589000,-0.162000000000
20.495679268000,-0.157000000000
20.503366947000,-0.152000000000
20.511054626000,-0.150000000000
20.518742305000,-0.145000000000
20.526429984000,-0.142000000000
20.534117663000,-0.140000000000
20.541805342000,-0.135000000000
20.549493021000,-0.135000000000
20.557180700000,-0.137000000000
20.564868379000,-0.135000000000
20.572556058000,-0.130000000000
20.580243737000,-0.130000000000
20.587931416000,-0.128000000000
20.595619095000,-0.128000000000
20.603306774000,-0.125000000000
20.610994453000,-0.128000000000
20.618682132000,-0.135000000000
20.626369811000,-0.137000000000
20.634057490000,-0.128000000000
20.641745169000,-0.113000000000
20.649432848000,-0.103000000000
20.657120527000,-0.100000000000
20.664808206000,-0.098000000000
20.672495885000,-0.081000000000
20.680183564000,-0.078000000000
20.687871243000,-0.103000000000
20.695558922000,-0.120000000000
20.703246601000,-0.110000000000
20.710934280000,-0.103000000000
20.718621959000,-0.100000000000
20.726309638000,-0.098000000000
20.733997317000,-0.093000000000
20.741684996000,-0.096000000000
20.749372675000,-0.125000000000
20.757060354000,-0.201000000000
20.764748033000,-0.270000000000
20.772435712000,-0.078000000000
20.780123391000,0.600000000000
20.787811070000,1.479000000000
20.795498749000,1.851000000000
20.803186428000,1.070000000000
20.810874107000,-0.256000000000
20.818561786000,-0.585000000000
20.826249465000,-0.162000000000
20.833937144000,-0.145000000000
20.841624841000,-0.292000000000
20.849312798000,-0.201000000000
20.857000755000,-0.152000000000
20.864688712000,-0.192000000000
20.872376669000,-0.162000000000
20.880064626000,-0.120000000000
20.887752583000,-0.120000000000
20.895440540000,-0.105000000000
20.903128497000,-0.076000000000
20.910816454000,-0.061000000000
20.918504411000,-0.046000000000
20.926192368000,-0.024000000000
20.933880325000,-0.002000000000
20.941568282000,0.022000000000
20.949256239000,0.049000000000
20.956944196000,0.078000000000
20.964632153000,0.105000000000
20.972320110000,0.135000000000
20.980008067000,0.164000000000
20.987696024000,0.182000000000
20.995383981000,0.192000000000
21.003071938000,0.194000000000
21.010759895000,0.187000000000
21.018447852000,0.167000000000
21.026135809000,0.142000000000
21.033823766000,0.100000000000
21.041511723000,0.036000000000
21.049199680000,-0.044000000000
21.056887637000,-0.118000000000
21.064575594000,-0.174000000000
21.072263551000,-0.216000000000
21.079951508000,-0.238000000000
21.087639465000,-0.243000000000
21.095327422000,-0.241000000000
21.103015379000,-0.238000000000
21.110703336000,-0.228000000000
21.118391293000,-0.214000000000
21.126079250000,-0.201000000000
21.133767207000,-0.194000000000
21.141455164000,-0.187000000000
21.149143121000,-0.174000000000
21.156831078000,-0.167000000000
21.164519035000,-0.162000000000
21.172206992000,-0.152000000000
21.179894949000,-0.145000000000
21.187582906000,-0.142000000000
21.195270863000,-0.140000000000
21.202958820000,-0.137000000000
21.210646777000,-0.140000000000
21.218334734000,-0.135000000000
21.226022691000,-0.132000000000
21.233710648000,-0.132000000000
21.241398605000,-0.130000000000
21.249086562000,-0.128000000000
21.256774519000,-0.128000000000
21.264462476000,-0.128000000000
21.272150433000,-0.123000000000
21.279838390000,-0.120000000000
21.287526347000,-0.118000000000
21.295214304000,-0.125000000000
21.302902261000,-0.137000000000
21.310590218000,-0.137000000000
21.318278175000,-0.118000000000
21.325966132000,-0.103000000000
21.333654089000,-0.100000000000
21.341342046000,-0.098000000000
21.349030003000,-0.086000000000
21.356717960000,-0.071000000000
21.364405917000,-0.081000000000
21.372093874000,-0.108000000000
21.379781831000,-0.115000000000
21.387469788000,-0.100000000000
21.395157745000,-0.098000000000
21.402845774000,-0.100000000000
21.410533732000,-0.093000000000
21.418221690000,-0.086000000000
21.425909648000,-0.100000000000
21.433597606000,-0.150000000000
21.441285564000,-0.238000000000
21.448973522000,-0.241000000000
21.456661480000,0.167000000000
21.464349438000,1.004000000000
21.472037396000,1.765000000000
21.479725354000,1.666000000000
21.487413312000,0.457000000000
21.495101270000,-0.563000000000
21.502789228000,-0.401000000000
21.510477186000,-0.081000000000
21.518165144000,-0.231000000000
21.525853102000,-0.263000000000
21.533541060000,-0.152000000000
21.541229018000,-0.167000000000
21.548916976000,-0.182000000000
21.556604934000,-0.130000000000
21.564292892000,-0.113000000000
21.571980850000,-0.113000000000
21.579668808000,-0.086000000000
21.587356766000,-0.061000000000
21.595044724000,-0.046000000000
21.602732682000,-0.027000000000
21.610420640000,-0.004000000000
21.618108598000,0.017000000000
21.625796556000,0.041000000000
21.633484514000,0.066000000000
21.641172472000,0.093000000000
21.648860430000,0.123000000000
21.656548388000,0.150000000000
21.664236346000,0.174000000000
21.671924304000,0.192000000000
21.679612262000,0.194000000000
21.687300220000,0.192000000000
21.694988178000,0.184000000000
21.702676136000,0.164000000000
21.710364094000,0.132000000000
21.718052052000,0.083000000000
21.725740010000,0.012000000000
21.733427968000,-0.068000000000
21.741115926000,-0.135000000000
21.748803884000,-0.184000000000
21.756491842000,-0.216000000000
21.764179800000,-0.233000000000
21.771867758000,-0.241000000000
21.779555716000,-0.238000000000
21.787243674000,-0.226000000000
21.794931632000,-0.216000000000
21.802619590000,-0.206000000000
21.810307548000,-0.192000000000
21.817995506000,-0.179000000000
21.825683464000,-0.169000000000
21.833371422000,-0.164000000000
21.841059380000,-0.155000000000
21.848747338000,-0.147000000000
21.856435296000,-0.142000000000
21.864123254000,-0.140000000000
21.871811212000,-0.135000000000
21.879499170000,-0.132000000000
21.887187128000,-0.132000000000
21.894875086000,-0.132000000000
21.902563044000,-0.128000000000
21.910251002000,-0.125000000000
21.917938960000,-0.128000000000
21.925626918000,-0.128000000000
21.933314876000,-0.123000000000
21.941002834000,-0.123000000000
21.948690792000,-0.120000000000
21.956378750000,-0.115000000000
21.964066711000,-0.113000000000
21.971754390000,-0.113000000000
21.979442069000,-0.113000000000
21.987129748000,-0.115000000000
21.994817427000,-0.120000000000
22.002505106000,-0.125000000000
22.010192785000,-0.115000000000
22.017880464000,-0.098000000000
22.025568143000,-0.088000000000
22.033255822000,-0.088000000000
22.040943501000,-0.081000000000
22.048631180000,-0.066000000000
22.056318859000,-0.071000000000
22.064006538000,-0.098000000000
22.071694217000,-0.108000000000
22.079381896000,-0.100000000000
22.087069575000,-0.096000000000
22.094757254000,-0.091000000000
22.102444933000,-0.088000000000
22.110132612000,-0.086000000000
22.117820291000,-0.093000000000
22.125507970000,-0.125000000000
22.133195649000,-0.206000000000
22.140883328000,-0.258000000000
22.148571007000,0.017000000000
22.156258686000,0.765000000000
22.163946365000,1.605000000000
22.171634044000,1.802000000000
22.179321723000,0.832000000000
22.187009402000,-0.406000000000
22.194697081000,-0.512000000000
22.202384760000,-0.108000000000
22.210072439000,-0.177000000000
22.217760118000,-0.283000000000
22.225447797000,-0.177000000000
22.233135476000,-0.155000000000
22.240823155000,-0.184000000000
22.248510834000,-0.140000000000
22.256198513000,-0.110000000000
22.263886192000,-0.110000000000
22.271573871000,-0.091000000000
22.279261550000,-0.064000000000
22.286949229000,-0.046000000000
22.294636908000,-0.032000000000
22.302324587000,-0.012000000000
22.310012266000,0.007000000000
22.317699945000,0.032000000000
22.325387624000,0.059000000000
22.333075303000,0.086000000000
22.340762982000,0.113000000000
22.348450661000,0.140000000000
22.356138340000,0.167000000000
22.363826019000,0.184000000000
22.371513698000,0.189000000000
22.379201377000,0.189000000000
22.386889056000,0.179000000000
22.394576735000,0.162000000000
22.402264414000,0.140000000000
22.409952093000,0.098000000000
22.417639772000,0.034000000000
22.425327451000,-0.044000000000
22.433015130000,-0.115000000000
22.440702809000,-0.172000000000
22.448390488000,-0.211000000000
22.456078167000,-0.231000000000
22.463765846000,-0.236000000000
22.471453525000,-0.233000000000
22.479141204000,-0.228000000000
22.486828883000,-0.219000000000
22.494516562000,-0.204000000000
22.502204241000,-0.192000000000
22.509891920000,-0.184000000000
22.517579599000,-0.179000000000
22.525267300000,-0.172000000000
22.532955118000,-0.157000000000
22.540642936000,-0.145000000000
22.548330754000,-0.142000000000
22.556018572000,-0.135000000000
22.563706390000,-0.130000000000
22.571394208000,-0.135000000000
22.579082026000,-0.132000000000
22.586769844000,-0.125000000000
22.594457662000,-0.128000000000
22.602145480000,-0.128000000000
22.609833298000,-0.123000000000
22.617521116000,-0.123000000000
22.625208934000,-0.123000000000
22.632896752000,-0.123000000000
22.640584570000,-0.120000000000
22.648272388000,-0.113000000000
22.655960206000,-0.105000000000
22.663648024000,-0.113000000000
22.671335842000,-0.123000000000
22.679023660000,-0.125000000000
22.686711478000,-0.120000000000
22.694399296000,-0.118000000000
22.702087114000,-0.103000000000
22.709774932000,-0.088000000000
22.717462750000,-0.086000000000
22.725150568000,-0.081000000000
22.732838386000,-0.066000000000
22.740526204000,-0.068000000000
22.748214022000,-0.100000000000
22.755901840000,-0.113000000000
22.763589658000,-0.091000000000
22.771277476000,-0.078000000000
22.778965294000,-0.086000000000
22.786653112000,-0.091000000000
22.794340930000,-0.081000000000
22.802028748000,-0.086000000000
22.809716566000,-0.125000000000
22.817404384000,-0.209000000000
22.825092202000,-0.251000000000
22.832780020000,0.051000000000
22.840467838000,0.824000000000
22.848155656000,1.659000000000
22.855843474000,1.799000000000
22.863531292000,0.745000000000
22.871219110000,-0.465000000000
22.878906928000,-0.477000000000
22.886594746000,-0.081000000000
22.894282564000,-0.194000000000
22.901970382000,-0.273000000000
22.909658200000,-0.152000000000
22.917346018000,-0.145000000000
22.925033836000,-0.167000000000
22.932721654000,-0.113000000000
22.940409472000,-0.091000000000
22.948097290000,-0.105000000000
22.955785108000,-0.076000000000
22.963472926000,-0.034000000000
22.971160744000,-0.036000000000
22.978848562000,-0.029000000000
22.986536380000,0.007000000000
22.994224198000,0.034000000000
23.001912016000,0.064000000000
23.009599834000,0.091000000000
23.017287652000,0.113000000000
23.024975470000,0.145000000000
23.032663288000,0.179000000000
23.040351106000,0.209000000000
23.048038924000,0.221000000000
23.055726742000,0.228000000000
23.063414560000,0.238000000000
23.071102378000,0.228000000000
23.078790196000,0.201000000000
23.086478059000,0.174000000000
23.094165877000,0.123000000000
23.101853695000,0.034000000000
23.109541513000,-0.046000000000
23.117229331000,-0.108000000000
23.124917149000,-0.172000000000
23.132604967000,-0.214000000000
23.140292785000,-0.224000000000
23.147980603000,-0.241000000000
23.155668421000,-0.243000000000
23.163356239000,-0.224000000000
23.171044057000,-0.221000000000
23.178731875000,-0.221000000000
23.186419693000,-0.196000000000
23.194107511000,-0.179000000000
23.201795329000,-0.187000000000
23.209483147000,-0.184000000000
23.217170965000,-0.155000000000
23.224858783000,-0.130000000000
23.232546601000,-0.130000000000
23.240234419000,-0.142000000000
23.247922237000,-0.137000000000
23.255610055000,-0.120000000000
23.263297873000,-0.113000000000
23.270985691000,-0.123000000000
23.278673509000,-0.132000000000
23.286361327000,-0.128000000000
23.294049145000,-0.113000000000
23.301736963000,-0.108000000000
23.309424781000,-0.113000000000
23.317112599000,-0.113000000000
23.324800417000,-0.115000000000
23.332488235000,-0.120000000000
23.340176053000,-0.120000000000
23.347863871000,-0.115000000000
23.355551689000,-0.120000000000
23.363239507000,-0.115000000000
23.370927325000,-0.093000000000
23.378615143000,-0.088000000000
23.386302961000,-0.096000000000
23.393990779000,-0.086000000000
23.401678597000,-0.068000000000
23.409366415000,-0.081000000000
23.417054233000,-0.113000000000
23.424742051000,-0.110000000000
23.432429869000,-0.091000000000
23.440117687000,-0.098000000000
23.447805505000,-0.103000000000
23.455493323000,-0.088000000000
23.463181141000,-0.088000000000
23.470868959000,-0.110000000000
23.478556777000,-0.155000000000
23.486244595000,-0.246000000000
23.493932413000,-0.233000000000
23.501620231000,0.236000000000
23.509308049000,1.120000000000
23.516995867000,1.804000000000
23.524683685000,1.563000000000
23.532371503000,0.317000000000
23.540059321000,-0.598000000000
23.547747139000,-0.366000000000
23.555434957000,-0.098000000000
23.563122775000,-0.251000000000
23.570810593000,-0.243000000000
23.578498411000,-0.147000000000
23.586186229000,-0.177000000000
23.593874047000,-0.172000000000
23.601561865000,-0.123000000000
23.609249683000,-0.118000000000
23.616937501000,-0.113000000000
23.624625319000,-0.078000000000
23.632313137000,-0.061000000000
23.640000955000,-0.051000000000
23.647688822000,-0.029000000000
23.655376849000,-0.007000000000
23.663064876000,0.009000000000
23.670752903000,0.036000000000
23.678440930000,0.064000000000
23.686128957000,0.086000000000
23.693816984000,0.113000000000
23.701505011000,0.142000000000
23.709193038000,0.162000000000
23.716881065000,0.174000000000
23.724569092000,0.172000000000
23.732257119000,0.162000000000
23.739945146000,0.150000000000
23.747633173000,0.135000000000
23.755321200000,0.105000000000
23.763009227000,0.049000000000
23.770697254000,-0.027000000000
23.778385281000,-0.103000000000
23.786073308000,-0.160000000000
23.793761335000,-0.201000000000
23.801449362000,-0.233000000000
23.809137389000,-0.246000000000
23.816825416000,-0.243000000000
23.824513443000,-0.241000000000
23.832201470000,-0.236000000000
23.839889497000,-0.221000000000
23.847577524000,-0.211000000000
23.855265551000,-0.201000000000
23.862953578000,-0.189000000000
23.870641605000,-0.177000000000
23.878329632000,-0.169000000000
23.886017659000,-0.164000000000
23.893705686000,-0.155000000000
23.901393713000,-0.145000000000
23.909081740000,-0.140000000000
23.916769767000,-0.135000000000
23.924457794000,-0.135000000000
23.932145821000,-0.132000000000
23.939833848000,-0.128000000000
23.947521875000,-0.125000000000
23.955209902000,-0.128000000000
23.962897929000,-0.128000000000
23.970585956000,-0.125000000000
23.978273983000,-0.125000000000
23.985962010000,-0.123000000000
23.993650037000,-0.123000000000
24.001338064000,-0.123000000000
24.009026091000,-0.120000000000
24.016714118000,-0.115000000000
24.024402145000,-0.120000000000
24.032090172000,-0.128000000000
24.039778199000,-0.132000000000
24.047466226000,-0.123000000000
24.055154253000,-0.113000000000
24.062842280000,-0.105000000000
24.070530307000,-0.103000000000
24.078218334000,-0.096000000000
24.085906361000,-0.081000000000
24.093594388000,-0.083000000000
24.101282415000,-0.100000000000
24.108970442000,-0.115000000000
24.116658469000,-0.110000000000
24.124346496000,-0.100000000000
24.132034523000,-0.103000000000
24.139722550000,-0.103000000000
24.147410577000,-0.096000000000
24.155098604000,-0.096000000000
24.162786631000,-0.123000000000
24.170474658000,-0.199000000000
24.178162685000,-0.270000000000
24.185850712000,-0.064000000000
24.193538739000,0.620000000000
24.201226766000,1.479000000000
24.208914842000,1.848000000000
24.216602451000,1.073000000000
24.224290060000,-0.260000000000
24.231977669000,-0.593000000000
24.239665278000,-0.157000000000
24.247352887000,-0.145000000000
24.255040496000,-0.305000000000
24.262728105000,-0.211000000000
24.270415714000,-0.162000000000
24.278103323000,-0.201000000000
24.285790932000,-0.169000000000
24.293478541000,-0.125000000000
24.301166150000,-0.125000000000
24.308853759000,-0.110000000000
24.316541368000,-0.086000000000
24.324228977000,-0.068000000000
24.331916586000,-0.051000000000
24.339604195000,-0.032000000000
24.347291804000,-0.012000000000
24.354979413000,0.009000000000
24.362667022000,0.036000000000
24.370354631000,0.061000000000
24.378042240000,0.083000000000
24.385729849000,0.115000000000
24.393417458000,0.147000000000
24.401105067000,0.169000000000
24.408792676000,0.172000000000
24.416480285000,0.169000000000
24.424167894000,0.162000000000
24.431855503000,0.152000000000
24.439543112000,0.130000000000
24.447230721000,0.093000000000
24.454918330000,0.034000000000
24.462605939000,-0.044000000000
24.470293548000,-0.120000000000
24.477981157000,-0.179000000000
24.485668766000,-0.219000000000
24.493356375000,-0.246000000000
24.501043984000,-0.253000000000
24.508731593000,-0.251000000000
24.516419202000,-0.246000000000
24.524106811000,-0.236000000000
24.531794420000,-0.226000000000
24.539482029000,-0.214000000000
24.547169638000,-0.204000000000
24.554857247000,-0.194000000000
24.562544856000,-0.187000000000
24.570232465000,-0.177000000000
24.577920074000,-0.169000000000
24.585607683000,-0.167000000000
24.593295292000,-0.164000000000
24.600982901000,-0.160000000000
24.608670510000,-0.160000000000
24.616358119000,-0.160000000000
24.624045728000,-0.155000000000
24.631733337000,-0.152000000000
24.639420946000,-0.152000000000
24.647108555000,-0.152000000000
24.654796164000,-0.150000000000
24.662483773000,-0.147000000000
24.670171382000,-0.142000000000
24.677858991000,-0.140000000000
24.685546600000,-0.140000000000
24.693234209000,-0.137000000000
24.700921818000,-0.135000000000
24.708609427000,-0.132000000000
24.716297036000,-0.132000000000
24.723984645000,-0.135000000000
24.731672254000,-0.142000000000
24.739359863000,-0.145000000000
24.747047472000,-0.140000000000
24.754735081000,-0.123000000000
24.762422690000,-0.113000000000
24.770110344000,-0.113000000000
24.777797953000,-0.105000000000
24.785485562000,-0.091000000000
24.793173171000,-0.093000000000
24.800860780000,-0.118000000000
24.808548389000,-0.128000000000
24.816235998000,-0.118000000000
24.823923607000,-0.113000000000
24.831611216000,-0.113000000000
24.839298825000,-0.110000000000
24.846986434000,-0.105000000000
24.854674043000,-0.110000000000
24.862361652000,-0.140000000000
24.870049261000,-0.219000000000
24.877736870000,-0.292000000000
24.885424479000,-0.096000000000
24.893112088000,0.590000000000
24.900799697000,1.467000000000
24.908487306000,1.851000000000
24.916174915000,1.080000000000
24.923862524000,-0.260000000000
24.931550133000,-0.600000000000
24.939237742000,-0.167000000000
24.946925351000,-0.155000000000
24.954612960000,-0.310000000000
24.962300569000,-0.219000000000
24.969988178000,-0.167000000000
24.977675787000,-0.209000000000
24.985363396000,-0.174000000000
24.993051005000,-0.130000000000
25.000738614000,-0.130000000000
25.008426223000,-0.115000000000
25.016113832000,-0.088000000000
25.023801441000,-0.071000000000
25.031489050000,-0.056000000000
25.039176659000,-0.036000000000
25.046864268000,-0.017000000000
25.054551877000,0.007000000000
25.062239486000,0.032000000000
25.069927095000,0.059000000000
25.077614704000,0.088000000000
25.085302313000,0.118000000000
25.092989922000,0.145000000000
25.100677531000,0.167000000000
25.108365140000,0.179000000000
25.116052749000,0.179000000000
25.123740358000,0.169000000000
25.131427967000,0.157000000000
25.139115576000,0.137000000000
25.146803185000,0.098000000000
25.154490794000,0.036000000000
25.162178403000,-0.036000000000
25.169866012000,-0.110000000000
25.177553621000,-0.172000000000
25.185241230000,-0.214000000000
25.192928839000,-0.241000000000
25.200616448000,-0.256000000000
25.208304057000,-0.253000000000
25.215991666000,-0.243000000000
25.223679275000,-0.233000000000
25.231366884000,-0.224000000000
25.239054493000,-0.211000000000
25.246742102000,-0.204000000000
25.254429711000,-0.194000000000
25.262117320000,-0.182000000000
25.269804929000,-0.174000000000
25.277492538000,-0.167000000000
25.285180147000,-0.160000000000
25.292867756000,-0.160000000000
25.300555365000,-0.157000000000
25.308242974000,-0.152000000000
25.315930583000,-0.145000000000
25.323618192000,-0.145000000000
25.331305846000,-0.145000000000
25.338993734000,-0.145000000000
25.346681622000,-0.142000000000
25.354369510000,-0.140000000000
25.362057398000,-0.140000000000
25.369745286000,-0.137000000000
25.377433174000,-0.135000000000
25.385121062000,-0.130000000000
25.392808950000,-0.128000000000
25.400496838000,-0.128000000000
25.408184726000,-0.125000000000
25.415872614000,-0.123000000000
25.423560502000,-0.120000000000
25.431248390000,-0.128000000000
25.438936278000,-0.135000000000
25.446624166000,-0.135000000000
25.454312054000,-0.125000000000
25.461999942000,-0.108000000000
25.469687830000,-0.100000000000
25.477375718000,-0.103000000000
25.485063606000,-0.093000000000
25.492751494000,-0.078000000000
25.500439382000,-0.088000000000
25.508127270000,-0.115000000000
25.515815158000,-0.120000000000
25.523503046000,-0.108000000000
25.531190934000,-0.103000000000
25.538878822000,-0.100000000000
25.546566710000,-0.096000000000
25.554254598000,-0.093000000000
25.561942486000,-0.105000000000
25.569630374000,-0.140000000000
25.577318262000,-0.219000000000
25.585006150000,-0.273000000000
25.592694038000,0.000000000000
25.600381926000,0.743000000000
25.608069814000,1.585000000000
25.615757702000,1.809000000000
25.623445590000,0.856000000000
25.631133478000,-0.406000000000
25.638821366000,-0.534000000000
25.646509254000,-0.113000000000
25.654197142000,-0.179000000000
25.661885030000,-0.295000000000
25.669572918000,-0.184000000000
25.677260806000,-0.157000000000
25.684948694000,-0.194000000000
25.692636582000,-0.152000000000
25.700324470000,-0.118000000000
25.708012358000,-0.120000000000
25.715700246000,-0.100000000000
25.723388134000,-0.071000000000
25.731076022000,-0.059000000000
25.738763910000,-0.044000000000
25.746451798000,-0.019000000000
25.754139686000,0.000000000000
25.761827574000,0.022000000000
25.769515462000,0.049000000000
25.777203350000,0.073000000000
25.784891238000,0.100000000000
25.792579126000,0.130000000000
25.800267014000,0.157000000000
25.807954902000,0.174000000000
25.815642790000,0.184000000000
25.823330678000,0.182000000000
25.831018566000,0.172000000000
25.838706454000,0.160000000000
25.846394342000,0.137000000000
25.854082230000,0.096000000000
25.861770118000,0.036000000000
25.869458006000,-0.036000000000
25.877145894000,-0.113000000000
25.884833782000,-0.169000000000
25.892521692000,-0.209000000000
25.900209440000,-0.236000000000
25.907897188000,-0.246000000000
25.915584936000,-0.241000000000
25.923272684000,-0.236000000000
25.930960432000,-0.226000000000
25.938648180000,-0.214000000000
25.946335928000,-0.204000000000
25.954023676000,-0.194000000000
25.961711424000,-0.184000000000
25.969399172000,-0.172000000000
25.977086920000,-0.167000000000
25.984774668000,-0.162000000000
25.992462416000,-0.157000000000
26.000150164000,-0.150000000000
26.007837912000,-0.150000000000
26.015525660000,-0.147000000000
26.023213408000,-0.142000000000
26.030901156000,-0.142000000000
26.038588904000,-0.140000000000
26.046276652000,-0.137000000000
26.053964400000,-0.135000000000
26.061652148000,-0.132000000000
26.069339896000,-0.130000000000
26.077027644000,-0.130000000000
26.084715392000,-0.128000000000
26.092403140000,-0.125000000000
26.100090888000,-0.123000000000
26.107778636000,-0.118000000000
26.115466384000,-0.115000000000
26.123154132000,-0.115000000000
26.130841880000,-0.110000000000
26.138529628000,-0.108000000000
26.146217376000,-0.113000000000
26.153905124000,-0.120000000000
26.161592872000,-0.120000000000
26.169280620000,-0.113000000000
26.176968368000,-0.100000000000
26.184656116000,-0.091000000000
26.192343864000,-0.086000000000
26.200031612000,-0.078000000000
26.207719360000,-0.061000000000
26.215407108000,-0.066000000000
26.223094856000,-0.096000000000
26.230782604000,-0.105000000000
26.238470352000,-0.093000000000
26.246158100000,-0.091000000000
26.253845848000,-0.091000000000
26.261533596000,-0.086000000000
26.269221344000,-0.081000000000
26.276909092000,-0.088000000000
26.284596840000,-0.118000000000
26.292284588000,-0.196000000000
26.299972336000,-0.265000000000
26.307660084000,-0.039000000000
26.315347832000,0.664000000000
26.323035580000,1.523000000000
26.330723328000,1.834000000000
26.338411076000,0.987000000000
26.346098824000,-0.310000000000
26.353786572000,-0.548000000000
26.361474320000,-0.123000000000
26.369162068000,-0.150000000000
26.376849816000,-0.280000000000
26.384537564000,-0.179000000000
26.392225312000,-0.142000000000
26.399913060000,-0.184000000000
26.407600808000,-0.147000000000
26.415288556000,-0.108000000000
26.422976304000,-0.108000000000
26.430664052000,-0.091000000000
26.438351800000,-0.064000000000
26.446039548000,-0.049000000000
26.453727368000,-0.034000000000
26.461415116000,-0.014000000000
26.469102864000,0.007000000000
26.476790612000,0.032000000000
26.484478360000,0.056000000000
26.492166108000,0.081000000000
26.499853856000,0.108000000000
26.507541604000,0.135000000000
26.515229352000,0.160000000000
26.522917100000,0.177000000000
26.530604848000,0.187000000000
26.538292596000,0.187000000000
26.545980344000,0.182000000000
26.553668092000,0.164000000000
26.561355840000,0.145000000000
26.569043588000,0.110000000000
26.576731336000,0.054000000000
26.584419084000,-0.019000000000
26.592106832000,-0.091000000000
26.599794580000,-0.150000000000
26.607482328000,-0.192000000000
26.615170076000,-0.216000000000
26.622857824000,-0.224000000000
26.630545572000,-0.224000000000
26.638233320000,-0.219000000000
26.645921068000,-0.209000000000
26.653608816000,-0.196000000000
26.661296564000,-0.187000000000
26.668984312000,-0.179000000000
26.676672060000,-0.167000000000
26.684359808000,-0.157000000000
26.692047556000,-0.150000000000
26.699735304000,-0.145000000000
26.707423052000,-0.137000000000
26.715110800000,-0.132000000000
26.722798548000,-0.130000000000
26.730486296000,-0.128000000000
26.738174044000,-0.125000000000
26.745861792000,-0.123000000000
26.753549540000,-0.120000000000
26.761237288000,-0.120000000000
26.768925036000,-0.120000000000
26.776612784000,-0.115000000000
26.784300532000,-0.115000000000
26.791988280000,-0.115000000000
26.799676028000,-0.113000000000
26.807363776000,-0.110000000000
26.815051524000,-0.108000000000
26.822739272000,-0.105000000000
26.830427020000,-0.103000000000
26.838114768000,-0.100000000000
26.845802516000,-0.098000000000
26.853490264000,-0.098000000000
26.861178012000,-0.098000000000
26.868865760000,-0.103000000000
26.876553508000,-0.108000000000
26.884241256000,-0.105000000000
26.891929004000,-0.091000000000
26.899616752000,-0.078000000000
26.907304500000,-0.076000000000
26.914992248000,-0.073000000000
26.922679996000,-0.059000000000
26.930367744000,-0.051000000000
26.938055492000,-0.071000000000
26.945743240000,-0.096000000000
26.953430988000,-0.091000000000
26.961118736000,-0.078000000000
26.968806484000,-0.081000000000
26.976494232000,-0.081000000000
26.984181980000,-0.076000000000
26.991869728000,-0.078000000000
26.999557476000,-0.096000000000
27.007245224000,-0.145000000000
27.014933040000,-0.233000000000
27.022620928000,-0.201000000000
27.030308816000,0.258000000000
27.037996704000,1.105000000000
27.045684592000,1.794000000000
27.053372480000,1.568000000000
27.061060368000,0.305000000000
27.068748256000,-0.588000000000
27.076436144000,-0.332000000000
27.084124032000,-0.068000000000
27.091811920000,-0.238000000000
27.099499808000,-0.241000000000
27.107187696000,-0.140000000000
27.114875584000,-0.164000000000
27.122563472000,-0.169000000000
27.130251360000,-0.118000000000
27.137939248000,-0.103000000000
27.145627136000,-0.098000000000
27.153315024000,-0.071000000000
27.161002912000,-0.051000000000
27.168690800000,-0.036000000000
27.176378688000,-0.017000000000
27.184066576000,0.002000000000
27.191754464000,0.022000000000
27.199442352000,0.044000000000
27.207130240000,0.071000000000
27.214818128000,0.098000000000
27.222506016000,0.123000000000
27.230193904000,0.150000000000
27.237881792000,0.172000000000
27.245569680000,0.187000000000
27.253257568000,0.189000000000
27.260945456000,0.184000000000
27.268633344000,0.174000000000
27.276321232000,0.157000000000
27.284009120000,0.130000000000
27.291697008000,0.088000000000
27.299384896000,0.024000000000
27.307072784000,-0.049000000000
27.314760672000,-0.118000000000
27.322448560000,-0.167000000000
27.330136448000,-0.201000000000
27.337824336000,-0.219000000000
27.345512224000,-0.224000000000
27.353200112000,-0.221000000000
27.360888000000,-0.214000000000
27.368575888000,-0.204000000000
27.376263776000,-0.192000000000
27.383951664000,-0.184000000000
27.391639552000,-0.172000000000
27.399327440000,-0.162000000000
27.407015328000,-0.155000000000
27.414703216000,-0.150000000000
27.422391104000,-0.145000000000
27.430078992000,-0.140000000000
27.437766880000,-0.132000000000
27.445454768000,-0.132000000000
27.453142656000,-0.130000000000
27.460830544000,-0.128000000000
27.468518432000,-0.125000000000
27.476206320000,-0.125000000000
27.483894208000,-0.123000000000
27.491582096000,-0.120000000000
27.499269984000,-0.123000000000
27.506957872000,-0.120000000000
27.514645760000,-0.118000000000
27.522333648000,-0.115000000000
27.530021536000,-0.115000000000
27.537709424000,-0.113000000000
27.545397312000,-0.108000000000
27.553085200000,-0.108000000000
27.560773088000,-0.108000000000
27.568460976000,-0.103000000000
27.576148890000,-0.105000000000
27.583836499000,-0.118000000000
27.591524108000,-0.120000000000
27.599211717000,-0.113000000000
27.606899326000,-0.100000000000
27.614586935000,-0.088000000000
27.622274544000,-0.083000000000
27.629962153000,-0.078000000000
27.637649762000,-0.064000000000
27.645337371000,-0.064000000000
27.653024980000,-0.093000000000
27.660712589000,-0.108000000000
27.668400198000,-0.098000000000
27.676087807000,-0.091000000000
27.683775416000,-0.088000000000
27.691463025000,-0.083000000000
27.699150634000,-0.081000000000
27.706838243000,-0.086000000000
27.714525852000,-0.108000000000
27.722213461000,-0.167000000000
27.729901070000,-0.256000000000
27.737588679000,-0.145000000000
27.745276288000,0.443000000000
27.752963897000,1.324000000000
27.760651506000,1.848000000000
27.768339115000,1.294000000000
27.776026724000,-0.044000000000
27.783714333000,-0.608000000000
27.791401942000,-0.214000000000
27.799089551000,-0.100000000000
27.806777160000,-0.273000000000
27.814464769000,-0.214000000000
27.822152378000,-0.140000000000
27.829839987000,-0.177000000000
27.837527596000,-0.162000000000
27.845215205000,-0.115000000000
27.852902814000,-0.108000000000
27.860590423000,-0.098000000000
27.868278032000,-0.071000000000
27.875965641000,-0.054000000000
27.883653250000,-0.039000000000
27.891340859000,-0.019000000000
27.899028468000,0.002000000000
27.906716077000,0.022000000000
27.914403686000,0.044000000000
27.922091295000,0.068000000000
27.929778904000,0.096000000000
27.937466513000,0.120000000000
27.945154122000,0.147000000000
27.952841731000,0.167000000000
27.960529340000,0.179000000000
27.968216949000,0.179000000000
27.975904558000,0.172000000000
27.983592167000,0.157000000000
27.991279776000,0.140000000000
27.998967385000,0.113000000000
28.006654994000,0.064000000000
28.014342603000,-0.007000000000
28.022030212000,-0.078000000000
28.029717821000,-0.137000000000
28.037405430000,-0.184000000000
28.045093039000,-0.214000000000
28.052780648000,-0.228000000000
28.060468257000,-0.233000000000
28.068155866000,-0.226000000000
28.075843475000,-0.216000000000
28.083531084000,-0.206000000000
28.091218693000,-0.196000000000
28.098906302000,-0.189000000000
28.106593911000,-0.177000000000
28.114281520000,-0.164000000000
28.121969129000,-0.157000000000
28.129656738000,-0.155000000000
28.137344388000,-0.150000000000
28.145032346000,-0.142000000000
28.152720304000,-0.137000000000
28.160408262000,-0.135000000000
28.168096220000,-0.132000000000
28.175784178000,-0.135000000000
28.183472136000,-0.137000000000
28.191160094000,-0.125000000000
28.198848052000,-0.115000000000
28.206536010000,-0.120000000000
28.214223968000,-0.125000000000
28.221911926000,-0.123000000000
28.229599884000,-0.118000000000
28.237287842000,-0.115000000000
28.244975800000,-0.113000000000
28.252663758000,-0.105000000000
28.260351716000,-0.103000000000
28.268039674000,-0.105000000000
28.275727632000,-0.103000000000
28.283415590000,-0.098000000000
28.291103548000,-0.105000000000
28.298791506000,-0.113000000000
28.306479464000,-0.110000000000
28.314167422000,-0.105000000000
28.321855380000,-0.096000000000
28.329543338000,-0.083000000000
28.337231296000,-0.081000000000
28.344919254000,-0.068000000000
28.352607212000,-0.056000000000
28.360295170000,-0.071000000000
28.367983128000,-0.096000000000
28.375671086000,-0.091000000000
28.383359044000,-0.081000000000
28.391047002000,-0.088000000000
28.398734960000,-0.088000000000
28.406422918000,-0.076000000000
28.414110876000,-0.071000000000
28.421798834000,-0.086000000000
28.429486792000,-0.128000000000
28.437174750000,-0.214000000000
28.444862708000,-0.251000000000
28.452550666000,0.044000000000
28.460238624000,0.800000000000
28.467926582000,1.627000000000
28.475614540000,1.787000000000
28.483302498000,0.777000000000
28.490990456000,-0.430000000000
28.498678414000,-0.482000000000
28.506366372000,-0.083000000000
28.514054330000,-0.177000000000
28.521742288000,-0.270000000000
28.529430246000,-0.155000000000
28.537118204000,-0.140000000000
28.544806162000,-0.167000000000
28.552494120000,-0.118000000000
28.560182078000,-0.091000000000
28.567870036000,-0.091000000000
28.575557994000,-0.071000000000
28.583245952000,-0.051000000000
28.590933910000,-0.039000000000
28.598621868000,-0.012000000000
28.606309826000,0.009000000000
28.613997784000,0.027000000000
28.621685742000,0.044000000000
28.629373700000,0.068000000000
28.637061658000,0.110000000000
28.644749616000,0.142000000000
28.652437574000,0.152000000000
28.660125532000,0.174000000000
28.667813490000,0.204000000000
28.675501448000,0.211000000000
28.683189406000,0.206000000000
28.690877364000,0.199000000000
28.698565325000,0.177000000000
28.706253004000,0.155000000000
28.713940683000,0.123000000000
28.721628362000,0.066000000000
28.729316041000,-0.012000000000
28.737003720000,-0.086000000000
28.744691399000,-0.142000000000
28.752379078000,-0.187000000000
28.760066757000,-0.211000000000
28.767754436000,-0.219000000000
28.775442115000,-0.219000000000
28.783129794000,-0.224000000000
28.790817473000,-0.216000000000
28.798505152000,-0.189000000000
28.806192831000,-0.169000000000
28.813880510000,-0.174000000000
28.821568189000,-0.174000000000
28.829255868000,-0.157000000000
28.836943547000,-0.137000000000
28.844631226000,-0.135000000000
28.852318905000,-0.132000000000
28.860006584000,-0.125000000000
28.867694263000,-0.123000000000
28.875381942000,-0.123000000000
28.883069621000,-0.115000000000
28.890757300000,-0.113000000000
28.898444979000,-0.110000000000
28.906132658000,-0.108000000000
28.913820337000,-0.113000000000
28.921508016000,-0.113000000000
28.929195695000,-0.105000000000
28.936883374000,-0.105000000000
28.944571053000,-0.110000000000
28.952258732000,-0.108000000000
28.959946411000,-0.100000000000
28.967634090000,-0.096000000000
28.975321769000,-0.105000000000
28.983009448000,-0.115000000000
28.990697127000,-0.115000000000
28.998384806000,-0.113000000000
29.006072485000,-0.105000000000
29.013760164000,-0.083000000000
29.021447843000,-0.071000000000
29.029135522000,-0.076000000000
29.036823201000,-0.073000000000
29.044510880000,-0.061000000000
29.052198559000,-0.076000000000
29.059886238000,-0.103000000000
29.067573917000,-0.103000000000
29.075261596000,-0.096000000000
29.082949275000,-0.098000000000
29.090636954000,-0.081000000000
29.098324633000,-0.066000000000
29.106012312000,-0.081000000000
29.113699991000,-0.103000000000
29.121387670000,-0.147000000000
29.129075349000,-0.231000000000
29.136763028000,-0.206000000000
29.144450707000,0.256000000000
29.152138386000,1.100000000000
29.159826065000,1.769000000000
29.167513744000,1.550000000000
29.175201423000,0.322000000000
29.182889102000,-0.583000000000
29.190576781000,-0.352000000000
29.198264460000,-0.086000000000
29.205952139000,-0.243000000000
29.213639818000,-0.238000000000
29.221327497000,-0.130000000000
29.229015176000,-0.155000000000
29.236702855000,-0.164000000000
29.244390534000,-0.118000000000
29.252078213000,-0.110000000000
29.259765914000,-0.103000000000
29.267453732000,-0.071000000000
29.275141550000,-0.051000000000
29.282829368000,-0.041000000000
29.290517186000,-0.019000000000
29.298205004000,0.004000000000
29.305892822000,0.019000000000
29.313580640000,0.036000000000
29.321268458000,0.068000000000
29.328956276000,0.096000000000
