time,LSB
0.000000000000,1.917000000000
0.007686355000,1.174000000000
0.015372710000,-0.322000000000
0.023059065000,-0.706000000000
0.030745420000,-0.162000000000
0.038431775000,-0.132000000000
0.046118130000,-0.317000000000
0.053804485000,-0.206000000000
0.061490840000,-0.150000000000
0.069177195000,-0.204000000000
0.076863550000,-0.172000000000
0.084549905000,-0.125000000000
0.092236260000,-0.128000000000
0.099922615000,-0.113000000000
0.107608970000,-0.081000000000
0.115295362000,-0.066000000000
0.122981996000,-0.049000000000
0.130668630000,-0.019000000000
0.138355264000,0.007000000000
0.146041898000,0.034000000000
0.153728532000,0.066000000000
0.161415166000,0.100000000000
0.169101800000,0.140000000000
0.176788434000,0.177000000000
0.184475068000,0.211000000000
0.192161702000,0.236000000000
0.199848336000,0.246000000000
0.207534970000,0.241000000000
0.215221604000,0.228000000000
0.222908238000,0.204000000000
0.230594872000,0.174000000000
0.238281506000,0.135000000000
0.245968140000,0.073000000000
0.253654774000,0.000000000000
0.261341408000,-0.076000000000
0.269028042000,-0.145000000000
0.276714676000,-0.204000000000
0.284401310000,-0.241000000000
0.292087944000,-0.263000000000
0.299774578000,-0.273000000000
0.307461212000,-0.270000000000
0.315147846000,-0.263000000000
0.322834480000,-0.251000000000
0.330521114000,-0.238000000000
0.338207748000,-0.224000000000
0.345894382000,-0.209000000000
0.353581016000,-0.199000000000
0.361267650000,-0.196000000000
0.368954284000,-0.194000000000
0.376640918000,-0.189000000000
0.384327552000,-0.187000000000
0.392014186000,-0.187000000000
0.399700820000,-0.187000000000
0.407387454000,-0.184000000000
0.415074088000,-0.184000000000
0.422760722000,-0.184000000000
0.430447356000,-0.182000000000
0.438133990000,-0.182000000000
0.445820624000,-0.179000000000
0.453507258000,-0.179000000000
0.461193892000,-0.179000000000
0.468880526000,-0.177000000000
0.476567160000,-0.174000000000
0.484253794000,-0.169000000000
0.491940428000,-0.167000000000
0.499627062000,-0.164000000000
0.507313696000,-0.162000000000
0.515000330000,-0.162000000000
0.522686964000,-0.160000000000
0.530373598000,-0.155000000000
0.538060232000,-0.150000000000
0.545746866000,-0.145000000000
0.553433500000,-0.142000000000
0.561120134000,-0.137000000000
0.568806768000,-0.135000000000
0.576493402000,-0.132000000000
0.584180036000,-0.130000000000
0.591866670000,-0.118000000000
0.599553304000,-0.096000000000
0.607239938000,-0.071000000000
0.614926572000,-0.066000000000
0.622613206000,-0.071000000000
0.630299840000,-0.071000000000
0.637986474000,-0.081000000000
0.645673108000,-0.118000000000
0.653359742000,-0.137000000000
0.661046376000,-0.125000000000
0.668733010000,-0.118000000000
0.676419654000,-0.123000000000
0.684105939000,-0.123000000000
0.691792224000,-0.118000000000
0.699478509000,-0.115000000000
0.707164794000,-0.120000000000
0.714851079000,-0.140000000000
0.722537364000,-0.201000000000
0.730223649000,-0.241000000000
0.737909934000,-0.012000000000
0.745596219000,0.630000000000
0.753282504000,1.459000000000
0.760968789000,1.905000000000
0.768655074000,1.144000000000
0.776341359000,-0.332000000000
0.784027644000,-0.696000000000
0.791713929000,-0.169000000000
0.799400214000,-0.145000000000
0.807086499000,-0.317000000000
0.814772784000,-0.201000000000
0.822459069000,-0.145000000000
0.830145354000,-0.196000000000
0.837831639000,-0.162000000000
0.845517924000,-0.115000000000
0.853204209000,-0.115000000000
0.860890494000,-0.098000000000
0.868576779000,-0.066000000000
0.876263064000,-0.049000000000
0.883949349000,-0.029000000000
0.891635634000,0.000000000000
0.899321919000,0.029000000000
0.907008204000,0.059000000000
0.914694489000,0.091000000000
0.922380774000,0.128000000000
0.930067059000,0.164000000000
0.937753344000,0.196000000000
0.945439629000,0.228000000000
0.953125914000,0.258000000000
0.960812199000,0.273000000000
0.968498484000,0.270000000000
0.976184769000,0.258000000000
0.983871054000,0.233000000000
0.991557339000,0.204000000000
0.999243624000,0.169000000000
1.006929909000,0.108000000000
1.014616194000,0.022000000000
1.022302479000,-0.059000000000
1.029988764000,-0.128000000000
1.037675049000,-0.187000000000
1.045361334000,-0.228000000000
1.053047619000,-0.248000000000
1.060733904000,-0.256000000000
1.068420189000,-0.253000000000
1.076106474000,-0.248000000000
1.083792759000,-0.238000000000
1.091479044000,-0.231000000000
1.099165329000,-0.221000000000
1.106851614000,-0.204000000000
1.114537899000,-0.187000000000
1.122224184000,-0.187000000000
1.129910469000,-0.184000000000
1.137596754000,-0.169000000000
1.145283039000,-0.162000000000
1.152969324000,-0.164000000000
1.160655609000,-0.160000000000
1.168341894000,-0.152000000000
1.176028179000,-0.155000000000
1.183714464000,-0.155000000000
1.191400749000,-0.152000000000
1.199087034000,-0.155000000000
1.206773319000,-0.157000000000
1.214459604000,-0.152000000000
1.222145889000,-0.150000000000
1.229832174000,-0.150000000000
1.237518515000,-0.142000000000
1.245205218000,-0.142000000000
1.252891921000,-0.142000000000
1.260578624000,-0.142000000000
1.268265327000,-0.137000000000
1.275952030000,-0.135000000000
1.283638733000,-0.132000000000
1.291325436000,-0.132000000000
1.299012139000,-0.130000000000
1.306698842000,-0.123000000000
1.314385545000,-0.120000000000
1.322072248000,-0.115000000000
1.329758951000,-0.110000000000
1.337445654000,-0.120000000000
1.345132357000,-0.125000000000
1.352819060000,-0.105000000000
1.360505763000,-0.073000000000
1.368192466000,-0.046000000000
1.375879169000,-0.046000000000
1.383565872000,-0.064000000000
1.391252575000,-0.056000000000
1.398939278000,-0.059000000000
1.406625981000,-0.098000000000
1.414312684000,-0.120000000000
1.421999387000,-0.108000000000
1.429686090000,-0.103000000000
1.437372793000,-0.105000000000
1.445059496000,-0.103000000000
1.452746199000,-0.096000000000
1.460432902000,-0.093000000000
1.468119605000,-0.098000000000
1.475806308000,-0.113000000000
1.483493011000,-0.164000000000
1.491179714000,-0.209000000000
1.498866417000,0.009000000000
1.506553120000,0.667000000000
1.514239823000,1.494000000000
1.521926526000,1.883000000000
1.529613229000,1.090000000000
1.537299932000,-0.349000000000
1.544986635000,-0.669000000000
1.552673338000,-0.142000000000
1.560360041000,-0.125000000000
1.568046744000,-0.283000000000
1.575733447000,-0.160000000000
1.583420150000,-0.110000000000
1.591106853000,-0.164000000000
1.598793556000,-0.125000000000
1.606480259000,-0.078000000000
1.614166962000,-0.088000000000
1.621853665000,-0.071000000000
1.629540368000,-0.036000000000
1.637227071000,-0.019000000000
1.644913774000,-0.004000000000
1.652600477000,0.024000000000
1.660287180000,0.059000000000
1.667973883000,0.091000000000
1.675660586000,0.118000000000
1.683347289000,0.147000000000
1.691033992000,0.184000000000
1.698720695000,0.226000000000
1.706407398000,0.263000000000
1.714094101000,0.285000000000
1.721780804000,0.290000000000
1.729467507000,0.283000000000
1.737154210000,0.268000000000
1.744840913000,0.251000000000
1.752527616000,0.214000000000
1.760214319000,0.162000000000
1.767901022000,0.105000000000
1.775587725000,0.032000000000
1.783274428000,-0.049000000000
1.790961131000,-0.118000000000
1.798647894000,-0.174000000000
1.806334528000,-0.221000000000
1.814021162000,-0.246000000000
1.821707796000,-0.253000000000
1.829394430000,-0.253000000000
1.837081064000,-0.251000000000
1.844767698000,-0.243000000000
1.852454332000,-0.228000000000
1.860140966000,-0.209000000000
1.867827600000,-0.194000000000
1.875514234000,-0.192000000000
1.883200868000,-0.187000000000
1.890887502000,-0.177000000000
1.898574136000,-0.169000000000
1.906260770000,-0.162000000000
1.913947404000,-0.155000000000
1.921634038000,-0.152000000000
1.929320672000,-0.152000000000
1.937007306000,-0.152000000000
1.944693940000,-0.150000000000
1.952380574000,-0.152000000000
1.960067208000,-0.150000000000
1.967753842000,-0.145000000000
1.975440476000,-0.147000000000
1.983127110000,-0.147000000000
1.990813744000,-0.142000000000
1.998500378000,-0.140000000000
2.006187012000,-0.140000000000
2.013873646000,-0.135000000000
2.021560280000,-0.132000000000
2.029246914000,-0.130000000000
2.036933548000,-0.130000000000
2.044620182000,-0.128000000000
2.052306816000,-0.128000000000
2.059993450000,-0.125000000000
2.067680084000,-0.125000000000
2.075366718000,-0.128000000000
2.083053352000,-0.118000000000
2.090739986000,-0.096000000000
2.098426620000,-0.078000000000
2.106113254000,-0.071000000000
2.113799888000,-0.064000000000
2.121486522000,-0.068000000000
2.129173156000,-0.100000000000
2.136859790000,-0.125000000000
2.144546424000,-0.120000000000
2.152233058000,-0.110000000000
2.159919692000,-0.105000000000
2.167606326000,-0.098000000000
2.175292960000,-0.091000000000
2.182979594000,-0.093000000000
2.190666228000,-0.103000000000
2.198352862000,-0.123000000000
2.206039496000,-0.169000000000
2.213726130000,-0.219000000000
2.221412764000,-0.056000000000
2.229099398000,0.539000000000
2.236786032000,1.378000000000
2.244472666000,1.895000000000
2.252159300000,1.292000000000
2.259845934000,-0.189000000000
2.267532568000,-0.738000000000
2.275219202000,-0.214000000000
2.282905836000,-0.098000000000
2.290592470000,-0.292000000000
2.298279104000,-0.201000000000
2.305965738000,-0.128000000000
2.313652372000,-0.179000000000
2.321339006000,-0.152000000000
2.329025640000,-0.100000000000
2.336712274000,-0.100000000000
2.344398908000,-0.091000000000
2.352085542000,-0.061000000000
2.359772190000,-0.046000000000
2.367458545000,-0.029000000000
2.375144900000,-0.002000000000
2.382831255000,0.022000000000
2.390517610000,0.049000000000
2.398203965000,0.081000000000
2.405890320000,0.113000000000
2.413576675000,0.147000000000
2.421263030000,0.187000000000
2.428949385000,0.224000000000
2.436635740000,0.248000000000
2.444322095000,0.258000000000
2.452008450000,0.253000000000
2.459694805000,0.233000000000
2.467381160000,0.211000000000
2.475067515000,0.179000000000
2.482753870000,0.132000000000
2.490440225000,0.073000000000
2.498126580000,0.004000000000
2.505812935000,-0.071000000000
2.513499290000,-0.135000000000
2.521185645000,-0.187000000000
2.528872000000,-0.219000000000
2.536558355000,-0.241000000000
2.544244710000,-0.256000000000
2.551931065000,-0.263000000000
2.559617420000,-0.258000000000
2.567303775000,-0.246000000000
2.574990130000,-0.231000000000
2.582676485000,-0.216000000000
2.590362840000,-0.204000000000
2.598049195000,-0.196000000000
2.605735550000,-0.189000000000
2.613421905000,-0.182000000000
2.621108260000,-0.177000000000
2.628794615000,-0.172000000000
2.636480970000,-0.162000000000
2.644167325000,-0.157000000000
2.651853680000,-0.155000000000
2.659540035000,-0.147000000000
2.667226390000,-0.145000000000
2.674912745000,-0.150000000000
2.682599100000,-0.152000000000
2.690285455000,-0.150000000000
2.697971810000,-0.152000000000
2.705658165000,-0.155000000000
2.713344520000,-0.150000000000
2.721030875000,-0.150000000000
2.728717230000,-0.152000000000
2.736403585000,-0.150000000000
2.744089940000,-0.145000000000
2.751776295000,-0.140000000000
2.759462650000,-0.137000000000
2.767149005000,-0.135000000000
2.774835360000,-0.128000000000
2.782521715000,-0.125000000000
2.790208070000,-0.123000000000
2.797894425000,-0.115000000000
2.805580780000,-0.115000000000
2.813267135000,-0.120000000000
2.820953490000,-0.123000000000
2.828639845000,-0.110000000000
2.836326200000,-0.093000000000
2.844012555000,-0.081000000000
2.851698910000,-0.078000000000
2.859385265000,-0.064000000000
2.867071620000,-0.051000000000
2.874757975000,-0.073000000000
2.882444330000,-0.105000000000
2.890130685000,-0.113000000000
2.897817040000,-0.103000000000
2.905503395000,-0.098000000000
2.913189750000,-0.098000000000
2.920876134000,-0.091000000000
2.928562837000,-0.083000000000
2.936249540000,-0.091000000000
2.943936243000,-0.108000000000
2.951622946000,-0.147000000000
2.959309649000,-0.209000000000
2.966996352000,-0.128000000000
2.974683055000,0.342000000000
2.982369758000,1.132000000000
2.990056461000,1.831000000000
2.997743164000,1.634000000000
3.005429867000,0.233000000000
3.013116570000,-0.753000000000
3.020803273000,-0.371000000000
3.028489976000,-0.051000000000
3.036176679000,-0.275000000000
3.043863382000,-0.273000000000
3.051550085000,-0.145000000000
3.059236788000,-0.184000000000
3.066923491000,-0.192000000000
3.074610194000,-0.125000000000
3.082296897000,-0.118000000000
3.089983600000,-0.120000000000
3.097670303000,-0.088000000000
3.105357006000,-0.064000000000
3.113043709000,-0.049000000000
3.120730412000,-0.024000000000
3.128417115000,0.002000000000
3.136103818000,0.029000000000
3.143790521000,0.064000000000
3.151477224000,0.096000000000
3.159163927000,0.130000000000
3.166850630000,0.172000000000
3.174537333000,0.206000000000
3.182224036000,0.228000000000
3.189910739000,0.243000000000
3.197597442000,0.248000000000
3.205284145000,0.238000000000
3.212970848000,0.221000000000
3.220657551000,0.192000000000
3.228344254000,0.155000000000
3.236030957000,0.105000000000
3.243717660000,0.036000000000
3.251404363000,-0.039000000000
3.259091066000,-0.110000000000
3.266777769000,-0.174000000000
3.274464472000,-0.221000000000
3.282151175000,-0.248000000000
3.289837878000,-0.263000000000
3.297524581000,-0.270000000000
3.305211284000,-0.265000000000
3.312897987000,-0.256000000000
3.320584690000,-0.243000000000
3.328271393000,-0.231000000000
3.335958096000,-0.216000000000
3.343644799000,-0.204000000000
3.351331502000,-0.194000000000
3.359018205000,-0.189000000000
3.366704908000,-0.187000000000
3.374391611000,-0.187000000000
3.382078314000,-0.196000000000
3.389765017000,-0.196000000000
3.397451720000,-0.194000000000
3.405138423000,-0.192000000000
3.412825126000,-0.187000000000
3.420511829000,-0.182000000000
3.428198532000,-0.182000000000
3.435885235000,-0.179000000000
3.443571938000,-0.177000000000
3.451258641000,-0.174000000000
3.458945344000,-0.174000000000
3.466632047000,-0.172000000000
3.474318750000,-0.167000000000
3.482005517000,-0.162000000000
3.489691802000,-0.160000000000
3.497378087000,-0.155000000000
3.505064372000,-0.147000000000
3.512750657000,-0.142000000000
3.520436942000,-0.142000000000
3.528123227000,-0.132000000000
3.535809512000,-0.128000000000
3.543495797000,-0.128000000000
3.551182082000,-0.125000000000
3.558868367000,-0.125000000000
3.566554652000,-0.132000000000
3.574240937000,-0.130000000000
3.581927222000,-0.118000000000
3.589613507000,-0.098000000000
3.597299792000,-0.086000000000
3.604986077000,-0.076000000000
3.612672362000,-0.068000000000
3.620358647000,-0.071000000000
3.628044932000,-0.093000000000
3.635731217000,-0.118000000000
3.643417502000,-0.120000000000
3.651103787000,-0.113000000000
3.658790072000,-0.113000000000
3.666476357000,-0.115000000000
3.674162642000,-0.115000000000
3.681848927000,-0.110000000000
3.689535212000,-0.113000000000
3.697221497000,-0.132000000000
3.704907782000,-0.187000000000
3.712594067000,-0.228000000000
3.720280352000,-0.049000000000
3.727966637000,0.534000000000
3.735652922000,1.351000000000
3.743339207000,1.888000000000
3.751025492000,1.282000000000
3.758711777000,-0.211000000000
3.766398062000,-0.740000000000
3.774084347000,-0.214000000000
3.781770632000,-0.120000000000
3.789456917000,-0.320000000000
3.797143202000,-0.226000000000
3.804829487000,-0.152000000000
3.812515772000,-0.209000000000
3.820202057000,-0.187000000000
3.827888342000,-0.135000000000
3.835574627000,-0.135000000000
3.843260912000,-0.120000000000
3.850947197000,-0.088000000000
3.858633482000,-0.068000000000
3.866319767000,-0.051000000000
3.874006052000,-0.024000000000
3.881692337000,0.002000000000
3.889378622000,0.029000000000
3.897064907000,0.061000000000
3.904751192000,0.093000000000
3.912437477000,0.128000000000
3.920123762000,0.172000000000
3.927810047000,0.211000000000
3.935496332000,0.236000000000
3.943182617000,0.246000000000
3.950868902000,0.243000000000
3.958555187000,0.228000000000
3.966241472000,0.206000000000
3.973927757000,0.179000000000
3.981614042000,0.142000000000
3.989300327000,0.091000000000
3.996986612000,0.024000000000
4.004672897000,-0.054000000000
4.012359182000,-0.125000000000
4.020045467000,-0.179000000000
4.027731752000,-0.219000000000
4.035418037000,-0.241000000000
4.043104378000,-0.253000000000
4.050791081000,-0.253000000000
4.058477784000,-0.246000000000
4.066164487000,-0.233000000000
4.073851190000,-0.221000000000
4.081537893000,-0.209000000000
4.089224596000,-0.199000000000
4.096911299000,-0.192000000000
4.104598002000,-0.184000000000
4.112284705000,-0.177000000000
4.119971408000,-0.174000000000
4.127658111000,-0.174000000000
4.135344814000,-0.174000000000
4.143031517000,-0.169000000000
4.150718220000,-0.169000000000
4.158404923000,-0.172000000000
4.166091626000,-0.172000000000
4.173778329000,-0.167000000000
4.181465032000,-0.162000000000
4.189151735000,-0.162000000000
4.196838438000,-0.160000000000
4.204525141000,-0.160000000000
4.212211844000,-0.160000000000
4.219898547000,-0.157000000000
4.227585250000,-0.157000000000
4.235271953000,-0.157000000000
4.242958656000,-0.152000000000
4.250645359000,-0.145000000000
4.258332062000,-0.147000000000
4.266018765000,-0.147000000000
4.273705468000,-0.140000000000
4.281392171000,-0.128000000000
4.289078874000,-0.123000000000
4.296765577000,-0.128000000000
4.304452280000,-0.130000000000
4.312138983000,-0.118000000000
4.319825686000,-0.098000000000
4.327512389000,-0.081000000000
4.335199092000,-0.071000000000
4.342885795000,-0.059000000000
4.350572498000,-0.056000000000
4.358259201000,-0.076000000000
4.365945904000,-0.108000000000
4.373632607000,-0.120000000000
4.381319310000,-0.108000000000
4.389006013000,-0.103000000000
4.396692716000,-0.105000000000
4.404379419000,-0.096000000000
4.412066122000,-0.083000000000
4.419752825000,-0.083000000000
4.427439528000,-0.093000000000
4.435126231000,-0.132000000000
4.442812934000,-0.211000000000
4.450499637000,-0.184000000000
4.458186340000,0.196000000000
4.465873043000,0.950000000000
4.473559746000,1.728000000000
4.481246449000,1.809000000000
4.488933152000,0.612000000000
4.496619855000,-0.632000000000
4.504306558000,-0.502000000000
4.511993261000,-0.054000000000
4.519679964000,-0.201000000000
4.527366667000,-0.265000000000
4.535053370000,-0.132000000000
4.542740073000,-0.140000000000
4.550426776000,-0.164000000000
4.558113479000,-0.113000000000
4.565800182000,-0.093000000000
4.573486885000,-0.093000000000
4.581173588000,-0.068000000000
4.588860291000,-0.041000000000
4.596546994000,-0.022000000000
4.604233757000,-0.002000000000
4.611920321000,0.022000000000
4.619606885000,0.054000000000
4.627293449000,0.083000000000
4.634980013000,0.115000000000
4.642666577000,0.152000000000
4.650353141000,0.184000000000
4.658039705000,0.216000000000
4.665726269000,0.243000000000
4.673412833000,0.258000000000
4.681099397000,0.265000000000
4.688785961000,0.265000000000
4.696472525000,0.248000000000
4.704159089000,0.219000000000
4.711845653000,0.182000000000
4.719532217000,0.135000000000
4.727218781000,0.068000000000
4.734905345000,-0.007000000000
4.742591909000,-0.078000000000
4.750278473000,-0.140000000000
4.757965037000,-0.192000000000
4.765651601000,-0.219000000000
4.773338165000,-0.231000000000
4.781024729000,-0.233000000000
4.788711293000,-0.228000000000
4.796397857000,-0.228000000000
4.804084421000,-0.228000000000
4.811770985000,-0.214000000000
4.819457549000,-0.192000000000
4.827144113000,-0.182000000000
4.834830677000,-0.177000000000
4.842517241000,-0.169000000000
4.850203805000,-0.164000000000
4.857890369000,-0.155000000000
4.865576933000,-0.145000000000
4.873263497000,-0.130000000000
4.880950061000,-0.123000000000
4.888636625000,-0.125000000000
4.896323189000,-0.128000000000
4.904009753000,-0.128000000000
4.911696317000,-0.135000000000
4.919382881000,-0.135000000000
4.927069445000,-0.130000000000
4.934756009000,-0.128000000000
4.942442573000,-0.123000000000
4.950129137000,-0.118000000000
4.957815701000,-0.115000000000
4.965502265000,-0.115000000000
4.973188829000,-0.118000000000
4.980875393000,-0.125000000000
4.988561957000,-0.135000000000
4.996248521000,-0.128000000000
5.003935085000,-0.113000000000
5.011621649000,-0.120000000000
5.019308213000,-0.130000000000
5.026994777000,-0.125000000000
5.034681341000,-0.108000000000
5.042367905000,-0.088000000000
5.050054469000,-0.073000000000
5.057741033000,-0.068000000000
5.065427597000,-0.056000000000
5.073114161000,-0.061000000000
5.080800725000,-0.096000000000
5.088487289000,-0.118000000000
5.096173853000,-0.110000000000
5.103860417000,-0.108000000000
5.111546981000,-0.108000000000
5.119233545000,-0.098000000000
5.126920109000,-0.088000000000
5.134606673000,-0.081000000000
5.142293237000,-0.093000000000
5.149979801000,-0.125000000000
5.157666365000,-0.184000000000
5.165352966000,-0.219000000000
5.173039391000,0.017000000000
5.180725816000,0.694000000000
5.188412241000,1.521000000000
5.196098666000,1.868000000000
5.203785091000,1.011000000000
5.211471516000,-0.416000000000
5.219157941000,-0.659000000000
5.226844366000,-0.125000000000
5.234530791000,-0.140000000000
5.242217216000,-0.288000000000
5.249903641000,-0.164000000000
5.257590066000,-0.128000000000
5.265276491000,-0.169000000000
5.272962916000,-0.125000000000
5.280649341000,-0.091000000000
5.288335766000,-0.093000000000
5.296022191000,-0.064000000000
5.303708616000,-0.027000000000
5.311395041000,-0.024000000000
5.319081466000,-0.007000000000
5.326767891000,0.034000000000
5.334454316000,0.059000000000
5.342140741000,0.073000000000
5.349827166000,0.108000000000
5.357513591000,0.155000000000
5.365200016000,0.184000000000
5.372886441000,0.219000000000
5.380572866000,0.258000000000
5.388259291000,0.283000000000
5.395945716000,0.275000000000
5.403632141000,0.258000000000
5.411318566000,0.246000000000
5.419004991000,0.224000000000
5.426691416000,0.184000000000
5.434377841000,0.137000000000
5.442064266000,0.076000000000
5.449750691000,-0.002000000000
5.457437116000,-0.083000000000
5.465123541000,-0.152000000000
5.472809966000,-0.204000000000
5.480496391000,-0.241000000000
5.488182816000,-0.258000000000
5.495869241000,-0.265000000000
5.503555666000,-0.268000000000
5.511242091000,-0.263000000000
5.518928516000,-0.248000000000
5.526614941000,-0.233000000000
5.534301366000,-0.224000000000
5.541987791000,-0.216000000000
5.549674216000,-0.206000000000
5.557360641000,-0.196000000000
5.565047066000,-0.192000000000
5.572733491000,-0.184000000000
5.580419916000,-0.179000000000
5.588106341000,-0.174000000000
5.595792766000,-0.172000000000
5.603479191000,-0.169000000000
5.611165616000,-0.167000000000
5.618852041000,-0.164000000000
5.626538466000,-0.164000000000
5.634224891000,-0.167000000000
5.641911316000,-0.167000000000
5.649597741000,-0.160000000000
5.657284166000,-0.160000000000
5.664970591000,-0.162000000000
5.672657016000,-0.157000000000
5.680343441000,-0.150000000000
5.688029866000,-0.147000000000
5.695716291000,-0.150000000000
5.703402716000,-0.147000000000
5.711089141000,-0.145000000000
5.718775566000,-0.152000000000
5.726461997000,-0.155000000000
5.734148700000,-0.145000000000
5.741835403000,-0.128000000000
5.749522106000,-0.113000000000
5.757208809000,-0.100000000000
5.764895512000,-0.083000000000
5.772582215000,-0.076000000000
5.780268918000,-0.096000000000
5.787955621000,-0.130000000000
5.795642324000,-0.145000000000
5.803329027000,-0.135000000000
5.811015730000,-0.128000000000
5.818702433000,-0.128000000000
5.826389136000,-0.123000000000
5.834075839000,-0.113000000000
5.841762542000,-0.115000000000
5.849449245000,-0.132000000000
5.857135948000,-0.169000000000
5.864822651000,-0.236000000000
5.872509354000,-0.228000000000
5.880196057000,0.128000000000
5.887882760000,0.888000000000
5.895569463000,1.686000000000
5.903256166000,1.797000000000
5.910942869000,0.622000000000
5.918629572000,-0.664000000000
5.926316275000,-0.563000000000
5.934002978000,-0.091000000000
5.941689681000,-0.236000000000
5.949376384000,-0.312000000000
5.957063087000,-0.172000000000
5.964749790000,-0.182000000000
5.972436493000,-0.214000000000
5.980123196000,-0.155000000000
5.987809899000,-0.130000000000
5.995496602000,-0.132000000000
6.003183305000,-0.103000000000
6.010870008000,-0.078000000000
6.018556711000,-0.068000000000
6.026243414000,-0.049000000000
6.033930117000,-0.014000000000
6.041616820000,0.019000000000
6.049303523000,0.051000000000
6.056990226000,0.083000000000
6.064676929000,0.115000000000
6.072363632000,0.147000000000
6.080050335000,0.177000000000
6.087737038000,0.206000000000
6.095423741000,0.226000000000
6.103110444000,0.226000000000
6.110797147000,0.214000000000
6.118483850000,0.194000000000
6.126170553000,0.169000000000
6.133857256000,0.130000000000
6.141543959000,0.076000000000
6.149230662000,0.004000000000
6.156917365000,-0.071000000000
6.164604068000,-0.145000000000
6.172290771000,-0.206000000000
6.179977474000,-0.251000000000
6.187664177000,-0.278000000000
6.195350880000,-0.290000000000
6.203037583000,-0.295000000000
6.210724286000,-0.292000000000
6.218410989000,-0.285000000000
6.226097692000,-0.270000000000
6.233784395000,-0.260000000000
6.241471098000,-0.251000000000
6.249157801000,-0.241000000000
6.256844504000,-0.233000000000
6.264531207000,-0.224000000000
6.272217910000,-0.216000000000
6.279904613000,-0.209000000000
6.287591376000,-0.206000000000
6.295277731000,-0.201000000000
6.302964086000,-0.199000000000
6.310650441000,-0.194000000000
6.318336796000,-0.194000000000
6.326023151000,-0.196000000000
6.333709506000,-0.196000000000
6.341395861000,-0.194000000000
6.349082216000,-0.194000000000
6.356768571000,-0.196000000000
6.364454926000,-0.194000000000
6.372141281000,-0.192000000000
6.379827636000,-0.192000000000
6.387513991000,-0.192000000000
6.395200346000,-0.189000000000
6.402886701000,-0.184000000000
6.410573056000,-0.182000000000
6.418259411000,-0.177000000000
6.425945766000,-0.169000000000
6.433632121000,-0.162000000000
6.441318476000,-0.157000000000
6.449004831000,-0.157000000000
6.456691186000,-0.162000000000
6.464377541000,-0.167000000000
6.472063896000,-0.155000000000
6.479750251000,-0.137000000000
6.487436606000,-0.125000000000
6.495122961000,-0.120000000000
6.502809316000,-0.108000000000
6.510495671000,-0.098000000000
6.518182026000,-0.113000000000
6.525868381000,-0.145000000000
6.533554736000,-0.162000000000
6.541241091000,-0.150000000000
6.548927446000,-0.135000000000
6.556613801000,-0.132000000000
6.564300156000,-0.137000000000
6.571986511000,-0.140000000000
6.579672866000,-0.140000000000
6.587359221000,-0.150000000000
6.595045576000,-0.184000000000
6.602731931000,-0.246000000000
6.610418286000,-0.187000000000
6.618104641000,0.251000000000
6.625790996000,1.031000000000
6.633477351000,1.769000000000
6.641163706000,1.673000000000
6.648850061000,0.327000000000
6.656536416000,-0.758000000000
6.664222771000,-0.448000000000
6.671909126000,-0.078000000000
6.679595481000,-0.285000000000
6.687281836000,-0.305000000000
6.694968191000,-0.172000000000
6.702654546000,-0.206000000000
6.710340901000,-0.219000000000
6.718027256000,-0.157000000000
6.725713611000,-0.142000000000
6.733399966000,-0.142000000000
6.741086321000,-0.110000000000
6.748772676000,-0.088000000000
6.756459031000,-0.073000000000
6.764145386000,-0.049000000000
6.771831741000,-0.022000000000
6.779518096000,0.002000000000
6.787204451000,0.032000000000
6.794890806000,0.064000000000
6.802577161000,0.100000000000
6.810263516000,0.137000000000
6.817949871000,0.169000000000
6.825636226000,0.196000000000
6.833322581000,0.214000000000
6.841008936000,0.216000000000
6.848695328000,0.204000000000
6.856381962000,0.184000000000
6.864068596000,0.157000000000
6.871755230000,0.123000000000
6.879441864000,0.073000000000
6.887128498000,0.012000000000
6.894815132000,-0.061000000000
6.902501766000,-0.130000000000
6.910188400000,-0.189000000000
6.917875034000,-0.236000000000
6.925561668000,-0.268000000000
6.933248302000,-0.280000000000
6.940934936000,-0.280000000000
6.948621570000,-0.280000000000
6.956308204000,-0.273000000000
6.963994838000,-0.258000000000
6.971681472000,-0.246000000000
6.979368106000,-0.236000000000
6.987054740000,-0.226000000000
6.994741374000,-0.216000000000
7.002428008000,-0.206000000000
7.010114642000,-0.199000000000
7.017801276000,-0.196000000000
7.025487910000,-0.192000000000
7.033174544000,-0.189000000000
7.040861178000,-0.187000000000
7.048547812000,-0.184000000000
7.056234446000,-0.184000000000
7.063921080000,-0.187000000000
7.071607714000,-0.187000000000
7.079294348000,-0.187000000000
7.086980982000,-0.187000000000
7.094667616000,-0.187000000000
7.102354250000,-0.187000000000
7.110040884000,-0.179000000000
7.117727518000,-0.174000000000
7.125414152000,-0.169000000000
7.133100786000,-0.167000000000
7.140787420000,-0.162000000000
7.148474054000,-0.160000000000
7.156160688000,-0.155000000000
7.163847322000,-0.155000000000
7.171533956000,-0.147000000000
7.179220590000,-0.145000000000
7.186907224000,-0.147000000000
7.194593858000,-0.152000000000
7.202280492000,-0.157000000000
7.209967126000,-0.157000000000
7.217653760000,-0.147000000000
7.225340394000,-0.128000000000
7.233027028000,-0.110000000000
7.240713662000,-0.100000000000
7.248400296000,-0.091000000000
7.256086930000,-0.081000000000
7.263773564000,-0.091000000000
7.271460198000,-0.123000000000
7.279146832000,-0.142000000000
7.286833466000,-0.135000000000
7.294520100000,-0.130000000000
7.302206734000,-0.130000000000
7.309893368000,-0.125000000000
7.317580002000,-0.120000000000
7.325266636000,-0.120000000000
7.332953270000,-0.135000000000
7.340639904000,-0.172000000000
7.348326538000,-0.236000000000
7.356013172000,-0.199000000000
7.363699806000,0.187000000000
7.371386440000,0.930000000000
7.379073074000,1.696000000000
7.386759708000,1.745000000000
7.394446342000,0.516000000000
7.402132976000,-0.686000000000
7.409819620000,-0.509000000000
7.417506114000,-0.086000000000
7.425192608000,-0.256000000000
7.432879102000,-0.305000000000
7.440565596000,-0.169000000000
7.448252090000,-0.189000000000
7.455938584000,-0.211000000000
7.463625078000,-0.152000000000
7.471311572000,-0.130000000000
7.478998066000,-0.130000000000
7.486684560000,-0.100000000000
7.494371054000,-0.076000000000
7.502057548000,-0.061000000000
7.509744042000,-0.036000000000
7.517430536000,-0.007000000000
7.525117030000,0.014000000000
7.532803524000,0.046000000000
7.540490018000,0.081000000000
7.548176512000,0.110000000000
7.555863006000,0.145000000000
7.563549500000,0.184000000000
7.571235994000,0.211000000000
7.578922488000,0.226000000000
7.586608982000,0.231000000000
7.594295476000,0.226000000000
7.601981970000,0.209000000000
7.609668464000,0.182000000000
7.617354958000,0.147000000000
7.625041452000,0.100000000000
7.632727946000,0.039000000000
7.640414440000,-0.029000000000
7.648100934000,-0.098000000000
7.655787428000,-0.157000000000
7.663473922000,-0.204000000000
7.671160416000,-0.236000000000
7.678846910000,-0.253000000000
7.686533404000,-0.256000000000
7.694219898000,-0.251000000000
7.701906392000,-0.243000000000
7.709592886000,-0.226000000000
7.717279380000,-0.211000000000
7.724965874000,-0.206000000000
7.732652368000,-0.199000000000
7.740338862000,-0.192000000000
7.748025356000,-0.184000000000
7.755711850000,-0.174000000000
7.763398344000,-0.172000000000
7.771084838000,-0.172000000000
7.778771332000,-0.167000000000
7.786457826000,-0.160000000000
7.794144320000,-0.160000000000
7.801830814000,-0.160000000000
7.809517308000,-0.155000000000
7.817203802000,-0.152000000000
7.824890296000,-0.157000000000
7.832576790000,-0.155000000000
7.840263284000,-0.152000000000
7.847949778000,-0.152000000000
7.855636272000,-0.150000000000
7.863322766000,-0.152000000000
7.871009260000,-0.150000000000
7.878695754000,-0.140000000000
7.886382248000,-0.137000000000
7.894068742000,-0.140000000000
7.901755236000,-0.132000000000
7.909441730000,-0.123000000000
7.917128224000,-0.120000000000
7.924814718000,-0.118000000000
7.932501212000,-0.108000000000
7.940187706000,-0.105000000000
7.947874200000,-0.108000000000
7.955560694000,-0.108000000000
7.963247188000,-0.100000000000
7.970933742000,-0.083000000000
7.978620236000,-0.056000000000
7.986306730000,-0.039000000000
7.993993224000,-0.039000000000
8.001679718000,-0.041000000000
8.009366212000,-0.046000000000
8.017052706000,-0.076000000000
8.024739200000,-0.108000000000
8.032425694000,-0.103000000000
8.040112188000,-0.088000000000
8.047798682000,-0.088000000000
8.055485176000,-0.088000000000
8.063171670000,-0.086000000000
8.070858164000,-0.081000000000
8.078544658000,-0.086000000000
8.086231152000,-0.108000000000
8.093917646000,-0.157000000000
8.101604140000,-0.209000000000
8.109290634000,-0.073000000000
8.116977128000,0.484000000000
8.124663622000,1.319000000000
8.132350116000,1.900000000000
8.140036610000,1.420000000000
8.147723104000,-0.036000000000
8.155409598000,-0.721000000000
8.163096092000,-0.248000000000
8.170782586000,-0.076000000000
8.178469080000,-0.278000000000
8.186155574000,-0.209000000000
8.193842068000,-0.118000000000
8.201528562000,-0.169000000000
8.209215056000,-0.147000000000
8.216901550000,-0.093000000000
8.224588044000,-0.098000000000
8.232274538000,-0.091000000000
8.239961032000,-0.054000000000
8.247647526000,-0.029000000000
8.255334020000,-0.007000000000
8.263020514000,0.019000000000
8.270707008000,0.046000000000
8.278393502000,0.078000000000
8.286079996000,0.115000000000
8.293766490000,0.142000000000
8.301452984000,0.167000000000
8.309139478000,0.206000000000
8.316825972000,0.246000000000
8.324512466000,0.260000000000
8.332198960000,0.268000000000
8.339885454000,0.275000000000
8.347571948000,0.263000000000
8.355258442000,0.231000000000
8.362944936000,0.204000000000
8.370631430000,0.174000000000
8.378317924000,0.118000000000
8.386004418000,0.036000000000
8.393690912000,-0.044000000000
8.401377406000,-0.110000000000
8.409063900000,-0.160000000000
8.416750394000,-0.201000000000
8.424436888000,-0.233000000000
8.432123382000,-0.251000000000
8.439809876000,-0.253000000000
8.447496370000,-0.246000000000
8.455182864000,-0.233000000000
8.462869358000,-0.221000000000
8.470555852000,-0.211000000000
8.478242346000,-0.201000000000
8.485928840000,-0.189000000000
8.493615334000,-0.182000000000
8.501301828000,-0.174000000000
8.508988322000,-0.162000000000
8.516674816000,-0.155000000000
8.524361310000,-0.150000000000
8.532047860000,-0.142000000000
8.539734563000,-0.145000000000
8.547421266000,-0.145000000000
8.555107969000,-0.140000000000
8.562794672000,-0.142000000000
8.570481375000,-0.140000000000
8.578168078000,-0.128000000000
8.585854781000,-0.123000000000
8.593541484000,-0.135000000000
8.601228187000,-0.145000000000
8.608914890000,-0.145000000000
8.616601593000,-0.135000000000
8.624288296000,-0.125000000000
8.631974999000,-0.132000000000
8.639661702000,-0.135000000000
8.647348405000,-0.123000000000
8.655035108000,-0.120000000000
8.662721811000,-0.123000000000
8.670408514000,-0.118000000000
8.678095217000,-0.115000000000
8.685781920000,-0.118000000000
8.693468623000,-0.108000000000
8.701155326000,-0.086000000000
8.708842029000,-0.066000000000
8.716528732000,-0.046000000000
8.724215435000,-0.039000000000
8.731902138000,-0.064000000000
8.739588841000,-0.096000000000
8.747275544000,-0.103000000000
8.754962247000,-0.091000000000
8.762648950000,-0.083000000000
8.770335653000,-0.083000000000
8.778022356000,-0.083000000000
8.785709059000,-0.083000000000
8.793395762000,-0.078000000000
8.801082465000,-0.088000000000
8.808769168000,-0.123000000000
8.816455871000,-0.187000000000
8.824142574000,-0.189000000000
8.831829277000,0.137000000000
8.839515980000,0.876000000000
8.847202683000,1.659000000000
8.854889386000,1.787000000000
8.862576089000,0.679000000000
8.870262792000,-0.600000000000
8.877949495000,-0.548000000000
8.885636198000,-0.078000000000
8.893322901000,-0.199000000000
8.901009604000,-0.273000000000
8.908696307000,-0.132000000000
8.916383010000,-0.135000000000
8.924069713000,-0.164000000000
8.931756416000,-0.110000000000
8.939443119000,-0.093000000000
8.947129822000,-0.100000000000
8.954816525000,-0.066000000000
8.962503228000,-0.036000000000
8.970189931000,-0.029000000000
8.977876634000,-0.004000000000
8.985563337000,0.029000000000
8.993250040000,0.051000000000
9.000936743000,0.076000000000
9.008623446000,0.110000000000
9.016310149000,0.142000000000
9.023996852000,0.177000000000
9.031683555000,0.211000000000
9.039370258000,0.238000000000
9.047056961000,0.253000000000
9.054743664000,0.253000000000
9.062430367000,0.238000000000
9.070117070000,0.219000000000
9.077803773000,0.192000000000
9.085490476000,0.157000000000
9.093177239000,0.103000000000
9.100863524000,0.034000000000
9.108549809000,-0.039000000000
9.116236094000,-0.115000000000
9.123922379000,-0.184000000000
9.131608664000,-0.231000000000
9.139294949000,-0.258000000000
9.146981234000,-0.270000000000
9.154667519000,-0.278000000000
9.162353804000,-0.278000000000
9.170040089000,-0.265000000000
9.177726374000,-0.246000000000
9.185412659000,-0.236000000000
9.193098944000,-0.228000000000
9.200785229000,-0.216000000000
9.208471514000,-0.206000000000
9.216157799000,-0.199000000000
9.223844084000,-0.192000000000
9.231530369000,-0.184000000000
9.239216654000,-0.179000000000
9.246902939000,-0.174000000000
9.254589224000,-0.172000000000
9.262275509000,-0.169000000000
9.269961794000,-0.169000000000
9.277648079000,-0.169000000000
9.285334364000,-0.174000000000
9.293020649000,-0.177000000000
9.300706934000,-0.177000000000
9.308393219000,-0.172000000000
9.316079504000,-0.169000000000
9.323765789000,-0.172000000000
9.331452074000,-0.169000000000
9.339138359000,-0.164000000000
9.346824644000,-0.160000000000
9.354510929000,-0.155000000000
9.362197214000,-0.152000000000
9.369883499000,-0.155000000000
9.377569784000,-0.152000000000
9.385256069000,-0.145000000000
9.392942354000,-0.145000000000
9.400628639000,-0.152000000000
9.408314924000,-0.150000000000
9.416001209000,-0.140000000000
9.423687494000,-0.125000000000
9.431373779000,-0.110000000000
9.439060064000,-0.098000000000
9.446746349000,-0.088000000000
9.454432634000,-0.083000000000
9.462118919000,-0.096000000000
9.469805204000,-0.125000000000
9.477491489000,-0.142000000000
9.485177774000,-0.135000000000
9.492864059000,-0.125000000000
9.500550344000,-0.123000000000
9.508236629000,-0.115000000000
9.515922914000,-0.113000000000
9.523609199000,-0.113000000000
9.531295484000,-0.123000000000
9.538981769000,-0.160000000000
9.546668054000,-0.231000000000
9.554354339000,-0.211000000000
9.562040624000,0.160000000000
9.569726909000,0.915000000000
9.577413194000,1.708000000000
9.585099479000,1.806000000000
9.592785764000,0.612000000000
9.600472049000,-0.664000000000
9.608158334000,-0.544000000000
9.615844619000,-0.076000000000
9.623530904000,-0.228000000000
9.631217189000,-0.310000000000
9.638903474000,-0.167000000000
9.646589759000,-0.174000000000
9.654276100000,-0.204000000000
9.661962803000,-0.145000000000
9.669649506000,-0.125000000000
9.677336209000,-0.135000000000
9.685022912000,-0.108000000000
9.692709615000,-0.078000000000
9.700396318000,-0.064000000000
9.708083021000,-0.039000000000
9.715769724000,-0.012000000000
9.723456427000,0.014000000000
9.731143130000,0.049000000000
9.738829833000,0.083000000000
9.746516536000,0.115000000000
9.754203239000,0.150000000000
9.761889942000,0.184000000000
9.769576645000,0.211000000000
9.777263348000,0.233000000000
9.784950051000,0.241000000000
9.792636754000,0.231000000000
9.800323457000,0.209000000000
9.808010160000,0.184000000000
9.815696863000,0.152000000000
9.823383566000,0.103000000000
9.831070269000,0.039000000000
9.838756972000,-0.036000000000
9.846443675000,-0.108000000000
9.854130378000,-0.172000000000
9.861817081000,-0.224000000000
9.869503784000,-0.256000000000
9.877190487000,-0.270000000000
9.884877190000,-0.273000000000
9.892563893000,-0.270000000000
9.900250596000,-0.260000000000
9.907937299000,-0.248000000000
9.915624002000,-0.238000000000
9.923310705000,-0.228000000000
9.930997408000,-0.214000000000
9.938684111000,-0.201000000000
9.946370814000,-0.192000000000
9.954057517000,-0.189000000000
9.961744220000,-0.184000000000
9.969430923000,-0.177000000000
9.977117626000,-0.172000000000
9.984804329000,-0.169000000000
9.992491032000,-0.167000000000
10.000177735000,-0.162000000000
10.007864438000,-0.160000000000
10.015551141000,-0.162000000000
10.023237844000,-0.162000000000
10.030924547000,-0.160000000000
10.038611250000,-0.162000000000
10.046297953000,-0.160000000000
10.053984656000,-0.155000000000
10.061671359000,-0.155000000000
10.069358062000,-0.157000000000
10.077044765000,-0.155000000000
10.084731468000,-0.150000000000
10.092418171000,-0.150000000000
10.100104874000,-0.150000000000
10.107791577000,-0.147000000000
10.115478280000,-0.142000000000
10.123164983000,-0.137000000000
10.130851686000,-0.135000000000
10.138538389000,-0.137000000000
10.146225092000,-0.142000000000
10.153911795000,-0.140000000000
10.161598498000,-0.125000000000
10.169285201000,-0.103000000000
10.176971904000,-0.081000000000
10.184658607000,-0.076000000000
10.192345310000,-0.076000000000
10.200032013000,-0.076000000000
10.207718716000,-0.098000000000
10.215405483000,-0.130000000000
10.223091768000,-0.135000000000
10.230778053000,-0.123000000000
10.238464338000,-0.120000000000
10.246150623000,-0.120000000000
10.253836908000,-0.118000000000
10.261523193000,-0.118000000000
10.269209478000,-0.118000000000
10.276895763000,-0.132000000000
10.284582048000,-0.182000000000
10.292268333000,-0.236000000000
10.299954618000,-0.120000000000
10.307640903000,0.381000000000
10.315327188000,1.179000000000
10.323013473000,1.848000000000
10.330699758000,1.550000000000
10.338386043000,0.108000000000
10.346072328000,-0.758000000000
10.353758613000,-0.334000000000
10.361444898000,-0.081000000000
10.369131183000,-0.297000000000
10.376817468000,-0.260000000000
10.384503753000,-0.147000000000
10.392190038000,-0.194000000000
10.399876323000,-0.189000000000
10.407562608000,-0.128000000000
10.415248893000,-0.120000000000
10.422935178000,-0.110000000000
10.430621463000,-0.076000000000
10.438307748000,-0.059000000000
10.445994033000,-0.046000000000
10.453680318000,-0.017000000000
10.461366603000,0.009000000000
10.469052888000,0.034000000000
10.476739173000,0.066000000000
10.484425458000,0.100000000000
10.492111743000,0.132000000000
10.499798028000,0.167000000000
10.507484313000,0.201000000000
10.515170598000,0.228000000000
10.522856883000,0.246000000000
10.530543168000,0.248000000000
10.538229453000,0.241000000000
10.545915738000,0.224000000000
10.553602023000,0.199000000000
10.561288308000,0.160000000000
10.568974593000,0.110000000000
10.576660878000,0.044000000000
10.584347163000,-0.034000000000
10.592033448000,-0.105000000000
10.599719733000,-0.162000000000
10.607406018000,-0.206000000000
10.615092303000,-0.233000000000
10.622778588000,-0.246000000000
10.630464873000,-0.251000000000
10.638151158000,-0.248000000000
10.645837443000,-0.238000000000
10.653523728000,-0.221000000000
10.661210013000,-0.209000000000
10.668896298000,-0.199000000000
10.676582583000,-0.189000000000
10.684268868000,-0.184000000000
10.691955153000,-0.182000000000
10.699641438000,-0.177000000000
10.707327723000,-0.169000000000
10.715014008000,-0.164000000000
10.722700293000,-0.164000000000
10.730386578000,-0.167000000000
10.738072863000,-0.167000000000
10.745759148000,-0.164000000000
10.753445433000,-0.162000000000
10.761131718000,-0.160000000000
10.768818003000,-0.157000000000
10.776504344000,-0.157000000000
10.784191047000,-0.160000000000
10.791877750000,-0.160000000000
10.799564453000,-0.157000000000
10.807251156000,-0.155000000000
10.814937859000,-0.152000000000
10.822624562000,-0.152000000000
10.830311265000,-0.150000000000
10.837997968000,-0.145000000000
10.845684671000,-0.140000000000
10.853371374000,-0.135000000000
10.861058077000,-0.130000000000
10.868744780000,-0.128000000000
10.876431483000,-0.125000000000
10.884118186000,-0.123000000000
10.891804889000,-0.120000000000
10.899491592000,-0.123000000000
10.907178295000,-0.118000000000
10.914864998000,-0.100000000000
10.922551701000,-0.073000000000
10.930238404000,-0.061000000000
10.937925107000,-0.061000000000
10.945611810000,-0.059000000000
10.953298513000,-0.066000000000
10.960985216000,-0.100000000000
10.968671919000,-0.123000000000
10.976358622000,-0.113000000000
10.984045325000,-0.105000000000
10.991732028000,-0.108000000000
10.999418731000,-0.105000000000
11.007105434000,-0.100000000000
11.014792137000,-0.100000000000
11.022478840000,-0.100000000000
11.030165543000,-0.115000000000
11.037852246000,-0.169000000000
11.045538949000,-0.219000000000
11.053225652000,-0.051000000000
11.060912355000,0.524000000000
11.068599058000,1.346000000000
11.076285761000,1.915000000000
11.083972464000,1.381000000000
11.091659167000,-0.108000000000
11.099345870000,-0.723000000000
11.107032573000,-0.219000000000
11.114719276000,-0.081000000000
11.122405979000,-0.283000000000
11.130092682000,-0.199000000000
11.137779385000,-0.115000000000
11.145466088000,-0.169000000000
11.153152791000,-0.145000000000
11.160839494000,-0.086000000000
11.168526197000,-0.088000000000
11.176212900000,-0.076000000000
11.183899603000,-0.041000000000
11.191586306000,-0.024000000000
11.199273009000,-0.004000000000
11.206959712000,0.022000000000
11.214646415000,0.046000000000
11.222333118000,0.068000000000
11.230019821000,0.098000000000
11.237706524000,0.137000000000
11.245393227000,0.177000000000
11.253079930000,0.211000000000
11.260766633000,0.243000000000
11.268453336000,0.275000000000
11.276140039000,0.290000000000
11.283826742000,0.280000000000
11.291513445000,0.268000000000
11.299200148000,0.251000000000
11.306886851000,0.226000000000
11.314573554000,0.187000000000
11.322260257000,0.130000000000
11.329946960000,0.056000000000
11.337633723000,-0.017000000000
11.345320008000,-0.081000000000
11.353006293000,-0.140000000000
11.360692578000,-0.187000000000
11.368378863000,-0.209000000000
11.376065148000,-0.219000000000
11.383751433000,-0.228000000000
11.391437718000,-0.228000000000
11.399124003000,-0.211000000000
11.406810288000,-0.192000000000
11.414496573000,-0.182000000000
11.422182858000,-0.169000000000
11.429869143000,-0.164000000000
11.437555428000,-0.160000000000
11.445241713000,-0.152000000000
11.452927998000,-0.147000000000
11.460614283000,-0.142000000000
11.468300568000,-0.140000000000
11.475986853000,-0.137000000000
11.483673138000,-0.132000000000
11.491359423000,-0.130000000000
11.499045708000,-0.128000000000
11.506731993000,-0.123000000000
11.514418278000,-0.125000000000
11.522104563000,-0.128000000000
11.529790848000,-0.125000000000
11.537477133000,-0.125000000000
11.545163418000,-0.125000000000
11.552849703000,-0.120000000000
11.560535988000,-0.120000000000
11.568222273000,-0.118000000000
11.575908558000,-0.110000000000
11.583594843000,-0.105000000000
11.591281128000,-0.110000000000
11.598967413000,-0.103000000000
11.606653698000,-0.091000000000
11.614339983000,-0.100000000000
11.622026268000,-0.110000000000
11.629712553000,-0.105000000000
11.637398838000,-0.098000000000
11.645085123000,-0.076000000000
11.652771408000,-0.044000000000
11.660457693000,-0.036000000000
11.668143978000,-0.039000000000
11.675830263000,-0.034000000000
11.683516548000,-0.051000000000
11.691202833000,-0.093000000000
11.698889118000,-0.113000000000
11.706575403000,-0.105000000000
11.714261688000,-0.093000000000
11.721947973000,-0.088000000000
11.729634258000,-0.083000000000
11.737320543000,-0.078000000000
11.745006828000,-0.073000000000
11.752693113000,-0.081000000000
11.760379398000,-0.108000000000
11.768065683000,-0.164000000000
11.775751968000,-0.206000000000
11.783438253000,0.022000000000
11.791124538000,0.706000000000
11.798810823000,1.545000000000
11.806497108000,1.915000000000
11.814183393000,1.085000000000
11.821869678000,-0.352000000000
11.829555963000,-0.654000000000
11.837242248000,-0.135000000000
11.844928533000,-0.128000000000
11.852614818000,-0.268000000000
11.860301103000,-0.150000000000
11.867987388000,-0.118000000000
11.875673673000,-0.162000000000
11.883359958000,-0.113000000000
11.891046243000,-0.076000000000
11.898732584000,-0.088000000000
11.906419287000,-0.064000000000
11.914105990000,-0.019000000000
11.921792693000,-0.002000000000
11.929479396000,0.019000000000
11.937166099000,0.046000000000
11.944852802000,0.066000000000
11.952539505000,0.091000000000
11.960226208000,0.132000000000
11.967912911000,0.169000000000
11.975599614000,0.199000000000
11.983286317000,0.241000000000
11.990973020000,0.278000000000
11.998659723000,0.290000000000
12.006346426000,0.300000000000
12.014033129000,0.312000000000
12.021719832000,0.295000000000
12.029406535000,0.253000000000
12.037093238000,0.211000000000
12.044779941000,0.174000000000
12.052466644000,0.118000000000
12.060153347000,0.036000000000
12.067840050000,-0.049000000000
12.075526753000,-0.118000000000
12.083213456000,-0.177000000000
12.090900159000,-0.221000000000
12.098586862000,-0.238000000000
12.106273565000,-0.251000000000
12.113960268000,-0.263000000000
12.121646971000,-0.253000000000
12.129333674000,-0.233000000000
12.137020377000,-0.221000000000
12.144707080000,-0.206000000000
12.152393783000,-0.189000000000
12.160080486000,-0.184000000000
12.167767189000,-0.179000000000
12.175453892000,-0.169000000000
12.183140595000,-0.162000000000
12.190827298000,-0.160000000000
12.198514001000,-0.160000000000
12.206200704000,-0.155000000000
12.213887407000,-0.150000000000
12.221574110000,-0.147000000000
12.229260813000,-0.150000000000
12.236947516000,-0.155000000000
12.244634219000,-0.157000000000
12.252320922000,-0.157000000000
12.260007625000,-0.157000000000
12.267694328000,-0.150000000000
12.275381031000,-0.147000000000
12.283067734000,-0.145000000000
12.290754437000,-0.142000000000
12.298441140000,-0.147000000000
12.306127843000,-0.147000000000
12.313814546000,-0.132000000000
12.321501249000,-0.125000000000
12.329187952000,-0.132000000000
12.336874655000,-0.142000000000
12.344561358000,-0.140000000000
12.352248061000,-0.135000000000
12.359934764000,-0.123000000000
12.367621467000,-0.103000000000
12.375308170000,-0.093000000000
12.382994873000,-0.086000000000
12.390681576000,-0.076000000000
12.398368279000,-0.083000000000
12.406054982000,-0.115000000000
12.413741685000,-0.135000000000
12.421428388000,-0.123000000000
12.429115091000,-0.113000000000
12.436801794000,-0.120000000000
12.444488497000,-0.125000000000
12.452175200000,-0.120000000000
12.459861963000,-0.110000000000
12.467548248000,-0.115000000000
12.475234533000,-0.137000000000
12.482920818000,-0.196000000000
12.490607103000,-0.246000000000
12.498293388000,-0.044000000000
12.505979673000,0.610000000000
12.513665958000,1.462000000000
12.521352243000,1.900000000000
12.529038528000,1.147000000000
12.536724813000,-0.327000000000
12.544411098000,-0.718000000000
12.552097383000,-0.187000000000
12.559783668000,-0.140000000000
12.567469953000,-0.310000000000
12.575156238000,-0.196000000000
12.582842523000,-0.147000000000
12.590528808000,-0.201000000000
12.598215093000,-0.164000000000
12.605901378000,-0.120000000000
12.613587663000,-0.123000000000
12.621273948000,-0.105000000000
12.628960233000,-0.073000000000
12.636646518000,-0.059000000000
12.644332803000,-0.034000000000
12.652019088000,0.000000000000
12.659705373000,0.022000000000
12.667391658000,0.041000000000
12.675077943000,0.076000000000
12.682764228000,0.113000000000
12.690450513000,0.150000000000
12.698136798000,0.187000000000
12.705823083000,0.219000000000
12.713509368000,0.238000000000
12.721195653000,0.246000000000
12.728881938000,0.241000000000
12.736568223000,0.224000000000
12.744254508000,0.201000000000
12.751940793000,0.169000000000
12.759627078000,0.120000000000
12.767313363000,0.056000000000
12.774999648000,-0.019000000000
12.782685933000,-0.098000000000
12.790372218000,-0.162000000000
12.798058503000,-0.214000000000
12.805744788000,-0.253000000000
12.813431073000,-0.273000000000
12.821117358000,-0.280000000000
12.828803643000,-0.280000000000
12.836489928000,-0.275000000000
12.844176213000,-0.265000000000
12.851862498000,-0.253000000000
12.859548783000,-0.241000000000
12.867235068000,-0.228000000000
12.874921353000,-0.219000000000
12.882607638000,-0.209000000000
12.890293923000,-0.199000000000
12.897980208000,-0.192000000000
12.905666493000,-0.189000000000
12.913352778000,-0.187000000000
12.921039063000,-0.187000000000
12.928725348000,-0.187000000000
12.936411633000,-0.182000000000
12.944097918000,-0.177000000000
12.951784203000,-0.177000000000
12.959470488000,-0.182000000000
12.967156773000,-0.182000000000
12.974843058000,-0.179000000000
12.982529343000,-0.179000000000
12.990215628000,-0.179000000000
12.997901913000,-0.177000000000
13.005588198000,-0.172000000000
13.013274483000,-0.172000000000
13.020960824000,-0.169000000000
13.028647527000,-0.164000000000
13.036334230000,-0.162000000000
13.044020933000,-0.157000000000
13.051707636000,-0.152000000000
13.059394339000,-0.150000000000
13.067081042000,-0.147000000000
13.074767745000,-0.142000000000
13.082454448000,-0.145000000000
13.090141151000,-0.147000000000
13.097827854000,-0.147000000000
13.105514557000,-0.135000000000
13.113201260000,-0.115000000000
13.120887963000,-0.098000000000
13.128574666000,-0.091000000000
13.136261369000,-0.083000000000
13.143948072000,-0.083000000000
13.151634775000,-0.098000000000
13.159321478000,-0.128000000000
13.167008181000,-0.137000000000
13.174694884000,-0.128000000000
13.182381587000,-0.125000000000
13.190068290000,-0.123000000000
13.197754993000,-0.118000000000
13.205441696000,-0.115000000000
13.213128399000,-0.115000000000
13.220815102000,-0.130000000000
13.228501805000,-0.172000000000
13.236188508000,-0.228000000000
13.243875211000,-0.135000000000
13.251561914000,0.347000000000
13.259248617000,1.154000000000
13.266935320000,1.856000000000
13.274622023000,1.617000000000
13.282308726000,0.184000000000
13.289995429000,-0.763000000000
13.297682132000,-0.361000000000
13.305368835000,-0.068000000000
13.313055538000,-0.288000000000
13.320742241000,-0.268000000000
13.328428944000,-0.145000000000
13.336115647000,-0.192000000000
13.343802350000,-0.199000000000
13.351489053000,-0.140000000000
13.359175756000,-0.128000000000
13.366862459000,-0.125000000000
13.374549162000,-0.091000000000
13.382235865000,-0.068000000000
13.389922568000,-0.054000000000
13.397609271000,-0.029000000000
13.405295974000,0.000000000000
13.412982677000,0.024000000000
13.420669380000,0.054000000000
13.428356083000,0.088000000000
13.436042786000,0.123000000000
13.443729489000,0.160000000000
13.451416192000,0.194000000000
13.459102895000,0.221000000000
13.466789598000,0.238000000000
13.474476301000,0.238000000000
13.482163004000,0.228000000000
13.489849707000,0.211000000000
13.497536410000,0.182000000000
13.505223113000,0.145000000000
13.512909816000,0.098000000000
13.520596519000,0.029000000000
13.528283222000,-0.049000000000
13.535969925000,-0.118000000000
13.543656628000,-0.179000000000
13.551343331000,-0.224000000000
13.559030034000,-0.253000000000
13.566716737000,-0.265000000000
13.574403440000,-0.273000000000
13.582090207000,-0.268000000000
13.589776492000,-0.258000000000
13.597462777000,-0.248000000000
13.605149062000,-0.236000000000
13.612835347000,-0.224000000000
13.620521632000,-0.214000000000
13.628207917000,-0.204000000000
13.635894202000,-0.196000000000
13.643580487000,-0.192000000000
13.651266772000,-0.184000000000
13.658953057000,-0.179000000000
13.666639342000,-0.174000000000
13.674325627000,-0.172000000000
13.682011912000,-0.169000000000
13.689698197000,-0.169000000000
13.697384482000,-0.169000000000
13.705070767000,-0.164000000000
13.712757052000,-0.164000000000
13.720443337000,-0.162000000000
13.728129622000,-0.160000000000
13.735815907000,-0.155000000000
13.743502192000,-0.155000000000
13.751188477000,-0.157000000000
13.758874762000,-0.155000000000
13.766561047000,-0.155000000000
13.774247332000,-0.157000000000
13.781933617000,-0.155000000000
13.789619902000,-0.150000000000
13.797306187000,-0.147000000000
13.804992472000,-0.145000000000
13.812678757000,-0.137000000000
13.820365042000,-0.132000000000
13.828051327000,-0.128000000000
13.835737612000,-0.123000000000
13.843423897000,-0.123000000000
13.851110182000,-0.128000000000
13.858796467000,-0.125000000000
13.866482752000,-0.108000000000
13.874169037000,-0.081000000000
13.881855322000,-0.068000000000
13.889541607000,-0.066000000000
13.897227892000,-0.066000000000
13.904914177000,-0.073000000000
13.912600462000,-0.105000000000
13.920286747000,-0.130000000000
13.927973032000,-0.123000000000
13.935659317000,-0.110000000000
13.943345602000,-0.110000000000
13.951031887000,-0.113000000000
13.958718172000,-0.105000000000
13.966404457000,-0.100000000000
13.974090742000,-0.103000000000
13.981777027000,-0.115000000000
13.989463312000,-0.155000000000
13.997149597000,-0.216000000000
14.004835882000,-0.164000000000
14.012522167000,0.248000000000
14.020208452000,1.011000000000
14.027894737000,1.772000000000
14.035581022000,1.760000000000
14.043267307000,0.467000000000
14.050953592000,-0.699000000000
14.058639877000,-0.460000000000
14.066326162000,-0.056000000000
14.074012447000,-0.246000000000
14.081698732000,-0.285000000000
14.089385017000,-0.150000000000
14.097071302000,-0.172000000000
14.104757587000,-0.192000000000
14.112443872000,-0.132000000000
14.120130157000,-0.113000000000
14.127816442000,-0.118000000000
14.135502727000,-0.088000000000
14.143189068000,-0.061000000000
14.150875771000,-0.046000000000
14.158562474000,-0.022000000000
14.166249177000,0.004000000000
14.173935880000,0.029000000000
14.181622583000,0.059000000000
14.189309286000,0.091000000000
14.196995989000,0.125000000000
14.204682692000,0.162000000000
14.212369395000,0.196000000000
14.220056098000,0.226000000000
14.227742801000,0.246000000000
14.235429504000,0.248000000000
14.243116207000,0.238000000000
14.250802910000,0.226000000000
14.258489613000,0.204000000000
14.266176316000,0.172000000000
14.273863019000,0.123000000000
14.281549722000,0.061000000000
14.289236425000,-0.009000000000
14.296923128000,-0.081000000000
14.304609831000,-0.142000000000
14.312296534000,-0.192000000000
14.319983237000,-0.224000000000
14.327669940000,-0.246000000000
14.335356643000,-0.256000000000
14.343043346000,-0.256000000000
14.350730049000,-0.248000000000
14.358416752000,-0.241000000000
14.366103455000,-0.228000000000
14.373790158000,-0.216000000000
14.381476861000,-0.201000000000
14.389163564000,-0.189000000000
14.396850267000,-0.179000000000
14.404536970000,-0.172000000000
14.412223673000,-0.167000000000
14.419910376000,-0.162000000000
14.427597079000,-0.157000000000
14.435283782000,-0.155000000000
14.442970485000,-0.150000000000
14.450657188000,-0.147000000000
14.458343891000,-0.145000000000
14.466030594000,-0.145000000000
14.473717297000,-0.145000000000
14.481404000000,-0.147000000000
14.489090703000,-0.147000000000
14.496777406000,-0.142000000000
14.504464109000,-0.142000000000
14.512150812000,-0.145000000000
14.519837515000,-0.142000000000
14.527524218000,-0.137000000000
14.535210921000,-0.135000000000
14.542897624000,-0.132000000000
14.550584327000,-0.130000000000
14.558271030000,-0.128000000000
14.565957733000,-0.128000000000
14.573644436000,-0.125000000000
14.581331139000,-0.120000000000
14.589017842000,-0.113000000000
14.596704545000,-0.108000000000
14.604391248000,-0.105000000000
14.612077951000,-0.100000000000
14.619764654000,-0.098000000000
14.627451357000,-0.100000000000
14.635138060000,-0.103000000000
14.642824763000,-0.091000000000
14.650511466000,-0.066000000000
14.658198169000,-0.051000000000
14.665884872000,-0.051000000000
14.673571575000,-0.049000000000
14.681258278000,-0.046000000000
14.688944981000,-0.068000000000
14.696631684000,-0.108000000000
14.704318447000,-0.113000000000
14.712004732000,-0.098000000000
14.719691017000,-0.096000000000
14.727377302000,-0.096000000000
14.735063587000,-0.091000000000
14.742749872000,-0.088000000000
14.750436157000,-0.088000000000
14.758122442000,-0.093000000000
14.765808727000,-0.123000000000
14.773495012000,-0.189000000000
14.781181297000,-0.192000000000
14.788867582000,0.125000000000
14.796553867000,0.832000000000
14.804240152000,1.639000000000
14.811926437000,1.885000000000
14.819612722000,0.846000000000
14.827299007000,-0.521000000000
14.834985292000,-0.568000000000
14.842671577000,-0.076000000000
14.850357862000,-0.179000000000
14.858044147000,-0.290000000000
14.865730432000,-0.155000000000
14.873416717000,-0.147000000000
14.881103002000,-0.189000000000
14.888789287000,-0.140000000000
14.896475572000,-0.108000000000
14.904161857000,-0.110000000000
14.911848142000,-0.083000000000
14.919534427000,-0.054000000000
14.927220712000,-0.039000000000
14.934906997000,-0.017000000000
14.942593282000,0.007000000000
14.950279567000,0.029000000000
14.957965852000,0.056000000000
14.965652137000,0.088000000000
14.973338422000,0.125000000000
14.981024707000,0.160000000000
14.988710992000,0.194000000000
14.996397277000,0.224000000000
15.004083562000,0.243000000000
15.011769847000,0.248000000000
15.019456132000,0.246000000000
15.027142417000,0.228000000000
15.034828702000,0.206000000000
15.042514987000,0.174000000000
15.050201272000,0.132000000000
15.057887557000,0.076000000000
15.065573842000,0.007000000000
15.073260127000,-0.068000000000
15.080946412000,-0.135000000000
15.088632697000,-0.189000000000
15.096318982000,-0.228000000000
15.104005267000,-0.251000000000
15.111691552000,-0.260000000000
15.119377837000,-0.263000000000
15.127064122000,-0.256000000000
15.134750407000,-0.243000000000
15.142436692000,-0.231000000000
15.150122977000,-0.219000000000
15.157809262000,-0.206000000000
15.165495547000,-0.196000000000
15.173181832000,-0.189000000000
15.180868117000,-0.184000000000
15.188554402000,-0.182000000000
15.196240687000,-0.179000000000
15.203926972000,-0.174000000000
15.211613257000,-0.172000000000
15.219299542000,-0.169000000000
15.226985827000,-0.164000000000
15.234672112000,-0.162000000000
15.242358397000,-0.162000000000
15.250044682000,-0.164000000000
15.257730967000,-0.164000000000
15.265417308000,-0.164000000000
15.273104011000,-0.162000000000
15.280790714000,-0.162000000000
15.288477417000,-0.160000000000
15.296164120000,-0.155000000000
15.303850823000,-0.155000000000
15.311537526000,-0.150000000000
15.319224229000,-0.145000000000
15.326910932000,-0.142000000000
15.334597635000,-0.140000000000
15.342284338000,-0.135000000000
15.349971041000,-0.130000000000
15.357657744000,-0.123000000000
15.365344447000,-0.118000000000
15.373031150000,-0.115000000000
15.380717853000,-0.113000000000
15.388404556000,-0.105000000000
15.396091259000,-0.098000000000
15.403777962000,-0.103000000000
15.411464665000,-0.103000000000
15.419151368000,-0.093000000000
15.426838071000,-0.073000000000
15.434524774000,-0.054000000000
15.442211477000,-0.041000000000
15.449898180000,-0.041000000000
15.457584883000,-0.039000000000
15.465271586000,-0.046000000000
15.472958289000,-0.081000000000
15.480644992000,-0.108000000000
15.488331695000,-0.103000000000
15.496018398000,-0.088000000000
15.503705101000,-0.088000000000
15.511391804000,-0.088000000000
15.519078507000,-0.086000000000
15.526765210000,-0.083000000000
15.534451913000,-0.086000000000
15.542138616000,-0.105000000000
15.549825319000,-0.155000000000
15.557512022000,-0.201000000000
15.565198725000,-0.054000000000
15.572885428000,0.494000000000
15.580572131000,1.307000000000
15.588258834000,1.900000000000
15.595945537000,1.430000000000
15.603632240000,-0.044000000000
15.611318943000,-0.728000000000
15.619005646000,-0.246000000000
15.626692349000,-0.071000000000
15.634379052000,-0.273000000000
15.642065755000,-0.206000000000
15.649752458000,-0.118000000000
15.657439161000,-0.169000000000
15.665125864000,-0.157000000000
15.672812567000,-0.105000000000
15.680499270000,-0.103000000000
15.688185973000,-0.091000000000
15.695872676000,-0.051000000000
15.703559379000,-0.034000000000
15.711246082000,-0.027000000000
15.718932785000,0.000000000000
15.726619488000,0.027000000000
15.734306191000,0.054000000000
15.741992894000,0.083000000000
15.749679597000,0.113000000000
15.757366300000,0.147000000000
15.765053003000,0.184000000000
15.772739706000,0.219000000000
15.780426409000,0.248000000000
15.788113112000,0.263000000000
15.795799815000,0.265000000000
15.803486518000,0.256000000000
15.811173221000,0.233000000000
15.818859924000,0.199000000000
15.826546687000,0.162000000000
15.834232972000,0.118000000000
15.841919257000,0.054000000000
15.849605542000,-0.024000000000
15.857291827000,-0.096000000000
15.864978112000,-0.157000000000
15.872664397000,-0.201000000000
15.880350682000,-0.231000000000
15.888036967000,-0.248000000000
15.895723252000,-0.251000000000
15.903409537000,-0.246000000000
15.911095822000,-0.236000000000
15.918782107000,-0.226000000000
15.926468392000,-0.214000000000
15.934154677000,-0.201000000000
15.941840962000,-0.192000000000
15.949527247000,-0.187000000000
15.957213532000,-0.177000000000
15.964899817000,-0.164000000000
15.972586102000,-0.164000000000
15.980272387000,-0.162000000000
15.987958672000,-0.155000000000
15.995644957000,-0.147000000000
16.003331242000,-0.155000000000
16.011017527000,-0.164000000000
16.018703812000,-0.157000000000
16.026390097000,-0.150000000000
16.034076382000,-0.155000000000
16.041762667000,-0.157000000000
16.049448952000,-0.155000000000
16.057135237000,-0.155000000000
16.064821522000,-0.147000000000
16.072507807000,-0.140000000000
16.080194092000,-0.142000000000
16.087880377000,-0.145000000000
16.095566662000,-0.145000000000
16.103252947000,-0.142000000000
16.110939232000,-0.137000000000
16.118625517000,-0.128000000000
16.126311802000,-0.123000000000
16.133998087000,-0.130000000000
16.141684372000,-0.128000000000
16.149370657000,-0.115000000000
16.157056942000,-0.108000000000
16.164743227000,-0.110000000000
16.172429512000,-0.115000000000
16.180115797000,-0.110000000000
16.187802082000,-0.096000000000
16.195488367000,-0.076000000000
16.203174652000,-0.059000000000
16.210860937000,-0.059000000000
16.218547222000,-0.059000000000
16.226233507000,-0.066000000000
16.233919792000,-0.093000000000
16.241606077000,-0.120000000000
16.249292362000,-0.125000000000
16.256978647000,-0.118000000000
16.264664932000,-0.115000000000
16.272351217000,-0.110000000000
16.280037502000,-0.105000000000
16.287723787000,-0.100000000000
16.295410072000,-0.098000000000
16.303096357000,-0.113000000000
16.310782642000,-0.155000000000
16.318468927000,-0.216000000000
16.326155212000,-0.120000000000
16.333841497000,0.386000000000
16.341527782000,1.201000000000
16.349214067000,1.836000000000
16.356900352000,1.533000000000
16.364586637000,0.140000000000
16.372272922000,-0.740000000000
16.379959207000,-0.342000000000
16.387645548000,-0.064000000000
16.395332251000,-0.263000000000
16.403018954000,-0.233000000000
16.410705657000,-0.120000000000
16.418392360000,-0.169000000000
16.426079063000,-0.169000000000
16.433765766000,-0.100000000000
16.441452469000,-0.093000000000
16.449139172000,-0.098000000000
16.456825875000,-0.061000000000
16.464512578000,-0.032000000000
16.472199281000,-0.024000000000
16.479885984000,-0.004000000000
16.487572687000,0.027000000000
16.495259390000,0.051000000000
16.502946093000,0.073000000000
16.510632796000,0.105000000000
16.518319499000,0.150000000000
16.526006202000,0.189000000000
16.533692905000,0.219000000000
16.541379608000,0.248000000000
16.549066311000,0.268000000000
16.556753014000,0.263000000000
16.564439717000,0.251000000000
16.572126420000,0.236000000000
16.579813123000,0.204000000000
16.587499826000,0.164000000000
16.595186529000,0.120000000000
16.602873232000,0.054000000000
16.610559935000,-0.024000000000
16.618246638000,-0.096000000000
16.625933341000,-0.164000000000
16.633620044000,-0.219000000000
16.641306747000,-0.246000000000
16.648993450000,-0.258000000000
16.656680153000,-0.265000000000
16.664366856000,-0.265000000000
16.672053559000,-0.258000000000
16.679740262000,-0.248000000000
16.687426965000,-0.231000000000
16.695113668000,-0.219000000000
16.702800371000,-0.214000000000
16.710487074000,-0.206000000000
16.718173777000,-0.199000000000
16.725860480000,-0.184000000000
16.733547183000,-0.177000000000
16.741233886000,-0.174000000000
16.748920589000,-0.167000000000
16.756607292000,-0.162000000000
16.764293995000,-0.164000000000
16.771980698000,-0.167000000000
16.779667401000,-0.164000000000
16.787354104000,-0.162000000000
16.795040807000,-0.162000000000
16.802727510000,-0.167000000000
16.810414213000,-0.164000000000
16.818100916000,-0.162000000000
16.825787619000,-0.164000000000
16.833474322000,-0.162000000000
16.841161025000,-0.152000000000
16.848847728000,-0.150000000000
16.856534431000,-0.150000000000
16.864221134000,-0.147000000000
16.871907837000,-0.142000000000
16.879594540000,-0.140000000000
16.887281243000,-0.142000000000
16.894967946000,-0.140000000000
16.902654649000,-0.137000000000
16.910341352000,-0.137000000000
16.918028055000,-0.135000000000
16.925714758000,-0.125000000000
16.933401461000,-0.103000000000
16.941088164000,-0.078000000000
16.948774931000,-0.071000000000
16.956461216000,-0.071000000000
16.964147501000,-0.076000000000
16.971833786000,-0.098000000000
16.979520071000,-0.132000000000
16.987206356000,-0.140000000000
16.994892641000,-0.128000000000
17.002578926000,-0.125000000000
17.010265211000,-0.125000000000
17.017951496000,-0.120000000000
17.025637781000,-0.118000000000
17.033324066000,-0.123000000000
17.041010351000,-0.135000000000
17.048696636000,-0.174000000000
17.056382921000,-0.236000000000
17.064069206000,-0.162000000000
17.071755491000,0.315000000000
17.079441776000,1.129000000000
17.087128061000,1.806000000000
17.094814346000,1.565000000000
17.102500631000,0.184000000000
17.110186916000,-0.760000000000
17.117873201000,-0.388000000000
17.125559486000,-0.083000000000
17.133245771000,-0.283000000000
17.140932056000,-0.256000000000
17.148618341000,-0.135000000000
17.156304626000,-0.182000000000
17.163990911000,-0.184000000000
17.171677196000,-0.123000000000
17.179363481000,-0.115000000000
17.187049766000,-0.113000000000
17.194736051000,-0.081000000000
17.202422336000,-0.054000000000
17.210108621000,-0.036000000000
17.217794906000,-0.014000000000
17.225481191000,0.009000000000
17.233167476000,0.032000000000
17.240853761000,0.064000000000
17.248540046000,0.098000000000
17.256226331000,0.130000000000
17.263912616000,0.164000000000
17.271598901000,0.199000000000
17.279285186000,0.228000000000
17.286971471000,0.246000000000
17.294657756000,0.246000000000
17.302344041000,0.233000000000
17.310030326000,0.211000000000
17.317716611000,0.182000000000
17.325402896000,0.145000000000
17.333089181000,0.098000000000
17.340775466000,0.032000000000
17.348461751000,-0.046000000000
17.356148036000,-0.123000000000
17.363834321000,-0.179000000000
17.371520606000,-0.224000000000
17.379206891000,-0.253000000000
17.386893176000,-0.270000000000
17.394579461000,-0.273000000000
17.402265746000,-0.263000000000
17.409952031000,-0.251000000000
17.417638316000,-0.238000000000
17.425324601000,-0.228000000000
17.433010886000,-0.214000000000
17.440697171000,-0.199000000000
17.448383456000,-0.194000000000
17.456069741000,-0.189000000000
17.463756026000,-0.182000000000
17.471442311000,-0.177000000000
17.479128596000,-0.174000000000
17.486814881000,-0.172000000000
17.494501166000,-0.169000000000
17.502187451000,-0.167000000000
17.509873792000,-0.164000000000
17.517560495000,-0.167000000000
17.525247198000,-0.167000000000
17.532933901000,-0.164000000000
17.540620604000,-0.162000000000
17.548307307000,-0.164000000000
17.555994010000,-0.162000000000
17.563680713000,-0.157000000000
17.571367416000,-0.155000000000
17.579054119000,-0.155000000000
17.586740822000,-0.155000000000
17.594427525000,-0.147000000000
17.602114228000,-0.145000000000
17.609800931000,-0.150000000000
17.617487634000,-0.145000000000
17.625174337000,-0.140000000000
17.632861040000,-0.135000000000
17.640547743000,-0.132000000000
17.648234446000,-0.125000000000
17.655921149000,-0.120000000000
17.663607852000,-0.123000000000
17.671294555000,-0.123000000000
17.678981258000,-0.113000000000
17.686667961000,-0.091000000000
17.694354664000,-0.071000000000
17.702041367000,-0.061000000000
17.709728070000,-0.064000000000
17.717414773000,-0.061000000000
17.725101476000,-0.073000000000
17.732788179000,-0.105000000000
17.740474882000,-0.123000000000
17.748161585000,-0.113000000000
17.755848288000,-0.103000000000
17.763534991000,-0.105000000000
17.771221694000,-0.103000000000
17.778908397000,-0.100000000000
17.786595100000,-0.103000000000
17.794281803000,-0.110000000000
17.801968506000,-0.137000000000
17.809655209000,-0.201000000000
17.817341912000,-0.216000000000
17.825028615000,0.054000000000
17.832715318000,0.726000000000
17.840402021000,1.550000000000
17.848088724000,1.902000000000
17.855775427000,0.984000000000
17.863462130000,-0.465000000000
17.871148833000,-0.652000000000
17.878835536000,-0.113000000000
17.886522239000,-0.160000000000
17.894208942000,-0.315000000000
17.901895645000,-0.184000000000
17.909582348000,-0.150000000000
17.917269051000,-0.199000000000
17.924955754000,-0.152000000000
17.932642457000,-0.110000000000
17.940329160000,-0.115000000000
17.948015863000,-0.096000000000
17.955702566000,-0.068000000000
17.963389269000,-0.056000000000
17.971075972000,-0.034000000000
17.978762675000,-0.007000000000
17.986449378000,0.014000000000
17.994136081000,0.041000000000
18.001822784000,0.073000000000
18.009509487000,0.110000000000
18.017196190000,0.147000000000
18.024882893000,0.179000000000
18.032569596000,0.211000000000
18.040256299000,0.238000000000
18.047943002000,0.246000000000
18.055629705000,0.241000000000
18.063316408000,0.226000000000
18.071003171000,0.204000000000
18.078689456000,0.177000000000
18.086375741000,0.135000000000
18.094062026000,0.076000000000
18.101748311000,0.004000000000
18.109434596000,-0.071000000000
18.117120881000,-0.142000000000
18.124807166000,-0.199000000000
18.132493451000,-0.238000000000
18.140179736000,-0.258000000000
18.147866021000,-0.268000000000
18.155552306000,-0.268000000000
18.163238591000,-0.263000000000
18.170924876000,-0.253000000000
18.178611161000,-0.238000000000
18.186297446000,-0.226000000000
18.193983731000,-0.216000000000
18.201670016000,-0.206000000000
18.209356301000,-0.199000000000
18.217042586000,-0.189000000000
18.224728871000,-0.184000000000
18.232415156000,-0.179000000000
18.240101441000,-0.177000000000
18.247787726000,-0.174000000000
18.255474011000,-0.172000000000
18.263160296000,-0.172000000000
18.270846581000,-0.169000000000
18.278532866000,-0.167000000000
18.286219151000,-0.164000000000
18.293905436000,-0.164000000000
18.301591721000,-0.164000000000
18.309278006000,-0.160000000000
18.316964291000,-0.157000000000
18.324650576000,-0.157000000000
18.332336861000,-0.157000000000
18.340023146000,-0.155000000000
18.347709431000,-0.152000000000
18.355395716000,-0.147000000000
18.363082001000,-0.142000000000
18.370768286000,-0.140000000000
18.378454571000,-0.137000000000
18.386140856000,-0.135000000000
18.393827141000,-0.130000000000
18.401513426000,-0.128000000000
18.409199711000,-0.123000000000
18.416885996000,-0.118000000000
18.424572281000,-0.118000000000
18.432258566000,-0.120000000000
18.439944851000,-0.115000000000
18.447631136000,-0.098000000000
18.455317421000,-0.073000000000
18.463003706000,-0.054000000000
18.470689991000,-0.051000000000
18.478376276000,-0.054000000000
18.486062561000,-0.056000000000
18.493748846000,-0.083000000000
18.501435131000,-0.120000000000
18.509121416000,-0.125000000000
18.516807701000,-0.110000000000
18.524493986000,-0.108000000000
18.532180271000,-0.110000000000
18.539866556000,-0.105000000000
18.547552841000,-0.103000000000
18.555239126000,-0.103000000000
18.562925411000,-0.110000000000
18.570611696000,-0.147000000000
18.578297981000,-0.214000000000
18.585984266000,-0.174000000000
18.593670551000,0.219000000000
18.601356836000,0.969000000000
18.609043121000,1.742000000000
18.616729406000,1.799000000000
18.624415691000,0.563000000000
18.632102032000,-0.659000000000
18.639788735000,-0.480000000000
18.647475438000,-0.041000000000
18.655162141000,-0.216000000000
18.662848844000,-0.275000000000
18.670535547000,-0.132000000000
18.678222250000,-0.150000000000
18.685908953000,-0.179000000000
18.693595656000,-0.120000000000
18.701282359000,-0.098000000000
18.708969062000,-0.100000000000
18.716655765000,-0.073000000000
18.724342468000,-0.049000000000
18.732029171000,-0.032000000000
18.739715874000,-0.007000000000
18.747402577000,0.022000000000
18.755089280000,0.049000000000
18.762775983000,0.081000000000
18.770462686000,0.113000000000
18.778149389000,0.147000000000
18.785836092000,0.184000000000
18.793522795000,0.216000000000
18.801209498000,0.243000000000
18.808896201000,0.265000000000
18.816582904000,0.275000000000
18.824269607000,0.270000000000
18.831956310000,0.253000000000
18.839643013000,0.228000000000
18.847329716000,0.194000000000
18.855016419000,0.147000000000
18.862703122000,0.086000000000
18.870389825000,0.009000000000
18.878076528000,-0.068000000000
18.885763231000,-0.135000000000
18.893449934000,-0.187000000000
18.901136637000,-0.221000000000
18.908823340000,-0.243000000000
18.916510043000,-0.253000000000
18.924196746000,-0.248000000000
18.931883449000,-0.236000000000
18.939570152000,-0.224000000000
18.947256855000,-0.214000000000
18.954943558000,-0.201000000000
18.962630261000,-0.192000000000
18.970316964000,-0.184000000000
18.978003667000,-0.172000000000
18.985690370000,-0.164000000000
18.993377073000,-0.162000000000
19.001063776000,-0.160000000000
19.008750479000,-0.157000000000
19.016437182000,-0.152000000000
19.024123885000,-0.150000000000
19.031810588000,-0.150000000000
19.039497291000,-0.152000000000
19.047183994000,-0.155000000000
19.054870697000,-0.155000000000
19.062557400000,-0.152000000000
19.070244103000,-0.152000000000
19.077930806000,-0.152000000000
19.085617509000,-0.150000000000
19.093304212000,-0.147000000000
19.100990915000,-0.145000000000
19.108677618000,-0.145000000000
19.116364321000,-0.140000000000
19.124051024000,-0.132000000000
19.131737727000,-0.125000000000
19.139424430000,-0.123000000000
19.147111133000,-0.120000000000
19.154797836000,-0.115000000000
19.162484539000,-0.108000000000
19.170171242000,-0.105000000000
19.177857945000,-0.108000000000
19.185544648000,-0.105000000000
19.193231411000,-0.100000000000
19.200917696000,-0.098000000000
19.208603981000,-0.098000000000
19.216290266000,-0.103000000000
19.223976551000,-0.098000000000
19.231662836000,-0.081000000000
19.239349121000,-0.061000000000
19.247035406000,-0.046000000000
19.254721691000,-0.046000000000
19.262407976000,-0.049000000000
19.270094261000,-0.054000000000
19.277780546000,-0.086000000000
19.285466831000,-0.118000000000
19.293153116000,-0.118000000000
19.300839401000,-0.105000000000
19.308525686000,-0.100000000000
19.316211971000,-0.098000000000
19.323898256000,-0.096000000000
19.331584541000,-0.093000000000
19.339270826000,-0.091000000000
19.346957111000,-0.105000000000
19.354643396000,-0.155000000000
19.362329681000,-0.216000000000
19.370015966000,-0.098000000000
19.377702251000,0.423000000000
19.385388536000,1.240000000000
19.393074821000,1.888000000000
19.400761106000,1.545000000000
19.408447391000,0.100000000000
19.416133676000,-0.738000000000
19.423819961000,-0.310000000000
19.431506246000,-0.064000000000
19.439192531000,-0.270000000000
19.446878816000,-0.224000000000
19.454565101000,-0.118000000000
19.462251386000,-0.164000000000
19.469937671000,-0.162000000000
19.477623956000,-0.108000000000
19.485310241000,-0.100000000000
19.492996526000,-0.093000000000
19.500682811000,-0.059000000000
19.508369096000,-0.036000000000
19.516055381000,-0.019000000000
19.523741666000,0.004000000000
19.531427951000,0.029000000000
19.539114236000,0.056000000000
19.546800521000,0.086000000000
19.554486806000,0.115000000000
19.562173091000,0.147000000000
19.569859376000,0.184000000000
19.577545661000,0.219000000000
19.585231946000,0.246000000000
19.592918231000,0.265000000000
19.600604516000,0.275000000000
19.608290801000,0.263000000000
19.615977086000,0.238000000000
19.623663371000,0.214000000000
19.631349656000,0.177000000000
19.639035941000,0.130000000000
19.646722226000,0.071000000000
19.654408511000,-0.007000000000
19.662094796000,-0.086000000000
19.669781081000,-0.150000000000
19.677467366000,-0.194000000000
19.685153651000,-0.221000000000
19.692839936000,-0.243000000000
19.700526221000,-0.251000000000
19.708212506000,-0.243000000000
19.715898791000,-0.238000000000
19.723585076000,-0.233000000000
19.731271361000,-0.216000000000
19.738957646000,-0.196000000000
19.746643931000,-0.187000000000
19.754330272000,-0.182000000000
19.762016975000,-0.169000000000
19.769703678000,-0.152000000000
19.777390381000,-0.145000000000
19.785077084000,-0.145000000000
19.792763787000,-0.145000000000
19.800450490000,-0.142000000000
19.808137193000,-0.142000000000
19.815823896000,-0.142000000000
19.823510599000,-0.142000000000
19.831197302000,-0.140000000000
19.838884005000,-0.132000000000
19.846570708000,-0.130000000000
19.854257411000,-0.137000000000
19.861944114000,-0.142000000000
19.869630817000,-0.140000000000
19.877317520000,-0.140000000000
19.885004223000,-0.137000000000
19.892690926000,-0.132000000000
19.900377629000,-0.132000000000
19.908064332000,-0.128000000000
19.915751035000,-0.118000000000
19.923437738000,-0.108000000000
19.931124441000,-0.108000000000
19.938811144000,-0.113000000000
19.946497847000,-0.115000000000
19.954184550000,-0.108000000000
19.961871253000,-0.098000000000
19.969557956000,-0.098000000000
19.977244659000,-0.100000000000
19.984931362000,-0.098000000000
19.992618065000,-0.093000000000
20.000304768000,-0.078000000000
20.007991471000,-0.054000000000
20.015678174000,-0.041000000000
20.023364877000,-0.049000000000
20.031051580000,-0.049000000000
20.038738283000,-0.049000000000
20.046424986000,-0.083000000000
20.054111689000,-0.118000000000
20.061798392000,-0.105000000000
20.069485095000,-0.088000000000
20.077171798000,-0.098000000000
20.084858501000,-0.098000000000
20.092545204000,-0.086000000000
20.100231907000,-0.078000000000
20.107918610000,-0.086000000000
20.115605313000,-0.103000000000
20.123292016000,-0.140000000000
20.130978719000,-0.194000000000
20.138665422000,-0.083000000000
20.146352125000,0.443000000000
20.154038828000,1.262000000000
20.161725531000,1.880000000000
20.169412234000,1.518000000000
20.177098937000,0.093000000000
20.184785640000,-0.726000000000
20.192472343000,-0.295000000000
20.200159046000,-0.051000000000
20.207845749000,-0.263000000000
20.215532452000,-0.221000000000
20.223219155000,-0.115000000000
20.230905858000,-0.160000000000
20.238592561000,-0.152000000000
20.246279264000,-0.093000000000
20.253965967000,-0.086000000000
20.261652670000,-0.078000000000
20.269339373000,-0.044000000000
20.277026076000,-0.024000000000
20.284712779000,-0.017000000000
20.292399482000,0.009000000000
20.300086185000,0.044000000000
20.307772888000,0.071000000000
20.315459655000,0.098000000000
20.323145940000,0.132000000000
20.330832225000,0.172000000000
20.338518510000,0.209000000000
20.346204795000,0.243000000000
20.353891080000,0.265000000000
20.361577365000,0.283000000000
20.369263650000,0.285000000000
20.376949935000,0.275000000000
20.384636220000,0.253000000000
20.392322505000,0.221000000000
20.400008790000,0.184000000000
20.407695075000,0.132000000000
20.415381360000,0.054000000000
20.423067645000,-0.027000000000
20.430753930000,-0.098000000000
20.438440215000,-0.164000000000
20.446126500000,-0.216000000000
20.453812785000,-0.248000000000
20.461499070000,-0.263000000000
20.469185355000,-0.263000000000
20.476871640000,-0.258000000000
20.484557925000,-0.256000000000
20.492244210000,-0.246000000000
20.499930495000,-0.231000000000
20.507616780000,-0.216000000000
20.515303065000,-0.206000000000
20.522989350000,-0.199000000000
20.530675635000,-0.189000000000
20.538361920000,-0.184000000000
20.546048205000,-0.184000000000
20.553734490000,-0.179000000000
20.561420775000,-0.172000000000
20.569107060000,-0.169000000000
20.576793345000,-0.172000000000
20.584479630000,-0.169000000000
20.592165915000,-0.167000000000
20.599852200000,-0.164000000000
20.607538485000,-0.169000000000
20.615224770000,-0.172000000000
20.622911055000,-0.167000000000
20.630597340000,-0.164000000000
20.638283625000,-0.167000000000
20.645969910000,-0.164000000000
20.653656195000,-0.162000000000
20.661342480000,-0.160000000000
20.669028765000,-0.155000000000
20.676715050000,-0.152000000000
20.684401335000,-0.152000000000
20.692087620000,-0.150000000000
20.699773905000,-0.145000000000
20.707460190000,-0.142000000000
20.715146475000,-0.135000000000
20.722832760000,-0.132000000000
20.730519045000,-0.132000000000
20.738205330000,-0.130000000000
20.745891615000,-0.128000000000
20.753577900000,-0.120000000000
20.761264185000,-0.103000000000
20.768950470000,-0.076000000000
20.776636755000,-0.066000000000
20.784323040000,-0.073000000000
20.792009325000,-0.071000000000
20.799695610000,-0.083000000000
20.807381895000,-0.125000000000
20.815068180000,-0.140000000000
20.822754465000,-0.125000000000
20.830440750000,-0.118000000000
20.838127035000,-0.118000000000
20.845813320000,-0.115000000000
20.853499605000,-0.113000000000
20.861185890000,-0.113000000000
20.868872175000,-0.118000000000
20.876558516000,-0.140000000000
20.884245219000,-0.201000000000
20.891931922000,-0.241000000000
20.899618625000,-0.002000000000
20.907305328000,0.669000000000
20.914992031000,1.509000000000
20.922678734000,1.905000000000
20.930365437000,1.075000000000
20.938052140000,-0.403000000000
20.945738843000,-0.713000000000
20.953425546000,-0.172000000000
20.961112249000,-0.167000000000
20.968798952000,-0.324000000000
20.976485655000,-0.201000000000
20.984172358000,-0.160000000000
20.991859061000,-0.206000000000
20.999545764000,-0.164000000000
21.007232467000,-0.125000000000
21.014919170000,-0.132000000000
21.022605873000,-0.110000000000
21.030292576000,-0.078000000000
21.037979279000,-0.068000000000
21.045665982000,-0.049000000000
21.053352685000,-0.019000000000
21.061039388000,0.007000000000
21.068726091000,0.032000000000
21.076412794000,0.061000000000
21.084099497000,0.096000000000
21.091786200000,0.132000000000
21.099472903000,0.169000000000
21.107159606000,0.201000000000
21.114846309000,0.226000000000
21.122533012000,0.238000000000
21.130219715000,0.236000000000
21.137906418000,0.221000000000
21.145593121000,0.201000000000
21.153279824000,0.169000000000
21.160966527000,0.125000000000
21.168653230000,0.068000000000
21.176339933000,-0.004000000000
21.184026636000,-0.083000000000
21.191713339000,-0.157000000000
21.199400042000,-0.214000000000
21.207086745000,-0.251000000000
21.214773448000,-0.275000000000
21.222460151000,-0.285000000000
21.230146854000,-0.285000000000
21.237833557000,-0.280000000000
21.245520260000,-0.268000000000
21.253206963000,-0.258000000000
21.260893666000,-0.248000000000
21.268580369000,-0.233000000000
21.276267072000,-0.224000000000
21.283953775000,-0.214000000000
21.291640478000,-0.201000000000
21.299327181000,-0.194000000000
21.307013884000,-0.189000000000
21.314700587000,-0.184000000000
21.322387290000,-0.179000000000
21.330073993000,-0.172000000000
21.337760696000,-0.169000000000
21.345447399000,-0.169000000000
21.353134102000,-0.167000000000
21.360820805000,-0.164000000000
21.368507508000,-0.169000000000
21.376194211000,-0.169000000000
21.383880914000,-0.167000000000
21.391567617000,-0.167000000000
21.399254320000,-0.164000000000
21.406941023000,-0.160000000000
21.414627726000,-0.157000000000
21.422314429000,-0.157000000000
21.430001132000,-0.155000000000
21.437687895000,-0.152000000000
21.445374459000,-0.147000000000
21.453061023000,-0.137000000000
21.460747587000,-0.132000000000
21.468434151000,-0.128000000000
21.476120715000,-0.125000000000
21.483807279000,-0.123000000000
21.491493843000,-0.120000000000
21.499180407000,-0.120000000000
21.506866971000,-0.120000000000
21.514553535000,-0.123000000000
21.522240099000,-0.123000000000
21.529926663000,-0.108000000000
21.537613227000,-0.081000000000
21.545299791000,-0.064000000000
21.552986355000,-0.066000000000
21.560672919000,-0.068000000000
21.568359483000,-0.066000000000
21.576046047000,-0.088000000000
21.583732611000,-0.123000000000
21.591419175000,-0.130000000000
21.599105739000,-0.118000000000
21.606792303000,-0.113000000000
21.614478867000,-0.113000000000
21.622165431000,-0.105000000000
21.629851995000,-0.100000000000
21.637538559000,-0.098000000000
21.645225123000,-0.105000000000
21.652911687000,-0.135000000000
21.660598251000,-0.201000000000
21.668284815000,-0.199000000000
21.675971379000,0.130000000000
21.683657943000,0.854000000000
21.691344507000,1.664000000000
21.699031071000,1.873000000000
21.706717635000,0.787000000000
21.714404199000,-0.578000000000
21.722090763000,-0.585000000000
21.729777327000,-0.088000000000
21.737463891000,-0.204000000000
21.745150455000,-0.310000000000
21.752837019000,-0.174000000000
21.760523583000,-0.169000000000
21.768210147000,-0.206000000000
21.775896711000,-0.150000000000
21.783583275000,-0.115000000000
21.791269839000,-0.118000000000
21.798956403000,-0.093000000000
21.806642967000,-0.064000000000
21.814329531000,-0.054000000000
21.822016095000,-0.029000000000
21.829702659000,0.000000000000
21.837389223000,0.022000000000
21.845075787000,0.049000000000
21.852762351000,0.081000000000
21.860448915000,0.115000000000
21.868135479000,0.155000000000
21.875822043000,0.194000000000
21.883508607000,0.231000000000
21.891195171000,0.253000000000
21.898881735000,0.265000000000
21.906568299000,0.263000000000
21.914254863000,0.248000000000
21.921941427000,0.224000000000
21.929627991000,0.192000000000
21.937314555000,0.152000000000
21.945001119000,0.088000000000
21.952687683000,0.007000000000
21.960374247000,-0.071000000000
21.968060811000,-0.140000000000
21.975747375000,-0.196000000000
21.983433939000,-0.238000000000
21.991120503000,-0.263000000000
21.998807104000,-0.273000000000
22.006493529000,-0.273000000000
22.014179954000,-0.268000000000
22.021866379000,-0.260000000000
22.029552804000,-0.246000000000
22.037239229000,-0.231000000000
22.044925654000,-0.221000000000
22.052612079000,-0.206000000000
22.060298504000,-0.194000000000
22.067984929000,-0.192000000000
22.075671354000,-0.187000000000
22.083357779000,-0.182000000000
22.091044204000,-0.174000000000
22.098730629000,-0.169000000000
22.106417054000,-0.169000000000
22.114103479000,-0.169000000000
22.121789904000,-0.169000000000
22.129476329000,-0.169000000000
22.137162754000,-0.167000000000
22.144849179000,-0.164000000000
22.152535604000,-0.164000000000
22.160222029000,-0.164000000000
22.167908454000,-0.162000000000
22.175594879000,-0.162000000000
22.183281304000,-0.162000000000
22.190967729000,-0.162000000000
22.198654154000,-0.160000000000
22.206340579000,-0.155000000000
22.214027004000,-0.152000000000
22.221713429000,-0.145000000000
22.229399854000,-0.142000000000
22.237086279000,-0.142000000000
22.244772704000,-0.140000000000
22.252459129000,-0.137000000000
22.260145554000,-0.140000000000
22.267831979000,-0.140000000000
22.275518404000,-0.132000000000
22.283204829000,-0.128000000000
22.290891254000,-0.125000000000
22.298577679000,-0.120000000000
22.306264104000,-0.120000000000
22.313950529000,-0.120000000000
22.321636954000,-0.108000000000
22.329323379000,-0.086000000000
22.337009804000,-0.066000000000
22.344696229000,-0.061000000000
22.352382654000,-0.068000000000
22.360069079000,-0.068000000000
22.367755504000,-0.078000000000
22.375441929000,-0.113000000000
22.383128354000,-0.130000000000
22.390814779000,-0.118000000000
22.398501204000,-0.108000000000
22.406187629000,-0.110000000000
22.413874054000,-0.108000000000
22.421560479000,-0.105000000000
22.429246904000,-0.105000000000
22.436933329000,-0.108000000000
22.444619754000,-0.130000000000
22.452306179000,-0.184000000000
22.459992604000,-0.224000000000
22.467679029000,-0.027000000000
22.475365454000,0.578000000000
22.483051879000,1.413000000000
22.490738304000,1.934000000000
22.498424729000,1.280000000000
22.506111154000,-0.224000000000
22.513797579000,-0.726000000000
22.521484004000,-0.209000000000
22.529170429000,-0.130000000000
22.536856854000,-0.320000000000
22.544543279000,-0.224000000000
22.552229704000,-0.155000000000
22.559916135000,-0.206000000000
22.567602838000,-0.177000000000
22.575289541000,-0.123000000000
22.582976244000,-0.120000000000
22.590662947000,-0.110000000000
22.598349650000,-0.081000000000
22.606036353000,-0.059000000000
22.613723056000,-0.039000000000
22.621409759000,-0.014000000000
22.629096462000,0.014000000000
22.636783165000,0.051000000000
22.644469868000,0.088000000000
22.652156571000,0.120000000000
22.659843274000,0.147000000000
22.667529977000,0.179000000000
22.675216680000,0.219000000000
22.682903383000,0.253000000000
22.690590086000,0.270000000000
22.698276789000,0.273000000000
22.705963492000,0.263000000000
22.713650195000,0.243000000000
22.721336898000,0.226000000000
22.729023601000,0.192000000000
22.736710304000,0.130000000000
22.744397007000,0.051000000000
22.752083710000,-0.022000000000
22.759770413000,-0.098000000000
22.767457116000,-0.162000000000
22.775143819000,-0.209000000000
22.782830522000,-0.243000000000
22.790517225000,-0.263000000000
22.798203928000,-0.263000000000
22.805890631000,-0.258000000000
22.813577334000,-0.253000000000
22.821264037000,-0.248000000000
22.828950740000,-0.231000000000
22.836637443000,-0.216000000000
22.844324146000,-0.204000000000
22.852010849000,-0.192000000000
22.859697552000,-0.187000000000
22.867384255000,-0.184000000000
22.875070958000,-0.177000000000
22.882757661000,-0.169000000000
22.890444364000,-0.172000000000
22.898131067000,-0.169000000000
22.905817770000,-0.167000000000
22.913504473000,-0.164000000000
22.921191176000,-0.157000000000
22.928877879000,-0.150000000000
22.936564582000,-0.157000000000
22.944251285000,-0.160000000000
22.951937988000,-0.147000000000
22.959624691000,-0.142000000000
22.967311394000,-0.147000000000
22.974998097000,-0.147000000000
22.982684800000,-0.150000000000
22.990371503000,-0.150000000000
22.998058206000,-0.137000000000
23.005744909000,-0.130000000000
23.013431612000,-0.130000000000
23.021118315000,-0.125000000000
23.028805018000,-0.123000000000
23.036491721000,-0.115000000000
23.044178424000,-0.113000000000
23.051865127000,-0.115000000000
23.059551830000,-0.113000000000
23.067238533000,-0.105000000000
23.074925236000,-0.105000000000
23.082611939000,-0.105000000000
23.090298642000,-0.096000000000
23.097985345000,-0.091000000000
23.105672048000,-0.088000000000
23.113358751000,-0.071000000000
23.121045518000,-0.039000000000
23.128731803000,-0.032000000000
23.136418088000,-0.046000000000
23.144104373000,-0.051000000000
23.151790658000,-0.068000000000
23.159476943000,-0.098000000000
23.167163228000,-0.100000000000
23.174849513000,-0.093000000000
23.182535798000,-0.091000000000
23.190222083000,-0.088000000000
23.197908368000,-0.086000000000
23.205594653000,-0.086000000000
23.213280938000,-0.081000000000
23.220967223000,-0.086000000000
23.228653508000,-0.128000000000
23.236339793000,-0.187000000000
23.244026078000,-0.162000000000
23.251712363000,0.189000000000
23.259398648000,0.942000000000
23.267084933000,1.720000000000
23.274771218000,1.806000000000
23.282457503000,0.664000000000
23.290143788000,-0.598000000000
23.297830073000,-0.521000000000
23.305516358000,-0.068000000000
23.313202643000,-0.204000000000
23.320888928000,-0.270000000000
23.328575213000,-0.137000000000
23.336261498000,-0.137000000000
23.343947783000,-0.157000000000
23.351634068000,-0.103000000000
23.359320353000,-0.078000000000
23.367006638000,-0.081000000000
23.374692923000,-0.061000000000
23.382379208000,-0.032000000000
23.390065493000,-0.007000000000
23.397751778000,0.007000000000
23.405438063000,0.029000000000
23.413124348000,0.068000000000
23.420810633000,0.108000000000
23.428496918000,0.142000000000
23.436183203000,0.169000000000
23.443869488000,0.204000000000
23.451555773000,0.253000000000
23.459242058000,0.290000000000
23.466928343000,0.310000000000
23.474614628000,0.329000000000
23.482300913000,0.329000000000
23.489987198000,0.305000000000
23.497673483000,0.280000000000
23.505359768000,0.241000000000
23.513046053000,0.187000000000
23.520732338000,0.123000000000
23.528418623000,0.044000000000
23.536104908000,-0.049000000000
23.543791193000,-0.132000000000
23.551477478000,-0.196000000000
23.559163763000,-0.231000000000
23.566850048000,-0.260000000000
23.574536333000,-0.278000000000
23.582222618000,-0.273000000000
23.589908903000,-0.263000000000
23.597595188000,-0.258000000000
23.605281473000,-0.243000000000
23.612967758000,-0.228000000000
23.620654043000,-0.224000000000
23.628340328000,-0.209000000000
23.636026613000,-0.196000000000
23.643712898000,-0.196000000000
23.651399183000,-0.187000000000
23.659085468000,-0.174000000000
23.666771753000,-0.169000000000
23.674458038000,-0.162000000000
23.682144379000,-0.150000000000
23.689830664000,-0.150000000000
23.697516949000,-0.157000000000
23.705203234000,-0.152000000000
23.712889519000,-0.147000000000
23.720575804000,-0.155000000000
23.728262089000,-0.157000000000
23.735948374000,-0.150000000000
23.743634659000,-0.147000000000
23.751320944000,-0.150000000000
23.759007229000,-0.150000000000
23.766693514000,-0.145000000000
23.774379799000,-0.150000000000
23.782066084000,-0.152000000000
23.789752369000,-0.147000000000
23.797438654000,-0.142000000000
23.805124939000,-0.145000000000
23.812811224000,-0.150000000000
23.820497509000,-0.150000000000
23.828183794000,-0.147000000000
23.835870079000,-0.140000000000
23.843556364000,-0.125000000000
23.851242649000,-0.105000000000
23.858928934000,-0.096000000000
23.866615219000,-0.086000000000
23.874301504000,-0.081000000000
23.881987789000,-0.093000000000
23.889674074000,-0.128000000000
23.897360359000,-0.152000000000
23.905046644000,-0.140000000000
23.912732929000,-0.125000000000
23.920419214000,-0.128000000000
23.928105499000,-0.130000000000
23.935791784000,-0.123000000000
23.943478069000,-0.110000000000
23.951164354000,-0.118000000000
23.958850639000,-0.147000000000
23.966536924000,-0.199000000000
23.974223209000,-0.221000000000
23.981909494000,0.034000000000
23.989595779000,0.726000000000
23.997282064000,1.545000000000
24.004968349000,1.856000000000
24.012654634000,0.967000000000
24.020340919000,-0.445000000000
24.028027204000,-0.662000000000
24.035713489000,-0.132000000000
24.043399774000,-0.160000000000
24.051086059000,-0.300000000000
24.058772344000,-0.169000000000
24.066458629000,-0.140000000000
24.074144914000,-0.194000000000
24.081831199000,-0.150000000000
24.089517484000,-0.113000000000
24.097203769000,-0.120000000000
24.104890054000,-0.100000000000
24.112576339000,-0.071000000000
24.120262624000,-0.054000000000
24.127948909000,-0.032000000000
24.135635194000,-0.004000000000
24.143321479000,0.017000000000
24.151007764000,0.041000000000
24.158694049000,0.073000000000
24.166380334000,0.110000000000
24.174066619000,0.145000000000
24.181752904000,0.184000000000
24.189439189000,0.221000000000
24.197125474000,0.251000000000
24.204811759000,0.260000000000
24.212498044000,0.253000000000
24.220184329000,0.233000000000
24.227870614000,0.209000000000
24.235556899000,0.177000000000
24.243243240000,0.128000000000
24.250929943000,0.061000000000
24.258616646000,-0.019000000000
24.266303349000,-0.103000000000
24.273990052000,-0.179000000000
24.281676755000,-0.238000000000
24.289363458000,-0.273000000000
24.297050161000,-0.295000000000
24.304736864000,-0.302000000000
24.312423567000,-0.295000000000
24.320110270000,-0.288000000000
24.327796973000,-0.285000000000
24.335483676000,-0.275000000000
24.343170379000,-0.258000000000
24.350857082000,-0.246000000000
24.358543785000,-0.233000000000
24.366230488000,-0.221000000000
24.373917191000,-0.214000000000
24.381603894000,-0.211000000000
24.389290597000,-0.201000000000
24.396977300000,-0.196000000000
24.404664003000,-0.192000000000
24.412350706000,-0.184000000000
24.420037409000,-0.179000000000
24.427724112000,-0.182000000000
24.435410815000,-0.177000000000
24.443097518000,-0.172000000000
24.450784221000,-0.169000000000
24.458470924000,-0.172000000000
24.466157627000,-0.174000000000
24.473844330000,-0.177000000000
24.481531033000,-0.177000000000
24.489217736000,-0.174000000000
24.496904439000,-0.169000000000
24.504591142000,-0.164000000000
24.512277845000,-0.164000000000
24.519964548000,-0.167000000000
24.527651251000,-0.162000000000
24.535337954000,-0.152000000000
24.543024657000,-0.147000000000
24.550711360000,-0.140000000000
24.558398063000,-0.135000000000
24.566084766000,-0.135000000000
24.573771469000,-0.135000000000
24.581458172000,-0.132000000000
24.589144875000,-0.130000000000
24.596831578000,-0.120000000000
24.604518281000,-0.098000000000
24.612204984000,-0.083000000000
24.619891687000,-0.083000000000
24.627578390000,-0.078000000000
24.635265093000,-0.073000000000
24.642951796000,-0.086000000000
24.650638499000,-0.118000000000
24.658325202000,-0.132000000000
24.666011905000,-0.120000000000
24.673698608000,-0.113000000000
24.681385311000,-0.113000000000
24.689072014000,-0.110000000000
24.696758717000,-0.105000000000
24.704445420000,-0.105000000000
24.712132123000,-0.115000000000
24.719818826000,-0.147000000000
24.727505529000,-0.211000000000
24.735192232000,-0.184000000000
24.742878935000,0.196000000000
24.750565638000,0.957000000000
24.758252341000,1.740000000000
24.765939044000,1.829000000000
24.773625747000,0.630000000000
24.781312450000,-0.654000000000
24.788999153000,-0.541000000000
24.796685856000,-0.076000000000
24.804372619000,-0.228000000000
24.812058904000,-0.310000000000
24.819745189000,-0.169000000000
24.827431474000,-0.174000000000
24.835117759000,-0.206000000000
24.842804044000,-0.152000000000
24.850490329000,-0.130000000000
24.858176614000,-0.132000000000
24.865862899000,-0.103000000000
24.873549184000,-0.078000000000
24.881235469000,-0.066000000000
24.888921754000,-0.044000000000
24.896608039000,-0.017000000000
24.904294324000,0.009000000000
24.911980609000,0.046000000000
24.919666894000,0.091000000000
24.927353179000,0.130000000000
24.935039464000,0.169000000000
24.942725749000,0.209000000000
24.950412034000,0.246000000000
24.958098319000,0.270000000000
24.965784604000,0.280000000000
24.973470889000,0.275000000000
24.981157174000,0.263000000000
24.988843459000,0.241000000000
24.996529744000,0.214000000000
25.004216029000,0.169000000000
25.011902314000,0.100000000000
25.019588599000,0.014000000000
25.027274884000,-0.071000000000
25.034961169000,-0.145000000000
25.042647454000,-0.206000000000
25.050333739000,-0.248000000000
25.058020024000,-0.273000000000
25.065706309000,-0.280000000000
25.073392594000,-0.280000000000
25.081078879000,-0.275000000000
25.088765164000,-0.270000000000
25.096451449000,-0.253000000000
25.104137734000,-0.233000000000
25.111824019000,-0.221000000000
25.119510304000,-0.211000000000
25.127196589000,-0.201000000000
25.134882874000,-0.192000000000
25.142569159000,-0.182000000000
25.150255444000,-0.177000000000
25.157941729000,-0.174000000000
25.165628014000,-0.174000000000
25.173314299000,-0.169000000000
25.181000584000,-0.164000000000
25.188686869000,-0.164000000000
25.196373154000,-0.167000000000
25.204059439000,-0.167000000000
25.211745724000,-0.164000000000
25.219432009000,-0.164000000000
25.227118294000,-0.167000000000
25.234804579000,-0.167000000000
25.242490864000,-0.169000000000
25.250177149000,-0.169000000000
25.257863434000,-0.164000000000
25.265549719000,-0.160000000000
25.273236004000,-0.160000000000
25.280922289000,-0.157000000000
25.288608574000,-0.150000000000
25.296294859000,-0.145000000000
25.303981144000,-0.140000000000
25.311667429000,-0.135000000000
25.319353714000,-0.130000000000
25.327039999000,-0.125000000000
25.334726284000,-0.120000000000
25.342412569000,-0.115000000000
25.350098854000,-0.118000000000
25.357785139000,-0.120000000000
25.365471480000,-0.118000000000
25.373158183000,-0.103000000000
25.380844886000,-0.083000000000
25.388531589000,-0.066000000000
25.396218292000,-0.064000000000
25.403904995000,-0.064000000000
25.411591698000,-0.066000000000
25.419278401000,-0.096000000000
25.426965104000,-0.130000000000
25.434651807000,-0.135000000000
25.442338510000,-0.118000000000
25.450025213000,-0.110000000000
25.457711916000,-0.110000000000
25.465398619000,-0.108000000000
25.473085322000,-0.108000000000
25.480772025000,-0.105000000000
25.488458728000,-0.115000000000
25.496145431000,-0.145000000000
25.503832134000,-0.209000000000
25.511518837000,-0.204000000000
25.519205540000,0.110000000000
25.526892243000,0.814000000000
25.534578946000,1.627000000000
25.542265649000,1.893000000000
25.549952352000,0.864000000000
25.557639055000,-0.553000000000
25.565325758000,-0.635000000000
25.573012461000,-0.113000000000
25.580699164000,-0.204000000000
25.588385867000,-0.332000000000
25.596072570000,-0.196000000000
25.603759273000,-0.182000000000
25.611445976000,-0.226000000000
25.619132679000,-0.172000000000
25.626819382000,-0.132000000000
25.634506085000,-0.135000000000
25.642192788000,-0.115000000000
25.649879491000,-0.083000000000
25.657566194000,-0.066000000000
25.665252897000,-0.044000000000
25.672939600000,-0.017000000000
25.680626303000,0.012000000000
25.688313006000,0.041000000000
25.695999709000,0.076000000000
25.703686412000,0.115000000000
25.711373115000,0.160000000000
25.719059818000,0.199000000000
25.726746521000,0.236000000000
25.734433224000,0.265000000000
25.742119927000,0.280000000000
25.749806630000,0.280000000000
25.757493333000,0.270000000000
25.765180036000,0.253000000000
25.772866739000,0.226000000000
25.780553442000,0.179000000000
25.788240145000,0.113000000000
25.795926848000,0.029000000000
25.803613551000,-0.059000000000
25.811300254000,-0.132000000000
25.818986957000,-0.196000000000
25.826673660000,-0.246000000000
25.834360363000,-0.275000000000
25.842047066000,-0.283000000000
25.849733769000,-0.280000000000
25.857420472000,-0.275000000000
25.865107175000,-0.268000000000
25.872793878000,-0.258000000000
25.880480581000,-0.246000000000
25.888167284000,-0.233000000000
25.895853987000,-0.221000000000
25.903540690000,-0.211000000000
25.911227393000,-0.201000000000
25.918914096000,-0.196000000000
25.926600859000,-0.194000000000
25.934287144000,-0.189000000000
25.941973429000,-0.184000000000
25.949659714000,-0.182000000000
25.957345999000,-0.182000000000
25.965032284000,-0.179000000000
25.972718569000,-0.179000000000
25.980404854000,-0.177000000000
25.988091139000,-0.174000000000
25.995777424000,-0.172000000000
26.003463709000,-0.174000000000
26.011149994000,-0.172000000000
26.018836279000,-0.169000000000
26.026522564000,-0.172000000000
26.034208849000,-0.169000000000
26.041895134000,-0.169000000000
26.049581419000,-0.167000000000
26.057267704000,-0.162000000000
26.064953989000,-0.155000000000
26.072640274000,-0.150000000000
26.080326559000,-0.147000000000
26.088012844000,-0.145000000000
26.095699129000,-0.140000000000
26.103385414000,-0.137000000000
26.111071699000,-0.137000000000
26.118757984000,-0.130000000000
26.126444269000,-0.123000000000
26.134130554000,-0.118000000000
26.141816839000,-0.118000000000
26.149503124000,-0.118000000000
26.157189409000,-0.110000000000
26.164875694000,-0.096000000000
26.172561979000,-0.073000000000
26.180248264000,-0.059000000000
26.187934549000,-0.061000000000
26.195620834000,-0.056000000000
26.203307119000,-0.059000000000
26.210993404000,-0.091000000000
26.218679689000,-0.123000000000
26.226365974000,-0.118000000000
26.234052259000,-0.105000000000
26.241738544000,-0.105000000000
26.249424829000,-0.108000000000
26.257111114000,-0.105000000000
26.264797399000,-0.098000000000
26.272483684000,-0.096000000000
26.280169969000,-0.113000000000
26.287856254000,-0.150000000000
26.295542539000,-0.216000000000
26.303228824000,-0.187000000000
26.310915109000,0.199000000000
26.318601394000,0.962000000000
26.326287679000,1.740000000000
26.333973964000,1.806000000000
26.341660249000,0.585000000000
26.349346534000,-0.662000000000
26.357032819000,-0.519000000000
26.364719104000,-0.071000000000
26.372405389000,-0.231000000000
26.380091674000,-0.295000000000
26.387777959000,-0.155000000000
26.395464244000,-0.169000000000
26.403150529000,-0.199000000000
26.410836814000,-0.142000000000
26.418523099000,-0.118000000000
26.426209384000,-0.120000000000
26.433895669000,-0.088000000000
26.441581954000,-0.056000000000
26.449268239000,-0.039000000000
26.456954524000,-0.019000000000
26.464640809000,0.012000000000
26.472327094000,0.044000000000
26.480013379000,0.078000000000
26.487699720000,0.110000000000
26.495386423000,0.140000000000
26.503073126000,0.172000000000
26.510759829000,0.206000000000
26.518446532000,0.241000000000
26.526133235000,0.265000000000
26.533819938000,0.280000000000
26.541506641000,0.280000000000
26.549193344000,0.265000000000
26.556880047000,0.248000000000
26.564566750000,0.221000000000
26.572253453000,0.174000000000
26.579940156000,0.108000000000
26.587626859000,0.032000000000
26.595313562000,-0.054000000000
26.603000265000,-0.132000000000
26.610686968000,-0.196000000000
26.618373671000,-0.241000000000
26.626060374000,-0.270000000000
26.633747077000,-0.280000000000
26.641433780000,-0.270000000000
26.649120483000,-0.256000000000
26.656807186000,-0.248000000000
26.664493889000,-0.243000000000
26.672180592000,-0.233000000000
26.679867295000,-0.219000000000
26.687553998000,-0.209000000000
26.695240701000,-0.201000000000
26.702927404000,-0.194000000000
26.710614107000,-0.184000000000
26.718300810000,-0.179000000000
26.725987513000,-0.177000000000
26.733674216000,-0.174000000000
26.741360919000,-0.174000000000
26.749047622000,-0.174000000000
26.756734325000,-0.172000000000
26.764421028000,-0.164000000000
26.772107731000,-0.160000000000
26.779794434000,-0.147000000000
26.787481137000,-0.147000000000
26.795167840000,-0.162000000000
26.802854543000,-0.164000000000
26.810541246000,-0.152000000000
26.818227949000,-0.150000000000
26.825914652000,-0.152000000000
26.833601355000,-0.147000000000
26.841288058000,-0.142000000000
26.848974761000,-0.142000000000
26.856661464000,-0.137000000000
26.864348167000,-0.132000000000
26.872034870000,-0.128000000000
26.879721573000,-0.125000000000
26.887408276000,-0.128000000000
26.895094979000,-0.125000000000
26.902781682000,-0.118000000000
26.910468385000,-0.118000000000
26.918155088000,-0.115000000000
26.925841791000,-0.108000000000
26.933528494000,-0.100000000000
26.941215197000,-0.098000000000
26.948901900000,-0.093000000000
26.956588603000,-0.078000000000
26.964275306000,-0.056000000000
26.971962009000,-0.039000000000
26.979648712000,-0.044000000000
26.987335415000,-0.051000000000
26.995022118000,-0.056000000000
27.002708821000,-0.076000000000
27.010395524000,-0.105000000000
27.018082227000,-0.110000000000
27.025768930000,-0.098000000000
27.033455633000,-0.083000000000
27.041142336000,-0.081000000000
27.048829103000,-0.086000000000
27.056515528000,-0.093000000000
27.064201953000,-0.091000000000
27.071888378000,-0.098000000000
27.079574803000,-0.130000000000
27.087261228000,-0.187000000000
27.094947653000,-0.172000000000
27.102634078000,0.160000000000
27.110320503000,0.888000000000
27.118006928000,1.686000000000
27.125693353000,1.861000000000
27.133379778000,0.772000000000
27.141066203000,-0.563000000000
27.148752628000,-0.571000000000
27.156439053000,-0.091000000000
27.164125478000,-0.196000000000
27.171811903000,-0.297000000000
27.179498328000,-0.167000000000
27.187184753000,-0.152000000000
27.194871178000,-0.184000000000
27.202557603000,-0.140000000000
27.210244028000,-0.110000000000
27.217930453000,-0.110000000000
27.225616878000,-0.083000000000
27.233303303000,-0.054000000000
27.240989728000,-0.036000000000
27.248676153000,-0.017000000000
27.256362578000,0.012000000000
27.264049003000,0.046000000000
27.271735428000,0.083000000000
27.279421853000,0.118000000000
27.287108278000,0.152000000000
27.294794703000,0.192000000000
27.302481128000,0.233000000000
27.310167553000,0.273000000000
27.317853978000,0.297000000000
27.325540403000,0.310000000000
27.333226828000,0.317000000000
27.340913253000,0.302000000000
27.348599678000,0.270000000000
27.356286103000,0.238000000000
27.363972528000,0.204000000000
27.371658953000,0.147000000000
27.379345378000,0.054000000000
27.387031803000,-0.041000000000
27.394718228000,-0.120000000000
27.402404653000,-0.182000000000
27.410091078000,-0.224000000000
27.417777503000,-0.248000000000
27.425463928000,-0.273000000000
27.433150353000,-0.280000000000
27.440836778000,-0.263000000000
27.448523203000,-0.253000000000
27.456209628000,-0.253000000000
27.463896053000,-0.243000000000
27.471582478000,-0.228000000000
27.479268903000,-0.216000000000
27.486955328000,-0.209000000000
27.494641753000,-0.199000000000
27.502328178000,-0.189000000000
27.510014603000,-0.187000000000
27.517701028000,-0.184000000000
27.525387453000,-0.179000000000
27.533073878000,-0.177000000000
27.540760303000,-0.174000000000
27.548446728000,-0.169000000000
27.556133153000,-0.167000000000
27.563819578000,-0.164000000000
27.571506003000,-0.164000000000
27.579192428000,-0.167000000000
27.586878853000,-0.167000000000
27.594565278000,-0.162000000000
27.602251703000,-0.162000000000
27.609938138000,-0.160000000000
27.617624702000,-0.160000000000
27.625311266000,-0.160000000000
27.632997830000,-0.155000000000
27.640684394000,-0.150000000000
27.648370958000,-0.150000000000
27.656057522000,-0.147000000000
27.663744086000,-0.142000000000
27.671430650000,-0.137000000000
27.679117214000,-0.132000000000
27.686803778000,-0.132000000000
27.694490342000,-0.130000000000
27.702176906000,-0.125000000000
27.709863470000,-0.128000000000
27.717550034000,-0.125000000000
27.725236598000,-0.110000000000
27.732923162000,-0.088000000000
27.740609726000,-0.066000000000
27.748296290000,-0.054000000000
27.755982854000,-0.056000000000
27.763669418000,-0.068000000000
27.771355982000,-0.088000000000
27.779042546000,-0.115000000000
27.786729110000,-0.125000000000
27.794415674000,-0.113000000000
27.802102238000,-0.108000000000
27.809788802000,-0.110000000000
27.817475366000,-0.108000000000
27.825161930000,-0.105000000000
27.832848494000,-0.103000000000
27.840535058000,-0.113000000000
27.848221622000,-0.147000000000
27.855908186000,-0.204000000000
27.863594750000,-0.182000000000
27.871281314000,0.187000000000
27.878967878000,0.947000000000
27.886654442000,1.710000000000
27.894341006000,1.772000000000
27.902027570000,0.593000000000
27.909714134000,-0.657000000000
27.917400698000,-0.534000000000
27.925087262000,-0.078000000000
27.932773826000,-0.231000000000
27.940460390000,-0.288000000000
27.948146954000,-0.145000000000
27.955833518000,-0.164000000000
27.963520082000,-0.194000000000
27.971206646000,-0.130000000000
27.978893210000,-0.108000000000
27.986579774000,-0.110000000000
27.994266338000,-0.078000000000
28.001952902000,-0.051000000000
28.009639466000,-0.039000000000
28.017326030000,-0.014000000000
28.025012594000,0.014000000000
28.032699158000,0.036000000000
28.040385722000,0.064000000000
28.048072286000,0.100000000000
28.055758850000,0.135000000000
28.063445414000,0.169000000000
28.071131978000,0.209000000000
28.078818542000,0.248000000000
28.086505106000,0.273000000000
28.094191670000,0.283000000000
28.101878234000,0.275000000000
28.109564798000,0.256000000000
28.117251362000,0.228000000000
28.124937926000,0.192000000000
28.132624490000,0.145000000000
28.140311054000,0.081000000000
28.147997618000,0.002000000000
28.155684182000,-0.086000000000
28.163370746000,-0.164000000000
28.171057343000,-0.226000000000
28.178743628000,-0.268000000000
28.186429913000,-0.290000000000
28.194116198000,-0.300000000000
28.201802483000,-0.300000000000
28.209488768000,-0.295000000000
28.217175053000,-0.283000000000
28.224861338000,-0.270000000000
28.232547623000,-0.260000000000
28.240233908000,-0.248000000000
28.247920193000,-0.231000000000
28.255606478000,-0.216000000000
28.263292763000,-0.204000000000
28.270979048000,-0.199000000000
28.278665333000,-0.194000000000
28.286351618000,-0.189000000000
28.294037903000,-0.187000000000
28.301724188000,-0.187000000000
28.309410473000,-0.184000000000
28.317096758000,-0.182000000000
28.324783043000,-0.177000000000
28.332469328000,-0.172000000000
28.340155613000,-0.172000000000
28.347841898000,-0.174000000000
28.355528183000,-0.174000000000
28.363214468000,-0.174000000000
28.370900753000,-0.174000000000
28.378587038000,-0.174000000000
28.386273323000,-0.172000000000
28.393959608000,-0.167000000000
28.401645893000,-0.162000000000
28.409332178000,-0.157000000000
28.417018463000,-0.155000000000
28.424704748000,-0.147000000000
28.432391033000,-0.145000000000
28.440077318000,-0.142000000000
28.447763603000,-0.137000000000
28.455449888000,-0.130000000000
28.463136173000,-0.125000000000
28.470822458000,-0.120000000000
28.478508743000,-0.115000000000
28.486195028000,-0.110000000000
28.493881313000,-0.110000000000
28.501567598000,-0.115000000000
28.509253883000,-0.123000000000
28.516940168000,-0.120000000000
28.524626453000,-0.108000000000
28.532312738000,-0.088000000000
28.539999023000,-0.076000000000
28.547685308000,-0.071000000000
28.555371593000,-0.071000000000
28.563057878000,-0.073000000000
28.570744163000,-0.091000000000
28.578430448000,-0.120000000000
28.586116733000,-0.132000000000
28.593803018000,-0.118000000000
28.601489303000,-0.108000000000
28.609175588000,-0.103000000000
28.616861873000,-0.098000000000
28.624548158000,-0.096000000000
28.632234443000,-0.098000000000
28.639920728000,-0.105000000000
28.647607013000,-0.142000000000
28.655293298000,-0.211000000000
28.662979583000,-0.182000000000
28.670665868000,0.196000000000
28.678352153000,0.947000000000
28.686038438000,1.728000000000
28.693724723000,1.834000000000
28.701411008000,0.647000000000
28.709097293000,-0.635000000000
28.716783578000,-0.526000000000
28.724469863000,-0.066000000000
28.732156204000,-0.221000000000
28.739842907000,-0.302000000000
28.747529610000,-0.162000000000
28.755216313000,-0.172000000000
28.762903016000,-0.204000000000
28.770589719000,-0.145000000000
28.778276422000,-0.118000000000
28.785963125000,-0.125000000000
28.793649828000,-0.098000000000
28.801336531000,-0.064000000000
28.809023234000,-0.049000000000
28.816709937000,-0.029000000000
28.824396640000,-0.002000000000
28.832083343000,0.022000000000
28.839770046000,0.049000000000
28.847456749000,0.086000000000
28.855143452000,0.123000000000
28.862830155000,0.157000000000
28.870516858000,0.196000000000
28.878203561000,0.238000000000
28.885890264000,0.265000000000
28.893576967000,0.278000000000
28.901263670000,0.280000000000
28.908950373000,0.268000000000
28.916637076000,0.243000000000
28.924323779000,0.214000000000
28.932010482000,0.174000000000
28.939697185000,0.115000000000
28.947383888000,0.034000000000
28.955070591000,-0.049000000000
28.962757294000,-0.128000000000
28.970443997000,-0.189000000000
28.978130700000,-0.233000000000
28.985817403000,-0.258000000000
28.993504106000,-0.268000000000
29.001190809000,-0.270000000000
29.008877512000,-0.268000000000
29.016564215000,-0.260000000000
29.024250918000,-0.241000000000
29.031937621000,-0.224000000000
29.039624324000,-0.214000000000
29.047311027000,-0.201000000000
29.054997730000,-0.189000000000
29.062684433000,-0.187000000000
29.070371136000,-0.182000000000
29.078057839000,-0.172000000000
29.085744542000,-0.172000000000
29.093431245000,-0.169000000000
29.101117948000,-0.162000000000
29.108804651000,-0.162000000000
29.116491354000,-0.162000000000
29.124178057000,-0.160000000000
29.131864760000,-0.160000000000
29.139551463000,-0.160000000000
29.147238166000,-0.162000000000
29.154924869000,-0.162000000000
29.162611572000,-0.157000000000
29.170298275000,-0.150000000000
29.177984978000,-0.150000000000
29.185671681000,-0.152000000000
29.193358384000,-0.157000000000
29.201045087000,-0.155000000000
29.208731790000,-0.150000000000
29.216418493000,-0.147000000000
29.224105196000,-0.145000000000
29.231791899000,-0.140000000000
29.239478602000,-0.135000000000
29.247165305000,-0.132000000000
29.254852008000,-0.130000000000
29.262538711000,-0.130000000000
29.270225414000,-0.128000000000
29.277912117000,-0.120000000000
29.285598820000,-0.113000000000
29.293285583000,-0.108000000000
29.300971868000,-0.105000000000
29.308658153000,-0.113000000000
29.316344438000,-0.113000000000
