time,LSB
0.000000000000,0.110000000000
0.007687121000,-0.374000000000
0.015374242000,-0.310000000000
0.023061363000,-0.182000000000
0.030748484000,-0.221000000000
0.038435605000,-0.172000000000
0.046122726000,-0.088000000000
0.053809847000,-0.113000000000
0.061496968000,-0.125000000000
0.069184089000,-0.088000000000
0.076871210000,-0.081000000000
0.084558331000,-0.091000000000
0.092245452000,-0.083000000000
0.099932573000,-0.073000000000
0.107619694000,-0.066000000000
0.115306815000,-0.061000000000
0.122993936000,-0.069000000000
0.130681057000,-0.061000000000
0.138368178000,-0.041000000000
0.146055299000,-0.039000000000
0.153742420000,-0.054000000000
0.161429541000,-0.054000000000
0.169116662000,-0.039000000000
0.176803783000,-0.029000000000
0.184490904000,-0.014000000000
0.192178025000,-0.007000000000
0.199865146000,-0.002000000000
0.207552267000,0.019000000000
0.215239388000,0.044000000000
0.222926509000,0.064000000000
0.230613630000,0.078000000000
0.238300751000,0.076000000000
0.245987872000,0.069000000000
0.253674993000,0.073000000000
0.261362114000,0.064000000000
0.269049235000,0.032000000000
0.276736356000,-0.017000000000
0.284423477000,-0.071000000000
0.292110598000,-0.106000000000
0.299797719000,-0.135000000000
0.307484840000,-0.157000000000
0.315171961000,-0.165000000000
0.322859082000,-0.162000000000
0.330546203000,-0.160000000000
0.338233324000,-0.160000000000
0.345920513000,-0.160000000000
0.353607634000,-0.157000000000
0.361294755000,-0.152000000000
0.368981876000,-0.145000000000
0.376668997000,-0.147000000000
0.384356118000,-0.147000000000
0.392043239000,-0.128000000000
0.399730360000,-0.115000000000
0.407417481000,-0.120000000000
0.415104602000,-0.123000000000
0.422791723000,-0.118000000000
0.430478844000,-0.120000000000
0.438165965000,-0.120000000000
0.445853086000,-0.113000000000
0.453540207000,-0.106000000000
0.461227328000,-0.110000000000
0.468914449000,-0.118000000000
0.476601570000,-0.110000000000
0.484288691000,-0.108000000000
0.491975812000,-0.120000000000
0.499662933000,-0.113000000000
0.507350054000,-0.098000000000
0.515037175000,-0.101000000000
0.522724296000,-0.108000000000
0.530411417000,-0.103000000000
0.538098538000,-0.103000000000
0.545785659000,-0.101000000000
0.553472780000,-0.093000000000
0.561159901000,-0.088000000000
0.568847022000,-0.083000000000
0.576534143000,-0.081000000000
0.584221264000,-0.088000000000
0.591908385000,-0.091000000000
0.599595506000,-0.078000000000
0.607282627000,-0.083000000000
0.614969748000,-0.096000000000
0.622656869000,-0.088000000000
0.630343990000,-0.081000000000
0.638031111000,-0.081000000000
0.645718232000,-0.088000000000
0.653405353000,-0.093000000000
0.661092474000,-0.091000000000
0.668779595000,-0.083000000000
0.676466716000,-0.073000000000
0.684153837000,-0.064000000000
0.691840958000,-0.049000000000
0.699528079000,-0.032000000000
0.707215200000,-0.024000000000
0.714902321000,-0.027000000000
0.722589442000,-0.027000000000
0.730276563000,-0.034000000000
0.737963684000,-0.046000000000
0.745650805000,-0.061000000000
0.753337926000,-0.069000000000
0.761025047000,-0.056000000000
0.768712168000,-0.044000000000
0.776399289000,-0.056000000000
0.784086410000,-0.086000000000
0.791773531000,-0.049000000000
0.799460652000,0.229000000000
0.807147773000,0.678000000000
0.814834894000,0.720000000000
0.822522015000,0.103000000000
0.830209136000,-0.451000000000
0.837896257000,-0.379000000000
0.845583378000,-0.165000000000
0.853270499000,-0.170000000000
0.860957620000,-0.138000000000
0.868644741000,-0.036000000000
0.876331862000,-0.036000000000
0.884018983000,-0.061000000000
0.891706104000,-0.032000000000
0.899393225000,-0.012000000000
0.907080410000,-0.022000000000
0.914767322000,-0.014000000000
0.922454234000,-0.002000000000
0.930141146000,-0.004000000000
0.937828058000,-0.009000000000
0.945514970000,-0.007000000000
0.953201882000,0.002000000000
0.960888794000,0.019000000000
0.968575706000,0.024000000000
0.976262618000,0.019000000000
0.983949530000,0.024000000000
0.991636442000,0.036000000000
0.999323354000,0.049000000000
1.007010266000,0.073000000000
1.014697178000,0.096000000000
1.022384090000,0.103000000000
1.030071002000,0.118000000000
1.037757914000,0.143000000000
1.045444826000,0.145000000000
1.053131738000,0.140000000000
1.060818650000,0.150000000000
1.068505562000,0.160000000000
1.076192474000,0.147000000000
1.083879386000,0.115000000000
1.091566298000,0.076000000000
1.099253210000,0.032000000000
1.106940122000,-0.012000000000
1.114627034000,-0.059000000000
1.122313946000,-0.096000000000
1.130000858000,-0.118000000000
1.137687770000,-0.143000000000
1.145374682000,-0.162000000000
1.153061594000,-0.165000000000
1.160748506000,-0.152000000000
1.168435418000,-0.140000000000
1.176122330000,-0.140000000000
1.183809242000,-0.138000000000
1.191496154000,-0.123000000000
1.199183066000,-0.113000000000
1.206869978000,-0.113000000000
1.214556890000,-0.106000000000
1.222243802000,-0.103000000000
1.229930714000,-0.098000000000
1.237617626000,-0.091000000000
1.245304538000,-0.091000000000
1.252991450000,-0.108000000000
1.260678362000,-0.115000000000
1.268365274000,-0.106000000000
1.276052186000,-0.093000000000
1.283739098000,-0.088000000000
1.291426010000,-0.088000000000
1.299112922000,-0.093000000000
1.306799834000,-0.096000000000
1.314486746000,-0.103000000000
1.322173658000,-0.113000000000
1.329860570000,-0.115000000000
1.337547482000,-0.110000000000
1.345234394000,-0.098000000000
1.352921306000,-0.083000000000
1.360608218000,-0.093000000000
1.368295130000,-0.106000000000
1.375982042000,-0.098000000000
1.383668954000,-0.091000000000
1.391355866000,-0.101000000000
1.399042778000,-0.101000000000
1.406729690000,-0.101000000000
1.414416602000,-0.108000000000
1.422103514000,-0.113000000000
1.429790426000,-0.113000000000
1.437477338000,-0.098000000000
1.445164250000,-0.086000000000
1.452851162000,-0.083000000000
1.460538074000,-0.069000000000
1.468225050000,-0.051000000000
1.475911962000,-0.064000000000
1.483598874000,-0.081000000000
1.491285786000,-0.081000000000
1.498972698000,-0.073000000000
1.506659610000,-0.069000000000
1.514346522000,-0.071000000000
1.522033434000,-0.076000000000
1.529720346000,-0.081000000000
1.537407258000,-0.091000000000
1.545094170000,-0.110000000000
1.552781082000,-0.014000000000
1.560467994000,0.360000000000
1.568154906000,0.732000000000
1.575841818000,0.475000000000
1.583528730000,-0.258000000000
1.591215642000,-0.559000000000
1.598902554000,-0.325000000000
1.606589466000,-0.214000000000
1.614276378000,-0.246000000000
1.621963290000,-0.138000000000
1.629650202000,-0.049000000000
1.637337114000,-0.081000000000
1.645024026000,-0.093000000000
1.652710938000,-0.064000000000
1.660397850000,-0.046000000000
1.668084762000,-0.044000000000
1.675771674000,-0.049000000000
1.683458586000,-0.051000000000
1.691145498000,-0.041000000000
1.698832410000,-0.034000000000
1.706519322000,-0.034000000000
1.714206234000,-0.024000000000
1.721893146000,-0.014000000000
1.729580058000,-0.012000000000
1.737266970000,-0.009000000000
1.744953882000,-0.002000000000
1.752640794000,0.002000000000
1.760327706000,0.017000000000
1.768014618000,0.036000000000
1.775701530000,0.051000000000
1.783388442000,0.069000000000
1.791075354000,0.086000000000
1.798762266000,0.098000000000
1.806449178000,0.110000000000
1.814136090000,0.128000000000
1.821823002000,0.128000000000
1.829509914000,0.115000000000
1.837196826000,0.101000000000
1.844883738000,0.071000000000
1.852570650000,0.019000000000
1.860257562000,-0.032000000000
1.867944474000,-0.069000000000
1.875631386000,-0.103000000000
1.883318298000,-0.135000000000
1.891005210000,-0.147000000000
1.898692122000,-0.157000000000
1.906379034000,-0.175000000000
1.914065946000,-0.177000000000
1.921752858000,-0.165000000000
1.929439770000,-0.162000000000
1.937126682000,-0.160000000000
1.944813594000,-0.145000000000
1.952500506000,-0.133000000000
1.960187418000,-0.138000000000
1.967874330000,-0.135000000000
1.975561242000,-0.125000000000
1.983248154000,-0.118000000000
1.990935066000,-0.106000000000
1.998621978000,-0.108000000000
2.006308890000,-0.118000000000
2.013995802000,-0.113000000000
2.021682714000,-0.103000000000
2.029369686000,-0.103000000000
2.037056807000,-0.110000000000
2.044743928000,-0.115000000000
2.052431049000,-0.115000000000
2.060118170000,-0.110000000000
2.067805291000,-0.108000000000
2.075492412000,-0.113000000000
2.083179533000,-0.115000000000
2.090866654000,-0.115000000000
2.098553775000,-0.113000000000
2.106240896000,-0.106000000000
2.113928017000,-0.110000000000
2.121615138000,-0.110000000000
2.129302259000,-0.103000000000
2.136989380000,-0.106000000000
2.144676501000,-0.110000000000
2.152363622000,-0.118000000000
2.160050743000,-0.125000000000
2.167737864000,-0.133000000000
2.175424985000,-0.133000000000
2.183112106000,-0.118000000000
2.190799227000,-0.108000000000
2.198486348000,-0.115000000000
2.206173469000,-0.125000000000
2.213860590000,-0.125000000000
2.221547711000,-0.118000000000
2.229234832000,-0.108000000000
2.236921953000,-0.093000000000
2.244609074000,-0.088000000000
2.252296195000,-0.091000000000
2.259983316000,-0.078000000000
2.267670437000,-0.061000000000
2.275357558000,-0.076000000000
2.283044679000,-0.096000000000
2.290731800000,-0.091000000000
2.298418921000,-0.088000000000
2.306106042000,-0.096000000000
2.313793163000,-0.091000000000
2.321480284000,-0.088000000000
2.329167405000,-0.093000000000
2.336854526000,-0.110000000000
2.344541647000,-0.130000000000
2.352228768000,0.034000000000
2.359915889000,0.490000000000
2.367603010000,0.818000000000
2.375290131000,0.493000000000
2.382977252000,-0.180000000000
2.390664373000,-0.399000000000
2.398351494000,-0.209000000000
2.406038615000,-0.167000000000
2.413725736000,-0.197000000000
2.421412857000,-0.120000000000
2.429099978000,-0.101000000000
2.436787099000,-0.125000000000
2.444474220000,-0.098000000000
2.452161341000,-0.081000000000
2.459848462000,-0.091000000000
2.467535583000,-0.083000000000
2.475222704000,-0.066000000000
2.482909825000,-0.066000000000
2.490596946000,-0.064000000000
2.498284067000,-0.056000000000
2.505971188000,-0.059000000000
2.513658309000,-0.059000000000
2.521345430000,-0.051000000000
2.529032551000,-0.046000000000
2.536719672000,-0.041000000000
2.544406793000,-0.041000000000
2.552093914000,-0.036000000000
2.559781035000,-0.029000000000
2.567468156000,-0.027000000000
2.575155277000,-0.009000000000
2.582842398000,0.009000000000
2.590529583000,0.022000000000
2.598216704000,0.041000000000
2.605903825000,0.061000000000
2.613590946000,0.071000000000
2.621278067000,0.078000000000
2.628965188000,0.083000000000
2.636652309000,0.071000000000
2.644339430000,0.041000000000
2.652026551000,-0.004000000000
2.659713672000,-0.046000000000
2.667400793000,-0.076000000000
2.675087914000,-0.108000000000
2.682775035000,-0.135000000000
2.690462156000,-0.147000000000
2.698149277000,-0.152000000000
2.705836398000,-0.155000000000
2.713523519000,-0.150000000000
2.721210640000,-0.140000000000
2.728897761000,-0.138000000000
2.736584882000,-0.145000000000
2.744272003000,-0.145000000000
2.751959124000,-0.138000000000
2.759646245000,-0.133000000000
2.767333366000,-0.128000000000
2.775020487000,-0.123000000000
2.782707608000,-0.123000000000
2.790394729000,-0.123000000000
2.798081850000,-0.115000000000
2.805768971000,-0.115000000000
2.813456092000,-0.118000000000
2.821143213000,-0.118000000000
2.828830334000,-0.120000000000
2.836517455000,-0.120000000000
2.844204576000,-0.125000000000
2.851891697000,-0.120000000000
2.859578818000,-0.108000000000
2.867265939000,-0.108000000000
2.874953060000,-0.115000000000
2.882640181000,-0.118000000000
2.890327302000,-0.113000000000
2.898014423000,-0.110000000000
2.905701544000,-0.113000000000
2.913388665000,-0.113000000000
2.921075786000,-0.103000000000
2.928762907000,-0.101000000000
2.936450028000,-0.101000000000
2.944137149000,-0.093000000000
2.951824270000,-0.096000000000
2.959511391000,-0.101000000000
2.967198512000,-0.101000000000
2.974885633000,-0.098000000000
2.982572754000,-0.091000000000
2.990259875000,-0.091000000000
2.997946996000,-0.091000000000
3.005634117000,-0.086000000000
3.013321238000,-0.081000000000
3.021008359000,-0.091000000000
3.028695480000,-0.096000000000
3.036382601000,-0.096000000000
3.044069722000,-0.103000000000
3.051756843000,-0.103000000000
3.059443964000,-0.091000000000
3.067131085000,-0.081000000000
3.074818206000,-0.078000000000
3.082505327000,-0.073000000000
3.090192448000,-0.059000000000
3.097879569000,-0.051000000000
3.105566690000,-0.071000000000
3.113253811000,-0.088000000000
3.120940932000,-0.086000000000
3.128628053000,-0.083000000000
3.136315174000,-0.088000000000
3.144002295000,-0.083000000000
3.151689480000,-0.073000000000
3.159376253000,-0.083000000000
3.167063026000,-0.118000000000
3.174749799000,-0.096000000000
3.182436572000,0.165000000000
3.190123345000,0.623000000000
3.197810118000,0.724000000000
3.205496891000,0.167000000000
3.213183664000,-0.389000000000
3.220870437000,-0.369000000000
3.228557210000,-0.187000000000
3.236243983000,-0.212000000000
3.243930756000,-0.192000000000
3.251617529000,-0.098000000000
3.259304302000,-0.091000000000
3.266991075000,-0.101000000000
3.274677848000,-0.086000000000
3.282364621000,-0.091000000000
3.290051394000,-0.098000000000
3.297738167000,-0.073000000000
3.305424940000,-0.056000000000
3.313111713000,-0.069000000000
3.320798486000,-0.083000000000
3.328485259000,-0.071000000000
3.336172032000,-0.046000000000
3.343858805000,-0.036000000000
3.351545578000,-0.039000000000
3.359232351000,-0.041000000000
3.366919124000,-0.032000000000
3.374605897000,-0.009000000000
3.382292670000,0.007000000000
3.389979443000,0.017000000000
3.397666216000,0.034000000000
3.405352989000,0.051000000000
3.413039762000,0.071000000000
3.420726535000,0.086000000000
3.428413308000,0.091000000000
3.436100081000,0.103000000000
3.443786854000,0.123000000000
3.451473627000,0.120000000000
3.459160400000,0.096000000000
3.466847173000,0.071000000000
3.474533946000,0.049000000000
3.482220719000,0.009000000000
3.489907492000,-0.036000000000
3.497594265000,-0.073000000000
3.505281038000,-0.106000000000
3.512967811000,-0.138000000000
3.520654584000,-0.157000000000
3.528341357000,-0.155000000000
3.536028130000,-0.157000000000
3.543714903000,-0.165000000000
3.551401676000,-0.157000000000
3.559088449000,-0.150000000000
3.566775222000,-0.152000000000
3.574461995000,-0.150000000000
3.582148768000,-0.128000000000
3.589835541000,-0.123000000000
3.597522314000,-0.133000000000
3.605209087000,-0.118000000000
3.612895860000,-0.096000000000
3.620582633000,-0.108000000000
3.628269406000,-0.123000000000
3.635956179000,-0.120000000000
3.643642952000,-0.120000000000
3.651329725000,-0.125000000000
3.659016498000,-0.120000000000
3.666703271000,-0.123000000000
3.674390044000,-0.128000000000
3.682076817000,-0.123000000000
3.689763590000,-0.115000000000
3.697450363000,-0.115000000000
3.705137136000,-0.115000000000
3.712823950000,-0.120000000000
3.720511002000,-0.115000000000
3.728198054000,-0.101000000000
3.735885106000,-0.108000000000
3.743572158000,-0.128000000000
3.751259210000,-0.125000000000
3.758946262000,-0.118000000000
3.766633314000,-0.110000000000
3.774320366000,-0.103000000000
3.782007418000,-0.108000000000
3.789694470000,-0.118000000000
3.797381522000,-0.133000000000
3.805068574000,-0.157000000000
3.812755626000,-0.165000000000
3.820442678000,-0.135000000000
3.828129730000,-0.103000000000
3.835816782000,-0.108000000000
3.843503834000,-0.115000000000
3.851190886000,-0.098000000000
3.858877938000,-0.081000000000
3.866564990000,-0.083000000000
3.874252042000,-0.083000000000
3.881939094000,-0.071000000000
3.889626146000,-0.051000000000
3.897313198000,-0.041000000000
3.905000250000,-0.056000000000
3.912687302000,-0.086000000000
3.920374354000,-0.093000000000
3.928061406000,-0.078000000000
3.935748458000,-0.073000000000
3.943435510000,-0.078000000000
3.951122562000,-0.088000000000
3.958809614000,-0.096000000000
3.966496666000,-0.096000000000
3.974183718000,-0.098000000000
3.981870770000,-0.004000000000
3.989557822000,0.355000000000
3.997244874000,0.717000000000
4.004931926000,0.480000000000
4.012618978000,-0.231000000000
4.020306030000,-0.549000000000
4.027993082000,-0.332000000000
4.035680134000,-0.212000000000
4.043367186000,-0.239000000000
4.051054238000,-0.143000000000
4.058741290000,-0.064000000000
4.066428342000,-0.091000000000
4.074115394000,-0.086000000000
4.081802446000,-0.051000000000
4.089489498000,-0.054000000000
4.097176550000,-0.051000000000
4.104863602000,-0.041000000000
4.112550654000,-0.044000000000
4.120237706000,-0.041000000000
4.127924758000,-0.034000000000
4.135611810000,-0.032000000000
4.143298862000,-0.024000000000
4.150985914000,-0.017000000000
4.158672966000,-0.012000000000
4.166360018000,0.000000000000
4.174047070000,0.012000000000
4.181734122000,0.027000000000
4.189421174000,0.039000000000
4.197108226000,0.046000000000
4.204795278000,0.056000000000
4.212482330000,0.081000000000
4.220169382000,0.106000000000
4.227856434000,0.118000000000
4.235543486000,0.128000000000
4.243230538000,0.138000000000
4.250917590000,0.133000000000
4.258604642000,0.130000000000
4.266291694000,0.130000000000
4.273978760000,0.093000000000
4.281665881000,0.032000000000
4.289353002000,-0.019000000000
4.297040123000,-0.066000000000
4.304727244000,-0.110000000000
4.312414365000,-0.138000000000
4.320101486000,-0.157000000000
4.327788607000,-0.172000000000
4.335475728000,-0.175000000000
4.343162849000,-0.172000000000
4.350849970000,-0.162000000000
4.358537091000,-0.157000000000
4.366224212000,-0.162000000000
4.373911333000,-0.160000000000
4.381598454000,-0.145000000000
4.389285575000,-0.138000000000
4.396972696000,-0.138000000000
4.404659817000,-0.135000000000
4.412346938000,-0.133000000000
4.420034059000,-0.128000000000
4.427721180000,-0.115000000000
4.435408301000,-0.113000000000
4.443095422000,-0.125000000000
4.450782543000,-0.130000000000
4.458469664000,-0.123000000000
4.466156785000,-0.120000000000
4.473843906000,-0.123000000000
4.481531027000,-0.125000000000
4.489218148000,-0.125000000000
4.496905269000,-0.123000000000
4.504592390000,-0.115000000000
4.512279511000,-0.115000000000
4.519966632000,-0.130000000000
4.527653753000,-0.135000000000
4.535340874000,-0.125000000000
4.543027995000,-0.123000000000
4.550715116000,-0.130000000000
4.558402237000,-0.133000000000
4.566089358000,-0.140000000000
4.573776479000,-0.147000000000
4.581463600000,-0.143000000000
4.589150721000,-0.138000000000
4.596837842000,-0.140000000000
4.604524963000,-0.140000000000
4.612212084000,-0.138000000000
4.619899205000,-0.140000000000
4.627586326000,-0.135000000000
4.635273447000,-0.125000000000
4.642960568000,-0.118000000000
4.650647689000,-0.128000000000
4.658334810000,-0.140000000000
4.666021931000,-0.135000000000
4.673709052000,-0.128000000000
4.681396173000,-0.130000000000
4.689083294000,-0.128000000000
4.696770415000,-0.110000000000
4.704457536000,-0.106000000000
4.712144657000,-0.108000000000
4.719831778000,-0.098000000000
4.727518899000,-0.088000000000
4.735206020000,-0.078000000000
4.742893141000,-0.066000000000
4.750580262000,-0.076000000000
4.758267383000,-0.091000000000
4.765954504000,-0.086000000000
4.773641625000,-0.071000000000
4.781328746000,-0.076000000000
4.789015867000,-0.086000000000
4.796702988000,-0.078000000000
4.804390109000,-0.071000000000
4.812077230000,-0.098000000000
4.819764351000,-0.125000000000
4.827451472000,0.041000000000
4.835138657000,0.507000000000
4.842825639000,0.826000000000
4.850512621000,0.466000000000
4.858199603000,-0.209000000000
4.865886585000,-0.396000000000
4.873573567000,-0.207000000000
4.881260549000,-0.182000000000
4.888947531000,-0.216000000000
4.896634513000,-0.130000000000
4.904321495000,-0.096000000000
4.912008477000,-0.123000000000
4.919695459000,-0.103000000000
4.927382441000,-0.076000000000
4.935069423000,-0.078000000000
4.942756405000,-0.078000000000
4.950443387000,-0.064000000000
4.958130369000,-0.061000000000
4.965817351000,-0.064000000000
4.973504333000,-0.056000000000
4.981191315000,-0.044000000000
4.988878297000,-0.039000000000
4.996565279000,-0.041000000000
5.004252261000,-0.041000000000
5.011939243000,-0.036000000000
5.019626225000,-0.034000000000
5.027313207000,-0.027000000000
5.035000189000,-0.012000000000
5.042687171000,0.004000000000
5.050374153000,0.019000000000
5.058061135000,0.029000000000
5.065748117000,0.036000000000
5.073435099000,0.054000000000
5.081122081000,0.078000000000
5.088809063000,0.086000000000
5.096496045000,0.081000000000
5.104183027000,0.083000000000
5.111870009000,0.086000000000
5.119556991000,0.069000000000
5.127243973000,0.027000000000
5.134930955000,-0.017000000000
5.142617937000,-0.049000000000
5.150304919000,-0.078000000000
5.157991901000,-0.115000000000
5.165678883000,-0.138000000000
5.173365865000,-0.140000000000
5.181052847000,-0.143000000000
5.188739829000,-0.145000000000
5.196426811000,-0.140000000000
5.204113793000,-0.135000000000
5.211800775000,-0.130000000000
5.219487757000,-0.130000000000
5.227174739000,-0.128000000000
5.234861721000,-0.120000000000
5.242548703000,-0.118000000000
5.250235685000,-0.118000000000
5.257922667000,-0.120000000000
5.265609649000,-0.113000000000
5.273296631000,-0.106000000000
5.280983613000,-0.103000000000
5.288670595000,-0.101000000000
5.296357577000,-0.103000000000
5.304044559000,-0.110000000000
5.311731541000,-0.110000000000
5.319418523000,-0.106000000000
5.327105505000,-0.106000000000
5.334792487000,-0.108000000000
5.342479469000,-0.106000000000
5.350166451000,-0.108000000000
5.357853433000,-0.115000000000
5.365540415000,-0.113000000000
5.373227397000,-0.106000000000
5.380914379000,-0.106000000000
5.388601361000,-0.113000000000
5.396288384000,-0.113000000000
5.403975227000,-0.110000000000
5.411662070000,-0.103000000000
5.419348913000,-0.103000000000
5.427035756000,-0.103000000000
5.434722599000,-0.098000000000
5.442409442000,-0.096000000000
5.450096285000,-0.098000000000
5.457783128000,-0.096000000000
5.465469971000,-0.088000000000
5.473156814000,-0.088000000000
5.480843657000,-0.091000000000
5.488530500000,-0.086000000000
5.496217343000,-0.083000000000
5.503904186000,-0.083000000000
5.511591029000,-0.086000000000
5.519277872000,-0.093000000000
5.526964715000,-0.101000000000
5.534651558000,-0.098000000000
5.542338401000,-0.093000000000
5.550025244000,-0.086000000000
5.557712087000,-0.073000000000
5.565398930000,-0.069000000000
5.573085773000,-0.069000000000
5.580772616000,-0.054000000000
5.588459459000,-0.056000000000
5.596146302000,-0.076000000000
5.603833145000,-0.078000000000
5.611519988000,-0.073000000000
5.619206831000,-0.071000000000
5.626893674000,-0.066000000000
5.634580517000,-0.069000000000
5.642267360000,-0.076000000000
5.649954203000,-0.088000000000
5.657641046000,-0.110000000000
5.665327889000,0.000000000000
5.673014732000,0.409000000000
5.680701575000,0.784000000000
5.688388418000,0.527000000000
5.696075261000,-0.150000000000
5.703762104000,-0.416000000000
5.711448947000,-0.236000000000
5.719135790000,-0.177000000000
5.726822633000,-0.207000000000
5.734509476000,-0.115000000000
5.742196319000,-0.064000000000
5.749883162000,-0.101000000000
5.757570005000,-0.096000000000
5.765256848000,-0.064000000000
5.772943691000,-0.064000000000
5.780630534000,-0.064000000000
5.788317377000,-0.054000000000
5.796004220000,-0.056000000000
5.803691063000,-0.061000000000
5.811377906000,-0.046000000000
5.819064749000,-0.032000000000
5.826751592000,-0.027000000000
5.834438435000,-0.024000000000
5.842125278000,-0.017000000000
5.849812121000,-0.017000000000
5.857498964000,-0.007000000000
5.865185807000,0.012000000000
5.872872650000,0.022000000000
5.880559493000,0.027000000000
5.888246336000,0.041000000000
5.895933179000,0.056000000000
5.903620022000,0.061000000000
5.911306865000,0.078000000000
5.918993708000,0.101000000000
5.926680551000,0.108000000000
5.934367394000,0.110000000000
5.942054237000,0.108000000000
5.949741080000,0.091000000000
5.957427933000,0.078000000000
5.965115054000,0.054000000000
5.972802175000,0.000000000000
5.980489296000,-0.056000000000
5.988176417000,-0.088000000000
5.995863538000,-0.115000000000
6.003550659000,-0.138000000000
6.011237780000,-0.147000000000
6.018924901000,-0.152000000000
6.026612022000,-0.155000000000
6.034299143000,-0.160000000000
6.041986264000,-0.160000000000
6.049673385000,-0.140000000000
6.057360506000,-0.130000000000
6.065047627000,-0.138000000000
6.072734748000,-0.128000000000
6.080421869000,-0.113000000000
6.088108990000,-0.115000000000
6.095796111000,-0.115000000000
6.103483232000,-0.110000000000
6.111170353000,-0.106000000000
6.118857474000,-0.103000000000
6.126544595000,-0.101000000000
6.134231716000,-0.098000000000
6.141918837000,-0.093000000000
6.149605958000,-0.093000000000
6.157293079000,-0.098000000000
6.164980200000,-0.101000000000
6.172667321000,-0.110000000000
6.180354442000,-0.115000000000
6.188041563000,-0.106000000000
6.195728684000,-0.101000000000
6.203415805000,-0.101000000000
6.211102926000,-0.093000000000
6.218790047000,-0.093000000000
6.226477168000,-0.103000000000
6.234164289000,-0.101000000000
6.241851410000,-0.098000000000
6.249538531000,-0.093000000000
6.257225652000,-0.091000000000
6.264912773000,-0.096000000000
6.272599894000,-0.093000000000
6.280287015000,-0.091000000000
6.287974136000,-0.086000000000
6.295661257000,-0.083000000000
6.303348378000,-0.083000000000
6.311035499000,-0.088000000000
6.318722620000,-0.088000000000
6.326409741000,-0.083000000000
6.334096862000,-0.086000000000
6.341783983000,-0.093000000000
6.349471104000,-0.093000000000
6.357158225000,-0.083000000000
6.364845346000,-0.073000000000
6.372532467000,-0.076000000000
6.380219588000,-0.071000000000
6.387906709000,-0.054000000000
6.395593830000,-0.039000000000
6.403280951000,-0.041000000000
6.410968072000,-0.059000000000
6.418655193000,-0.071000000000
6.426342314000,-0.071000000000
6.434029435000,-0.066000000000
6.441716556000,-0.069000000000
6.449403677000,-0.073000000000
6.457090798000,-0.073000000000
6.464777919000,-0.076000000000
6.472465040000,-0.098000000000
6.480152161000,-0.081000000000
6.487839282000,0.162000000000
6.495526403000,0.606000000000
6.503213524000,0.687000000000
6.510900645000,0.108000000000
6.518587830000,-0.456000000000
6.526274951000,-0.429000000000
6.533962072000,-0.224000000000
6.541649193000,-0.214000000000
6.549336314000,-0.180000000000
6.557023435000,-0.083000000000
6.564710556000,-0.076000000000
6.572397677000,-0.093000000000
6.580084798000,-0.076000000000
6.587771919000,-0.059000000000
6.595459040000,-0.051000000000
6.603146161000,-0.039000000000
6.610833282000,-0.039000000000
6.618520403000,-0.044000000000
6.626207524000,-0.039000000000
6.633894645000,-0.032000000000
6.641581766000,-0.029000000000
6.649268887000,-0.027000000000
6.656956008000,-0.024000000000
6.664643129000,-0.014000000000
6.672330250000,-0.002000000000
6.680017371000,0.009000000000
6.687704492000,0.024000000000
6.695391613000,0.034000000000
6.703078734000,0.039000000000
6.710765855000,0.056000000000
6.718452976000,0.088000000000
6.726140097000,0.110000000000
6.733827218000,0.110000000000
6.741514339000,0.110000000000
6.749201460000,0.118000000000
6.756888581000,0.115000000000
6.764575702000,0.113000000000
6.772262823000,0.103000000000
6.779949944000,0.071000000000
6.787637065000,0.012000000000
6.795324186000,-0.044000000000
6.803011307000,-0.078000000000
6.810698428000,-0.120000000000
6.818385549000,-0.150000000000
6.826072670000,-0.157000000000
6.833759791000,-0.165000000000
6.841446912000,-0.170000000000
6.849134033000,-0.160000000000
6.856821154000,-0.160000000000
6.864508275000,-0.165000000000
6.872195396000,-0.150000000000
6.879882517000,-0.135000000000
6.887569638000,-0.140000000000
6.895256759000,-0.140000000000
6.902943880000,-0.123000000000
6.910631001000,-0.115000000000
6.918318122000,-0.115000000000
6.926005243000,-0.110000000000
6.933692364000,-0.108000000000
6.941379485000,-0.120000000000
6.949066606000,-0.118000000000
6.956753727000,-0.106000000000
6.964440848000,-0.110000000000
6.972127969000,-0.113000000000
6.979815090000,-0.101000000000
6.987502211000,-0.106000000000
6.995189332000,-0.123000000000
7.002876453000,-0.120000000000
7.010563574000,-0.106000000000
7.018250695000,-0.108000000000
7.025937816000,-0.108000000000
7.033624937000,-0.106000000000
7.041312058000,-0.110000000000
7.048999179000,-0.115000000000
7.056686300000,-0.108000000000
7.064373421000,-0.098000000000
7.072060542000,-0.108000000000
7.079747731000,-0.118000000000
7.087434574000,-0.108000000000
7.095121417000,-0.093000000000
7.102808260000,-0.098000000000
7.110495103000,-0.106000000000
7.118181946000,-0.091000000000
7.125868789000,-0.086000000000
7.133555632000,-0.106000000000
7.141242475000,-0.103000000000
7.148929318000,-0.083000000000
7.156616161000,-0.086000000000
7.164303004000,-0.098000000000
7.171989847000,-0.091000000000
7.179676690000,-0.083000000000
7.187363533000,-0.083000000000
7.195050376000,-0.088000000000
7.202737219000,-0.096000000000
7.210424062000,-0.098000000000
7.218110905000,-0.093000000000
7.225797748000,-0.093000000000
7.233484591000,-0.086000000000
7.241171434000,-0.069000000000
7.248858277000,-0.064000000000
7.256545120000,-0.056000000000
7.264231963000,-0.049000000000
7.271918806000,-0.061000000000
7.279605649000,-0.078000000000
7.287292492000,-0.081000000000
7.294979335000,-0.081000000000
7.302666178000,-0.083000000000
7.310353021000,-0.081000000000
7.318039864000,-0.078000000000
7.325726707000,-0.081000000000
7.333413550000,-0.103000000000
7.341100393000,-0.115000000000
7.348787236000,0.066000000000
7.356474079000,0.517000000000
7.364160922000,0.747000000000
7.371847765000,0.295000000000
7.379534608000,-0.357000000000
7.387221451000,-0.473000000000
7.394908294000,-0.258000000000
7.402595137000,-0.214000000000
7.410281980000,-0.212000000000
7.417968823000,-0.120000000000
7.425655666000,-0.088000000000
7.433342509000,-0.101000000000
7.441029352000,-0.078000000000
7.448716195000,-0.066000000000
7.456403038000,-0.073000000000
7.464089881000,-0.069000000000
7.471776724000,-0.054000000000
7.479463567000,-0.054000000000
7.487150410000,-0.056000000000
7.494837253000,-0.046000000000
7.502524096000,-0.036000000000
7.510210939000,-0.032000000000
7.517897782000,-0.029000000000
7.525584625000,-0.022000000000
7.533271468000,-0.007000000000
7.540958311000,0.002000000000
7.548645154000,0.004000000000
7.556331997000,0.007000000000
7.564018840000,0.012000000000
7.571705683000,0.022000000000
7.579392526000,0.049000000000
7.587079369000,0.073000000000
7.594766212000,0.086000000000
7.602453055000,0.093000000000
7.610139898000,0.103000000000
7.617826741000,0.108000000000
7.625513584000,0.103000000000
7.633200427000,0.096000000000
7.640887284000,0.081000000000
7.648574266000,0.041000000000
7.656261248000,-0.012000000000
7.663948230000,-0.059000000000
7.671635212000,-0.091000000000
7.679322194000,-0.128000000000
7.687009176000,-0.162000000000
7.694696158000,-0.170000000000
7.702383140000,-0.165000000000
7.710070122000,-0.170000000000
7.717757104000,-0.172000000000
7.725444086000,-0.157000000000
7.733131068000,-0.145000000000
7.740818050000,-0.147000000000
7.748505032000,-0.152000000000
7.756192014000,-0.145000000000
7.763878996000,-0.138000000000
7.771565978000,-0.133000000000
7.779252960000,-0.125000000000
7.786939942000,-0.123000000000
7.794626924000,-0.118000000000
7.802313906000,-0.113000000000
7.810000888000,-0.118000000000
7.817687870000,-0.120000000000
7.825374852000,-0.115000000000
7.833061834000,-0.113000000000
7.840748816000,-0.113000000000
7.848435798000,-0.115000000000
7.856122780000,-0.118000000000
7.863809762000,-0.118000000000
7.871496744000,-0.123000000000
7.879183726000,-0.123000000000
7.886870708000,-0.113000000000
7.894557690000,-0.115000000000
7.902244672000,-0.120000000000
7.909931654000,-0.113000000000
7.917618636000,-0.110000000000
7.925305618000,-0.115000000000
7.932992600000,-0.113000000000
7.940679582000,-0.110000000000
7.948366564000,-0.113000000000
7.956053546000,-0.108000000000
7.963740528000,-0.103000000000
7.971427510000,-0.110000000000
7.979114492000,-0.106000000000
7.986801474000,-0.093000000000
7.994488456000,-0.098000000000
8.002175438000,-0.103000000000
8.009862420000,-0.103000000000
8.017549402000,-0.101000000000
8.025236384000,-0.091000000000
8.032923366000,-0.088000000000
8.040610348000,-0.101000000000
8.048297330000,-0.103000000000
8.055984312000,-0.101000000000
8.063671294000,-0.110000000000
8.071358276000,-0.115000000000
8.079045258000,-0.103000000000
8.086732240000,-0.088000000000
8.094419222000,-0.086000000000
8.102106204000,-0.081000000000
8.109793186000,-0.059000000000
8.117480168000,-0.059000000000
8.125167150000,-0.086000000000
8.132854132000,-0.093000000000
8.140541114000,-0.078000000000
8.148228096000,-0.091000000000
8.155915078000,-0.101000000000
8.163602060000,-0.086000000000
8.171289042000,-0.083000000000
8.178976024000,-0.106000000000
8.186663006000,-0.135000000000
8.194349988000,-0.115000000000
8.202037007000,0.128000000000
8.209724128000,0.591000000000
8.217411249000,0.766000000000
8.225098370000,0.281000000000
8.232785491000,-0.320000000000
8.240472612000,-0.377000000000
8.248159733000,-0.199000000000
8.255846854000,-0.212000000000
8.263533975000,-0.199000000000
8.271221096000,-0.108000000000
8.278908217000,-0.103000000000
8.286595338000,-0.120000000000
8.294282459000,-0.098000000000
8.301969580000,-0.096000000000
8.309656701000,-0.098000000000
8.317343822000,-0.078000000000
8.325030943000,-0.069000000000
8.332718064000,-0.071000000000
8.340405185000,-0.073000000000
8.348092306000,-0.071000000000
8.355779427000,-0.061000000000
8.363466548000,-0.049000000000
8.371153669000,-0.049000000000
8.378840790000,-0.049000000000
8.386527911000,-0.041000000000
8.394215032000,-0.029000000000
8.401902153000,-0.019000000000
8.409589274000,-0.007000000000
8.417276395000,0.012000000000
8.424963516000,0.029000000000
8.432650637000,0.039000000000
8.440337758000,0.056000000000
8.448024879000,0.073000000000
8.455712000000,0.083000000000
8.463399121000,0.086000000000
8.471086242000,0.083000000000
8.478773363000,0.086000000000
8.486460484000,0.088000000000
8.494147605000,0.066000000000
8.501834726000,0.019000000000
8.509521847000,-0.027000000000
8.517208968000,-0.059000000000
8.524896089000,-0.088000000000
8.532583210000,-0.128000000000
8.540270331000,-0.160000000000
8.547957452000,-0.165000000000
8.555644573000,-0.157000000000
8.563331694000,-0.160000000000
8.571018815000,-0.170000000000
8.578705936000,-0.155000000000
8.586393057000,-0.138000000000
8.594080178000,-0.140000000000
8.601767299000,-0.140000000000
8.609454420000,-0.140000000000
8.617141541000,-0.135000000000
8.624828662000,-0.125000000000
8.632515783000,-0.120000000000
8.640202904000,-0.123000000000
8.647890025000,-0.123000000000
8.655577146000,-0.110000000000
8.663264267000,-0.110000000000
8.670951388000,-0.118000000000
8.678638509000,-0.113000000000
8.686325630000,-0.106000000000
8.694012751000,-0.108000000000
8.701699872000,-0.110000000000
8.709386993000,-0.110000000000
8.717074114000,-0.115000000000
8.724761235000,-0.120000000000
8.732448356000,-0.113000000000
8.740135477000,-0.103000000000
8.747822598000,-0.108000000000
8.755509719000,-0.115000000000
8.763196904000,-0.110000000000
8.770883956000,-0.106000000000
8.778571008000,-0.108000000000
8.786258060000,-0.110000000000
8.793945112000,-0.103000000000
8.801632164000,-0.098000000000
8.809319216000,-0.096000000000
8.817006268000,-0.091000000000
8.824693320000,-0.086000000000
8.832380372000,-0.078000000000
8.840067424000,-0.083000000000
8.847754476000,-0.098000000000
8.855441528000,-0.086000000000
8.863128580000,-0.073000000000
8.870815632000,-0.081000000000
8.878502684000,-0.083000000000
8.886189736000,-0.073000000000
8.893876788000,-0.078000000000
8.901563840000,-0.093000000000
8.909250892000,-0.096000000000
8.916937944000,-0.088000000000
8.924624996000,-0.073000000000
8.932312048000,-0.059000000000
8.939999100000,-0.044000000000
8.947686152000,-0.032000000000
8.955373204000,-0.041000000000
8.963060256000,-0.066000000000
8.970747308000,-0.069000000000
8.978434360000,-0.066000000000
8.986121412000,-0.073000000000
8.993808464000,-0.076000000000
9.001495516000,-0.066000000000
9.009182568000,-0.069000000000
9.016869620000,-0.088000000000
9.024556672000,-0.110000000000
9.032243724000,-0.051000000000
9.039930776000,0.263000000000
9.047617828000,0.678000000000
9.055304880000,0.613000000000
9.062991932000,-0.029000000000
9.070678984000,-0.485000000000
9.078366036000,-0.369000000000
9.086053088000,-0.199000000000
9.093740140000,-0.216000000000
9.101427192000,-0.160000000000
9.109114244000,-0.073000000000
9.116801296000,-0.083000000000
9.124488348000,-0.086000000000
9.132175400000,-0.059000000000
9.139862452000,-0.059000000000
9.147549504000,-0.061000000000
9.155236556000,-0.049000000000
9.162923608000,-0.039000000000
9.170610660000,-0.044000000000
9.178297712000,-0.044000000000
9.185984764000,-0.036000000000
9.193671816000,-0.027000000000
9.201358868000,-0.027000000000
9.209045920000,-0.022000000000
9.216732972000,-0.007000000000
9.224420024000,0.007000000000
9.232107076000,0.024000000000
9.239794128000,0.036000000000
9.247481180000,0.049000000000
9.255168232000,0.071000000000
9.262855284000,0.101000000000
9.270542336000,0.115000000000
9.278229388000,0.125000000000
9.285916440000,0.138000000000
9.293603492000,0.150000000000
9.301290544000,0.157000000000
9.308977596000,0.157000000000
9.316664648000,0.155000000000
9.324351718000,0.135000000000
9.332038491000,0.088000000000
9.339725264000,0.029000000000
9.347412037000,-0.019000000000
9.355098810000,-0.064000000000
9.362785583000,-0.101000000000
9.370472356000,-0.128000000000
9.378159129000,-0.157000000000
9.385845902000,-0.167000000000
9.393532675000,-0.157000000000
9.401219448000,-0.167000000000
9.408906221000,-0.182000000000
9.416592994000,-0.175000000000
9.424279767000,-0.170000000000
9.431966540000,-0.167000000000
9.439653313000,-0.167000000000
9.447340086000,-0.172000000000
9.455026859000,-0.165000000000
9.462713632000,-0.157000000000
9.470400405000,-0.155000000000
9.478087178000,-0.147000000000
9.485773951000,-0.147000000000
9.493460724000,-0.140000000000
9.501147497000,-0.123000000000
9.508834270000,-0.118000000000
9.516521043000,-0.128000000000
9.524207816000,-0.135000000000
9.531894589000,-0.133000000000
9.539581362000,-0.123000000000
9.547268135000,-0.123000000000
9.554954908000,-0.123000000000
9.562641681000,-0.113000000000
9.570328454000,-0.108000000000
9.578015227000,-0.115000000000
9.585702000000,-0.125000000000
9.593388773000,-0.123000000000
9.601075546000,-0.106000000000
9.608762319000,-0.113000000000
9.616449092000,-0.125000000000
9.624135865000,-0.115000000000
9.631822638000,-0.108000000000
9.639509411000,-0.118000000000
9.647196184000,-0.113000000000
9.654882957000,-0.088000000000
9.662569730000,-0.086000000000
9.670256503000,-0.098000000000
9.677943276000,-0.098000000000
9.685630049000,-0.096000000000
9.693316822000,-0.106000000000
9.701003595000,-0.106000000000
9.708690368000,-0.088000000000
9.716377141000,-0.069000000000
9.724063914000,-0.059000000000
9.731750687000,-0.059000000000
9.739437460000,-0.046000000000
9.747124233000,-0.041000000000
9.754811006000,-0.061000000000
9.762497779000,-0.076000000000
9.770184552000,-0.073000000000
9.777871325000,-0.073000000000
9.785558098000,-0.073000000000
9.793244871000,-0.061000000000
9.800931644000,-0.059000000000
9.808618417000,-0.066000000000
9.816305190000,-0.081000000000
9.823991963000,-0.024000000000
9.831678736000,0.298000000000
9.839365509000,0.732000000000
9.847052282000,0.653000000000
9.854739055000,-0.039000000000
9.862425828000,-0.510000000000
9.870112601000,-0.355000000000
9.877799374000,-0.177000000000
9.885486180000,-0.224000000000
9.893173301000,-0.147000000000
9.900860422000,-0.014000000000
9.908547543000,-0.041000000000
9.916234664000,-0.078000000000
9.923921785000,-0.032000000000
9.931608906000,-0.004000000000
9.939296027000,-0.022000000000
9.946983148000,-0.029000000000
9.954670269000,-0.014000000000
9.962357390000,-0.002000000000
9.970044511000,-0.004000000000
9.977731632000,-0.004000000000
9.985418753000,0.007000000000
9.993105874000,0.019000000000
10.000792995000,0.029000000000
10.008480116000,0.032000000000
10.016167237000,0.032000000000
10.023854358000,0.041000000000
10.031541479000,0.056000000000
10.039228600000,0.069000000000
10.046915721000,0.083000000000
10.054602842000,0.108000000000
10.062289963000,0.133000000000
10.069977084000,0.147000000000
10.077664205000,0.157000000000
10.085351326000,0.170000000000
10.093038447000,0.177000000000
10.100725568000,0.180000000000
10.108412689000,0.172000000000
10.116099810000,0.147000000000
10.123786931000,0.101000000000
10.131474052000,0.049000000000
10.139161173000,-0.004000000000
10.146848294000,-0.051000000000
10.154535415000,-0.083000000000
10.162222536000,-0.106000000000
10.169909657000,-0.120000000000
10.177596778000,-0.128000000000
10.185283899000,-0.138000000000
10.192971020000,-0.135000000000
10.200658141000,-0.128000000000
10.208345262000,-0.133000000000
10.216032383000,-0.130000000000
10.223719504000,-0.118000000000
10.231406625000,-0.106000000000
10.239093746000,-0.098000000000
10.246780867000,-0.103000000000
10.254467988000,-0.115000000000
10.262155109000,-0.120000000000
10.269842230000,-0.115000000000
10.277529351000,-0.098000000000
10.285216472000,-0.096000000000
10.292903593000,-0.103000000000
10.300590714000,-0.091000000000
10.308277835000,-0.078000000000
10.315964956000,-0.083000000000
10.323652077000,-0.081000000000
10.331339198000,-0.066000000000
10.339026319000,-0.081000000000
10.346713440000,-0.108000000000
10.354400561000,-0.101000000000
10.362087682000,-0.083000000000
10.369774803000,-0.091000000000
10.377461924000,-0.096000000000
10.385149045000,-0.086000000000
10.392836166000,-0.086000000000
10.400523287000,-0.096000000000
10.408210408000,-0.086000000000
10.415897529000,-0.078000000000
10.423584650000,-0.091000000000
10.431271771000,-0.096000000000
10.438958892000,-0.086000000000
10.446646081000,-0.081000000000
10.454333202000,-0.086000000000
10.462020323000,-0.083000000000
10.469707444000,-0.081000000000
10.477394565000,-0.078000000000
10.485081686000,-0.078000000000
10.492768807000,-0.083000000000
10.500455928000,-0.086000000000
10.508143049000,-0.093000000000
10.515830170000,-0.108000000000
10.523517291000,-0.106000000000
10.531204412000,-0.088000000000
10.538891533000,-0.076000000000
10.546578654000,-0.069000000000
10.554265775000,-0.059000000000
10.561952896000,-0.049000000000
10.569640017000,-0.056000000000
10.577327138000,-0.076000000000
10.585014259000,-0.078000000000
10.592701380000,-0.078000000000
10.600388501000,-0.083000000000
10.608075622000,-0.078000000000
10.615762743000,-0.083000000000
10.623449864000,-0.088000000000
10.631136985000,-0.096000000000
10.638824106000,-0.125000000000
10.646511227000,-0.054000000000
10.654198348000,0.318000000000
10.661885469000,0.766000000000
10.669572590000,0.685000000000
10.677259711000,0.032000000000
10.684946832000,-0.392000000000
10.692633953000,-0.283000000000
10.700321074000,-0.189000000000
10.708008195000,-0.234000000000
10.715695316000,-0.170000000000
10.723382437000,-0.106000000000
10.731069558000,-0.135000000000
10.738756679000,-0.138000000000
10.746443800000,-0.103000000000
10.754130921000,-0.096000000000
10.761818042000,-0.096000000000
10.769505163000,-0.073000000000
10.777192284000,-0.073000000000
10.784879405000,-0.098000000000
10.792566526000,-0.098000000000
10.800253647000,-0.083000000000
10.807940768000,-0.096000000000
10.815627889000,-0.098000000000
10.823315010000,-0.076000000000
10.831002131000,-0.071000000000
10.838689252000,-0.078000000000
10.846376373000,-0.071000000000
10.854063494000,-0.054000000000
10.861750615000,-0.034000000000
10.869437736000,-0.007000000000
10.877124857000,0.017000000000
10.884811978000,0.029000000000
10.892499099000,0.041000000000
10.900186220000,0.066000000000
10.907873341000,0.086000000000
10.915560462000,0.086000000000
10.923247583000,0.086000000000
10.930934704000,0.096000000000
10.938621825000,0.086000000000
10.946308946000,0.046000000000
10.953996067000,0.004000000000
10.961683188000,-0.032000000000
10.969370309000,-0.081000000000
10.977057430000,-0.125000000000
10.984744551000,-0.145000000000
10.992431672000,-0.147000000000
11.000118793000,-0.160000000000
11.007805978000,-0.165000000000
11.015492890000,-0.157000000000
11.023179802000,-0.152000000000
11.030866714000,-0.155000000000
11.038553626000,-0.150000000000
11.046240538000,-0.147000000000
11.053927450000,-0.152000000000
11.061614362000,-0.147000000000
11.069301274000,-0.140000000000
11.076988186000,-0.140000000000
11.084675098000,-0.145000000000
11.092362010000,-0.140000000000
11.100048922000,-0.135000000000
11.107735834000,-0.138000000000
11.115422746000,-0.138000000000
11.123109658000,-0.130000000000
11.130796570000,-0.133000000000
11.138483482000,-0.135000000000
11.146170394000,-0.130000000000
11.153857306000,-0.135000000000
11.161544218000,-0.140000000000
11.169231130000,-0.135000000000
11.176918042000,-0.130000000000
11.184604954000,-0.125000000000
11.192291866000,-0.128000000000
11.199978778000,-0.130000000000
11.207665690000,-0.125000000000
11.215352602000,-0.128000000000
11.223039514000,-0.128000000000
11.230726426000,-0.113000000000
11.238413338000,-0.108000000000
11.246100250000,-0.118000000000
11.253787162000,-0.118000000000
11.261474074000,-0.115000000000
11.269160986000,-0.110000000000
11.276847898000,-0.113000000000
11.284534810000,-0.120000000000
11.292221722000,-0.113000000000
11.299908634000,-0.106000000000
11.307595546000,-0.108000000000
11.315282458000,-0.098000000000
11.322969370000,-0.088000000000
11.330656282000,-0.103000000000
11.338343194000,-0.118000000000
11.346030106000,-0.110000000000
11.353717018000,-0.118000000000
11.361403930000,-0.120000000000
11.369090842000,-0.096000000000
11.376777754000,-0.076000000000
11.384464666000,-0.076000000000
11.392151578000,-0.071000000000
11.399838490000,-0.069000000000
11.407525402000,-0.086000000000
11.415212314000,-0.101000000000
11.422899226000,-0.106000000000
11.430586138000,-0.108000000000
11.438273050000,-0.108000000000
11.445959962000,-0.108000000000
11.453646874000,-0.106000000000
11.461333786000,-0.110000000000
11.469020698000,-0.133000000000
11.476707610000,-0.130000000000
11.484394522000,0.064000000000
11.492081434000,0.507000000000
11.499768346000,0.749000000000
11.507455258000,0.310000000000
11.515142170000,-0.355000000000
11.522829082000,-0.473000000000
11.530515994000,-0.251000000000
11.538202906000,-0.209000000000
11.545889818000,-0.212000000000
11.553576730000,-0.118000000000
11.561263642000,-0.091000000000
11.568950618000,-0.103000000000
11.576637530000,-0.081000000000
11.584324442000,-0.073000000000
11.592011354000,-0.073000000000
11.599698266000,-0.054000000000
11.607385178000,-0.059000000000
11.615072090000,-0.073000000000
11.622759002000,-0.059000000000
11.630445914000,-0.044000000000
11.638132826000,-0.054000000000
11.645819738000,-0.066000000000
11.653506650000,-0.049000000000
11.661193562000,-0.029000000000
11.668880474000,-0.024000000000
11.676567386000,-0.009000000000
11.684254298000,0.002000000000
11.691941210000,0.007000000000
11.699628122000,0.027000000000
11.707315034000,0.049000000000
11.715001946000,0.061000000000
11.722688858000,0.076000000000
11.730375770000,0.093000000000
11.738062682000,0.108000000000
11.745749594000,0.120000000000
11.753436506000,0.135000000000
11.761123418000,0.143000000000
11.768810330000,0.128000000000
11.776497242000,0.086000000000
11.784184154000,0.036000000000
11.791871066000,-0.007000000000
11.799557978000,-0.059000000000
11.807244890000,-0.113000000000
11.814931802000,-0.147000000000
11.822618714000,-0.157000000000
11.830305626000,-0.165000000000
11.837992538000,-0.177000000000
11.845679450000,-0.194000000000
11.853366362000,-0.192000000000
11.861053274000,-0.172000000000
11.868740186000,-0.177000000000
11.876427098000,-0.192000000000
11.884114010000,-0.182000000000
11.891800922000,-0.157000000000
11.899487834000,-0.143000000000
11.907174746000,-0.140000000000
11.914861658000,-0.135000000000
11.922548570000,-0.133000000000
11.930235482000,-0.143000000000
11.937922394000,-0.145000000000
11.945609306000,-0.138000000000
11.953296218000,-0.135000000000
11.960983130000,-0.133000000000
11.968670042000,-0.133000000000
11.976356954000,-0.138000000000
11.984043866000,-0.135000000000
11.991730778000,-0.138000000000
11.999417690000,-0.138000000000
12.007104602000,-0.128000000000
12.014791514000,-0.125000000000
12.022478426000,-0.135000000000
12.030165338000,-0.133000000000
12.037852250000,-0.125000000000
12.045539162000,-0.128000000000
12.053226074000,-0.123000000000
12.060912986000,-0.123000000000
12.068599898000,-0.128000000000
12.076286810000,-0.125000000000
12.083973722000,-0.118000000000
12.091660634000,-0.115000000000
12.099347546000,-0.106000000000
12.107034458000,-0.096000000000
12.114721370000,-0.108000000000
12.122408282000,-0.118000000000
12.130095254000,-0.108000000000
12.137782375000,-0.101000000000
12.145469496000,-0.108000000000
12.153156617000,-0.113000000000
12.160843738000,-0.108000000000
12.168530859000,-0.091000000000
12.176217980000,-0.073000000000
12.183905101000,-0.054000000000
12.191592222000,-0.061000000000
12.199279343000,-0.088000000000
12.206966464000,-0.091000000000
12.214653585000,-0.086000000000
12.222340706000,-0.106000000000
12.230027827000,-0.125000000000
12.237714948000,-0.115000000000
12.245402069000,-0.096000000000
12.253089190000,-0.101000000000
12.260776311000,-0.123000000000
12.268463432000,-0.081000000000
12.276150553000,0.219000000000
12.283837674000,0.660000000000
12.291524795000,0.606000000000
12.299211916000,-0.083000000000
12.306899037000,-0.574000000000
12.314586158000,-0.441000000000
12.322273279000,-0.258000000000
12.329960400000,-0.273000000000
12.337647521000,-0.197000000000
12.345334642000,-0.091000000000
12.353021763000,-0.103000000000
12.360708884000,-0.113000000000
12.368396005000,-0.073000000000
12.376083126000,-0.061000000000
12.383770247000,-0.069000000000
12.391457368000,-0.054000000000
12.399144489000,-0.036000000000
12.406831610000,-0.034000000000
12.414518731000,-0.044000000000
12.422205852000,-0.041000000000
12.429892973000,-0.019000000000
12.437580094000,-0.004000000000
12.445267215000,-0.004000000000
12.452954336000,-0.004000000000
12.460641457000,0.000000000000
12.468328578000,0.007000000000
12.476015699000,0.022000000000
12.483702820000,0.041000000000
12.491389941000,0.061000000000
12.499077062000,0.081000000000
12.506764183000,0.096000000000
12.514451304000,0.115000000000
12.522138425000,0.135000000000
12.529825546000,0.150000000000
12.537512667000,0.157000000000
12.545199788000,0.150000000000
12.552886909000,0.133000000000
12.560574030000,0.108000000000
12.568261151000,0.071000000000
12.575948272000,0.022000000000
12.583635393000,-0.036000000000
12.591322514000,-0.096000000000
12.599009635000,-0.147000000000
12.606696756000,-0.175000000000
12.614383877000,-0.182000000000
12.622070998000,-0.182000000000
12.629758119000,-0.189000000000
12.637445240000,-0.192000000000
12.645132361000,-0.187000000000
12.652819482000,-0.177000000000
12.660506603000,-0.175000000000
12.668193724000,-0.172000000000
12.675880845000,-0.165000000000
12.683567966000,-0.160000000000
12.691255151000,-0.150000000000
12.698942272000,-0.138000000000
12.706629393000,-0.133000000000
12.714316514000,-0.130000000000
12.722003635000,-0.130000000000
12.729690756000,-0.138000000000
12.737377877000,-0.135000000000
12.745064998000,-0.120000000000
12.752752119000,-0.113000000000
12.760439240000,-0.120000000000
12.768126361000,-0.138000000000
12.775813482000,-0.143000000000
12.783500603000,-0.130000000000
12.791187724000,-0.130000000000
12.798874845000,-0.135000000000
12.806561966000,-0.133000000000
12.814249087000,-0.128000000000
12.821936208000,-0.130000000000
12.829623329000,-0.123000000000
12.837310450000,-0.125000000000
12.844997571000,-0.138000000000
12.852684692000,-0.130000000000
12.860371813000,-0.115000000000
12.868058934000,-0.115000000000
12.875746055000,-0.120000000000
12.883433176000,-0.120000000000
12.891120297000,-0.113000000000
12.898807418000,-0.113000000000
12.906494539000,-0.120000000000
12.914181660000,-0.120000000000
12.921868781000,-0.110000000000
12.929555902000,-0.108000000000
12.937243023000,-0.108000000000
12.944930144000,-0.110000000000
12.952617265000,-0.125000000000
12.960304386000,-0.138000000000
12.967991507000,-0.118000000000
12.975678628000,-0.098000000000
12.983365749000,-0.093000000000
12.991052870000,-0.091000000000
12.998739991000,-0.081000000000
13.006427112000,-0.066000000000
13.014114233000,-0.071000000000
13.021801354000,-0.088000000000
13.029488475000,-0.101000000000
13.037175596000,-0.101000000000
13.044862717000,-0.098000000000
13.052549838000,-0.093000000000
13.060236959000,-0.091000000000
13.067924080000,-0.091000000000
13.075611201000,-0.106000000000
13.083298322000,-0.145000000000
13.090985443000,-0.059000000000
13.098672564000,0.337000000000
13.106359685000,0.779000000000
13.114046806000,0.658000000000
13.121733927000,-0.009000000000
13.129421048000,-0.421000000000
13.137108169000,-0.300000000000
13.144795290000,-0.197000000000
13.152482411000,-0.234000000000
13.160169532000,-0.172000000000
13.167856653000,-0.113000000000
13.175543774000,-0.135000000000
13.183230895000,-0.133000000000
13.190918016000,-0.103000000000
13.198605137000,-0.098000000000
13.206292258000,-0.098000000000
13.213979379000,-0.086000000000
13.221666500000,-0.081000000000
13.229353621000,-0.086000000000
13.237040742000,-0.076000000000
13.244727863000,-0.071000000000
13.252415052000,-0.078000000000
13.260102173000,-0.078000000000
13.267789294000,-0.064000000000
13.275476415000,-0.059000000000
13.283163536000,-0.061000000000
13.290850657000,-0.049000000000
13.298537778000,-0.032000000000
13.306224899000,-0.022000000000
13.313912020000,-0.019000000000
13.321599141000,-0.002000000000
13.329286262000,0.019000000000
13.336973383000,0.036000000000
13.344660504000,0.054000000000
13.352347625000,0.071000000000
13.360034746000,0.076000000000
13.367721867000,0.073000000000
13.375408988000,0.073000000000
13.383096109000,0.061000000000
13.390783230000,0.034000000000
13.398470351000,-0.004000000000
13.406157472000,-0.049000000000
13.413844593000,-0.086000000000
13.421531714000,-0.118000000000
13.429218835000,-0.143000000000
13.436905956000,-0.152000000000
13.444593077000,-0.152000000000
13.452280198000,-0.162000000000
13.459967319000,-0.162000000000
13.467654440000,-0.147000000000
13.475341561000,-0.143000000000
13.483028682000,-0.145000000000
13.490715803000,-0.140000000000
13.498402924000,-0.133000000000
13.506090045000,-0.135000000000
13.513777166000,-0.138000000000
13.521464287000,-0.125000000000
13.529151408000,-0.115000000000
13.536838529000,-0.123000000000
13.544525650000,-0.125000000000
13.552212771000,-0.123000000000
13.559899892000,-0.120000000000
13.567587013000,-0.115000000000
13.575274134000,-0.115000000000
13.582961255000,-0.120000000000
13.590648376000,-0.125000000000
13.598335497000,-0.130000000000
13.606022618000,-0.125000000000
13.613709739000,-0.118000000000
13.621396860000,-0.120000000000
13.629083981000,-0.128000000000
13.636771102000,-0.125000000000
13.644458223000,-0.120000000000
13.652145344000,-0.118000000000
13.659832465000,-0.115000000000
13.667519586000,-0.113000000000
13.675206707000,-0.106000000000
13.682893828000,-0.108000000000
13.690580949000,-0.120000000000
13.698268070000,-0.113000000000
13.705955191000,-0.103000000000
13.713642312000,-0.103000000000
13.721329433000,-0.101000000000
13.729016554000,-0.093000000000
13.736703675000,-0.093000000000
13.744390796000,-0.096000000000
13.752077917000,-0.103000000000
13.759765038000,-0.106000000000
13.767452159000,-0.106000000000
13.775139280000,-0.103000000000
13.782826401000,-0.101000000000
13.790513522000,-0.098000000000
13.798200643000,-0.096000000000
13.805887764000,-0.086000000000
13.813574949000,-0.078000000000
13.821261792000,-0.071000000000
13.828948635000,-0.054000000000
13.836635478000,-0.054000000000
13.844322321000,-0.076000000000
13.852009164000,-0.083000000000
13.859696007000,-0.071000000000
13.867382850000,-0.073000000000
13.875069693000,-0.081000000000
13.882756536000,-0.081000000000
13.890443379000,-0.086000000000
13.898130222000,-0.096000000000
13.905817065000,-0.113000000000
13.913503908000,-0.091000000000
13.921190751000,0.165000000000
13.928877594000,0.628000000000
13.936564437000,0.749000000000
13.944251280000,0.199000000000
13.951938123000,-0.377000000000
13.959624966000,-0.369000000000
13.967311809000,-0.184000000000
13.974998652000,-0.202000000000
13.982685495000,-0.182000000000
13.990372338000,-0.091000000000
13.998059181000,-0.088000000000
14.005746024000,-0.113000000000
14.013432867000,-0.088000000000
14.021119710000,-0.066000000000
14.028806553000,-0.066000000000
14.036493396000,-0.066000000000
14.044180239000,-0.061000000000
14.051867082000,-0.061000000000
14.059553925000,-0.066000000000
14.067240768000,-0.061000000000
14.074927611000,-0.044000000000
14.082614454000,-0.036000000000
14.090301297000,-0.039000000000
14.097988140000,-0.039000000000
14.105674983000,-0.027000000000
14.113361826000,-0.014000000000
14.121048669000,-0.012000000000
14.128735512000,-0.002000000000
14.136422355000,0.019000000000
14.144109198000,0.027000000000
14.151796041000,0.034000000000
14.159482884000,0.056000000000
14.167169727000,0.078000000000
14.174856570000,0.101000000000
14.182543413000,0.115000000000
14.190230256000,0.113000000000
14.197917099000,0.110000000000
14.205603942000,0.115000000000
14.213290785000,0.088000000000
14.220977628000,0.029000000000
14.228664471000,-0.017000000000
14.236351314000,-0.056000000000
14.244038157000,-0.093000000000
14.251725000000,-0.123000000000
14.259411843000,-0.147000000000
14.267098686000,-0.155000000000
14.274785529000,-0.150000000000
14.282472372000,-0.150000000000
14.290159215000,-0.157000000000
14.297846058000,-0.150000000000
14.305532901000,-0.135000000000
14.313219744000,-0.133000000000
14.320906587000,-0.128000000000
14.328593430000,-0.125000000000
14.336280273000,-0.125000000000
14.343967116000,-0.115000000000
14.351653959000,-0.108000000000
14.359340802000,-0.110000000000
14.367027645000,-0.110000000000
14.374714502000,-0.106000000000
14.382401484000,-0.103000000000
14.390088466000,-0.103000000000
14.397775448000,-0.101000000000
14.405462430000,-0.098000000000
14.413149412000,-0.106000000000
14.420836394000,-0.120000000000
14.428523376000,-0.113000000000
14.436210358000,-0.101000000000
14.443897340000,-0.113000000000
14.451584322000,-0.115000000000
14.459271304000,-0.106000000000
14.466958286000,-0.106000000000
14.474645268000,-0.103000000000
14.482332250000,-0.093000000000
14.490019232000,-0.096000000000
14.497706214000,-0.101000000000
14.505393196000,-0.098000000000
14.513080178000,-0.088000000000
14.520767160000,-0.086000000000
14.528454142000,-0.091000000000
14.536141124000,-0.086000000000
14.543828106000,-0.078000000000
14.551515088000,-0.081000000000
14.559202070000,-0.086000000000
14.566889052000,-0.083000000000
14.574576034000,-0.078000000000
14.582263016000,-0.081000000000
14.589949998000,-0.081000000000
14.597636980000,-0.083000000000
14.605323962000,-0.081000000000
14.613010944000,-0.091000000000
14.620697926000,-0.103000000000
14.628384908000,-0.096000000000
14.636071890000,-0.081000000000
14.643758872000,-0.076000000000
14.651445854000,-0.069000000000
14.659132836000,-0.061000000000
14.666819818000,-0.044000000000
14.674506800000,-0.041000000000
14.682193782000,-0.069000000000
14.689880764000,-0.088000000000
14.697567746000,-0.078000000000
14.705254728000,-0.073000000000
14.712941710000,-0.078000000000
14.720628692000,-0.071000000000
14.728315674000,-0.061000000000
14.736002656000,-0.076000000000
14.743689638000,-0.110000000000
14.751376620000,-0.073000000000
14.759063602000,0.224000000000
14.766750584000,0.665000000000
14.774437566000,0.646000000000
14.782124548000,-0.004000000000
14.789811530000,-0.503000000000
14.797498512000,-0.394000000000
14.805185494000,-0.214000000000
14.812872476000,-0.236000000000
14.820559458000,-0.180000000000
14.828246440000,-0.076000000000
14.835933422000,-0.078000000000
14.843620404000,-0.091000000000
14.851307386000,-0.064000000000
14.858994368000,-0.054000000000
14.866681350000,-0.056000000000
14.874368332000,-0.041000000000
14.882055314000,-0.044000000000
14.889742296000,-0.054000000000
14.897429278000,-0.041000000000
14.905116260000,-0.027000000000
14.912803242000,-0.032000000000
14.920490224000,-0.032000000000
14.928177206000,-0.022000000000
14.935864225000,-0.019000000000
14.943551346000,-0.009000000000
14.951238467000,0.004000000000
14.958925588000,0.009000000000
14.966612709000,0.017000000000
14.974299830000,0.034000000000
14.981986951000,0.051000000000
14.989674072000,0.066000000000
14.997361193000,0.083000000000
15.005048314000,0.103000000000
15.012735435000,0.110000000000
15.020422556000,0.113000000000
15.028109677000,0.118000000000
15.035796798000,0.128000000000
15.043483919000,0.118000000000
15.051171040000,0.076000000000
15.058858161000,0.022000000000
15.066545282000,-0.022000000000
15.074232403000,-0.069000000000
15.081919524000,-0.108000000000
15.089606645000,-0.138000000000
15.097293766000,-0.152000000000
15.104980887000,-0.155000000000
15.112668008000,-0.162000000000
15.120355129000,-0.170000000000
15.128042250000,-0.157000000000
15.135729371000,-0.145000000000
15.143416492000,-0.145000000000
15.151103613000,-0.147000000000
15.158790734000,-0.140000000000
15.166477855000,-0.135000000000
15.174164976000,-0.133000000000
15.181852097000,-0.123000000000
15.189539218000,-0.113000000000
15.197226339000,-0.120000000000
15.204913460000,-0.125000000000
15.212600581000,-0.125000000000
15.220287702000,-0.120000000000
15.227974823000,-0.118000000000
15.235661944000,-0.120000000000
15.243349065000,-0.113000000000
15.251036186000,-0.106000000000
15.258723307000,-0.108000000000
15.266410428000,-0.123000000000
15.274097549000,-0.130000000000
15.281784670000,-0.125000000000
15.289471791000,-0.123000000000
15.297158912000,-0.118000000000
15.304846033000,-0.118000000000
15.312533154000,-0.125000000000
15.320220275000,-0.128000000000
15.327907396000,-0.128000000000
15.335594517000,-0.135000000000
15.343281638000,-0.128000000000
15.350968759000,-0.110000000000
15.358655880000,-0.106000000000
15.366343001000,-0.106000000000
15.374030122000,-0.106000000000
15.381717243000,-0.103000000000
15.389404364000,-0.098000000000
15.397091485000,-0.096000000000
15.404778606000,-0.096000000000
15.412465727000,-0.086000000000
15.420152848000,-0.083000000000
15.427839969000,-0.096000000000
15.435527090000,-0.101000000000
15.443214211000,-0.093000000000
15.450901332000,-0.096000000000
15.458588453000,-0.091000000000
15.466275574000,-0.071000000000
15.473962695000,-0.061000000000
15.481649816000,-0.059000000000
15.489336937000,-0.049000000000
15.497024122000,-0.054000000000
15.504711243000,-0.069000000000
15.512398364000,-0.071000000000
15.520085485000,-0.069000000000
15.527772606000,-0.078000000000
15.535459727000,-0.083000000000
15.543146848000,-0.078000000000
15.550833969000,-0.076000000000
15.558521090000,-0.101000000000
15.566208211000,-0.135000000000
15.573895332000,-0.017000000000
15.581582453000,0.401000000000
15.589269574000,0.789000000000
15.596956695000,0.564000000000
15.604643816000,-0.108000000000
15.612330937000,-0.409000000000
15.620018058000,-0.241000000000
15.627705179000,-0.170000000000
15.635392300000,-0.204000000000
15.643079421000,-0.138000000000
15.650766542000,-0.096000000000
15.658453663000,-0.115000000000
15.666140784000,-0.108000000000
15.673827905000,-0.086000000000
15.681515026000,-0.091000000000
15.689202147000,-0.091000000000
15.696889268000,-0.071000000000
15.704576389000,-0.059000000000
15.712263510000,-0.061000000000
15.719950631000,-0.059000000000
15.727637752000,-0.049000000000
15.735324873000,-0.046000000000
15.743011994000,-0.044000000000
15.750699115000,-0.036000000000
15.758386236000,-0.036000000000
15.766073357000,-0.029000000000
15.773760478000,-0.012000000000
15.781447599000,-0.009000000000
15.789134720000,-0.009000000000
15.796821841000,0.007000000000
15.804508962000,0.032000000000
15.812196083000,0.046000000000
15.819883204000,0.064000000000
15.827570325000,0.076000000000
15.835257446000,0.088000000000
15.842944567000,0.101000000000
15.850631688000,0.101000000000
15.858318809000,0.093000000000
15.866005930000,0.073000000000
15.873693051000,0.039000000000
15.881380172000,-0.004000000000
15.889067293000,-0.044000000000
15.896754414000,-0.083000000000
15.904441535000,-0.118000000000
15.912128656000,-0.133000000000
15.919815777000,-0.140000000000
15.927502898000,-0.147000000000
15.935190019000,-0.145000000000
15.942877140000,-0.143000000000
15.950564261000,-0.140000000000
15.958251382000,-0.138000000000
15.965938503000,-0.140000000000
15.973625624000,-0.135000000000
15.981312745000,-0.123000000000
15.988999866000,-0.123000000000
15.996686987000,-0.130000000000
16.004374108000,-0.125000000000
16.012061229000,-0.115000000000
16.019748350000,-0.115000000000
16.027435471000,-0.113000000000
16.035122592000,-0.108000000000
16.042809713000,-0.110000000000
16.050496834000,-0.115000000000
16.058184019000,-0.113000000000
16.065871140000,-0.110000000000
16.073558261000,-0.110000000000
16.081245382000,-0.108000000000
16.088932503000,-0.106000000000
16.096619624000,-0.103000000000
16.104306745000,-0.103000000000
16.111993866000,-0.108000000000
16.119680987000,-0.108000000000
16.127368108000,-0.101000000000
16.135055229000,-0.096000000000
16.142742350000,-0.101000000000
16.150429471000,-0.101000000000
16.158116592000,-0.093000000000
16.165803713000,-0.086000000000
16.173490834000,-0.081000000000
16.181177955000,-0.083000000000
16.188865076000,-0.091000000000
16.196552197000,-0.093000000000
16.204239318000,-0.083000000000
16.211926439000,-0.081000000000
16.219613560000,-0.086000000000
16.227300681000,-0.078000000000
16.234987802000,-0.073000000000
16.242674923000,-0.083000000000
16.250362044000,-0.083000000000
16.258049165000,-0.078000000000
16.265736286000,-0.086000000000
16.273423407000,-0.078000000000
16.281110528000,-0.059000000000
16.288797649000,-0.054000000000
16.296484770000,-0.046000000000
16.304171891000,-0.027000000000
16.311859012000,-0.039000000000
16.319546133000,-0.064000000000
16.327233254000,-0.064000000000
16.334920375000,-0.064000000000
16.342607496000,-0.073000000000
16.350294617000,-0.069000000000
16.357981738000,-0.066000000000
16.365668859000,-0.081000000000
16.373355980000,-0.098000000000
16.381043101000,-0.083000000000
16.388730222000,0.088000000000
16.396417343000,0.507000000000
16.404104464000,0.759000000000
16.411791585000,0.345000000000
16.419478706000,-0.303000000000
16.427165827000,-0.429000000000
16.434852948000,-0.224000000000
16.442540069000,-0.189000000000
16.450227190000,-0.187000000000
16.457914311000,-0.083000000000
16.465601432000,-0.054000000000
16.473288553000,-0.081000000000
16.480975674000,-0.056000000000
16.488662795000,-0.032000000000
16.496349916000,-0.036000000000
16.504037037000,-0.032000000000
16.511724158000,-0.027000000000
16.519411279000,-0.027000000000
16.527098400000,-0.019000000000
16.534785521000,-0.012000000000
16.542472642000,-0.009000000000
16.550159763000,0.000000000000
16.557846884000,0.004000000000
16.565534005000,0.004000000000
16.573221126000,0.019000000000
16.580908247000,0.039000000000
16.588595368000,0.049000000000
16.596282489000,0.056000000000
16.603969610000,0.073000000000
16.611656731000,0.093000000000
16.619343916000,0.110000000000
16.627031037000,0.130000000000
16.634718158000,0.145000000000
16.642405279000,0.152000000000
16.650092400000,0.162000000000
16.657779521000,0.165000000000
16.665466642000,0.155000000000
16.673153763000,0.150000000000
16.680840884000,0.128000000000
16.688528005000,0.073000000000
16.696215126000,0.017000000000
16.703902247000,-0.036000000000
16.711589368000,-0.081000000000
16.719276489000,-0.108000000000
16.726963610000,-0.128000000000
16.734650731000,-0.145000000000
16.742337852000,-0.140000000000
16.750024973000,-0.128000000000
16.757712094000,-0.135000000000
16.765399215000,-0.135000000000
16.773086336000,-0.123000000000
16.780773457000,-0.120000000000
16.788460578000,-0.133000000000
16.796147699000,-0.133000000000
16.803834820000,-0.125000000000
16.811521941000,-0.115000000000
16.819209062000,-0.103000000000
16.826896183000,-0.098000000000
16.834583304000,-0.108000000000
16.842270425000,-0.108000000000
16.849957546000,-0.096000000000
16.857644667000,-0.088000000000
16.865331788000,-0.088000000000
16.873018909000,-0.098000000000
16.880706030000,-0.106000000000
16.888393151000,-0.103000000000
16.896080272000,-0.103000000000
16.903767393000,-0.108000000000
16.911454514000,-0.110000000000
16.919141635000,-0.115000000000
16.926828756000,-0.115000000000
16.934515877000,-0.110000000000
16.942202998000,-0.108000000000
16.949890119000,-0.103000000000
16.957577240000,-0.098000000000
16.965264361000,-0.096000000000
16.972951482000,-0.096000000000
16.980638603000,-0.093000000000
16.988325724000,-0.096000000000
16.996012845000,-0.096000000000
17.003699966000,-0.091000000000
17.011387087000,-0.093000000000
17.019074208000,-0.103000000000
17.026761329000,-0.108000000000
17.034448450000,-0.096000000000
17.042135571000,-0.091000000000
17.049822692000,-0.086000000000
17.057509813000,-0.069000000000
17.065196934000,-0.061000000000
17.072884055000,-0.056000000000
17.080571176000,-0.056000000000
17.088258297000,-0.073000000000
17.095945418000,-0.083000000000
17.103632539000,-0.086000000000
17.111319660000,-0.098000000000
17.119006781000,-0.106000000000
17.126693902000,-0.091000000000
17.134381023000,-0.081000000000
17.142068144000,-0.088000000000
17.149755265000,-0.110000000000
17.157442386000,-0.083000000000
17.165129507000,0.147000000000
17.172816628000,0.579000000000
17.180503817000,0.675000000000
17.188190520000,0.091000000000
17.195877223000,-0.498000000000
17.203563926000,-0.463000000000
17.211250629000,-0.249000000000
17.218937332000,-0.246000000000
17.226624035000,-0.204000000000
17.234310738000,-0.088000000000
17.241997441000,-0.078000000000
17.249684144000,-0.091000000000
17.257370847000,-0.069000000000
17.265057550000,-0.059000000000
17.272744253000,-0.054000000000
17.280430956000,-0.054000000000
17.288117659000,-0.054000000000
17.295804362000,-0.036000000000
17.303491065000,-0.029000000000
17.311177768000,-0.034000000000
17.318864471000,-0.029000000000
17.326551174000,-0.017000000000
17.334237877000,-0.007000000000
17.341924580000,-0.004000000000
17.349611283000,0.002000000000
17.357297986000,0.017000000000
17.364984689000,0.019000000000
17.372671392000,0.034000000000
17.380358095000,0.064000000000
17.388044798000,0.086000000000
17.395731501000,0.098000000000
17.403418204000,0.115000000000
17.411104907000,0.130000000000
17.418791610000,0.133000000000
17.426478313000,0.140000000000
17.434165016000,0.152000000000
17.441851719000,0.147000000000
17.449538422000,0.118000000000
17.457225125000,0.086000000000
17.464911828000,0.032000000000
17.472598531000,-0.039000000000
17.480285234000,-0.086000000000
17.487971937000,-0.118000000000
17.495658640000,-0.155000000000
17.503345343000,-0.182000000000
17.511032046000,-0.180000000000
17.518718749000,-0.172000000000
17.526405452000,-0.182000000000
17.534092155000,-0.192000000000
17.541778858000,-0.184000000000
17.549465561000,-0.175000000000
17.557152264000,-0.175000000000
17.564838967000,-0.167000000000
17.572525670000,-0.152000000000
17.580212373000,-0.145000000000
17.587899076000,-0.140000000000
17.595585779000,-0.135000000000
17.603272482000,-0.130000000000
17.610959185000,-0.128000000000
17.618645888000,-0.128000000000
17.626332591000,-0.123000000000
17.634019294000,-0.125000000000
17.641705997000,-0.125000000000
17.649392700000,-0.113000000000
17.657079403000,-0.113000000000
17.664766106000,-0.125000000000
17.672452809000,-0.118000000000
17.680139512000,-0.115000000000
17.687826215000,-0.128000000000
17.695512918000,-0.128000000000
17.703199621000,-0.120000000000
17.710886324000,-0.120000000000
17.718573027000,-0.115000000000
17.726259730000,-0.110000000000
17.733946433000,-0.118000000000
17.741633196000,-0.118000000000
17.749320317000,-0.106000000000
17.757007438000,-0.110000000000
17.764694559000,-0.113000000000
17.772381680000,-0.108000000000
17.780068801000,-0.113000000000
17.787755922000,-0.115000000000
17.795443043000,-0.108000000000
17.803130164000,-0.096000000000
17.810817285000,-0.086000000000
17.818504406000,-0.076000000000
17.826191527000,-0.069000000000
17.833878648000,-0.061000000000
17.841565769000,-0.073000000000
17.849252890000,-0.093000000000
17.856940011000,-0.093000000000
17.864627132000,-0.093000000000
17.872314253000,-0.096000000000
17.880001374000,-0.088000000000
17.887688495000,-0.091000000000
17.895375616000,-0.101000000000
17.903062737000,-0.115000000000
17.910749858000,-0.093000000000
17.918436979000,0.140000000000
17.926124100000,0.599000000000
17.933811221000,0.727000000000
17.941498342000,0.147000000000
17.949185463000,-0.473000000000
17.956872584000,-0.475000000000
17.964559705000,-0.249000000000
17.972246826000,-0.236000000000
17.979933947000,-0.209000000000
17.987621068000,-0.088000000000
17.995308189000,-0.064000000000
18.002995310000,-0.091000000000
18.010682431000,-0.073000000000
18.018369552000,-0.056000000000
18.026056673000,-0.051000000000
18.033743794000,-0.044000000000
18.041430915000,-0.039000000000
18.049118036000,-0.034000000000
18.056805157000,-0.032000000000
18.064492278000,-0.034000000000
18.072179399000,-0.027000000000
18.079866520000,-0.019000000000
18.087553641000,-0.017000000000
18.095240762000,-0.007000000000
18.102927883000,0.000000000000
18.110615004000,0.007000000000
18.118302125000,0.014000000000
18.125989246000,0.024000000000
18.133676367000,0.036000000000
18.141363488000,0.051000000000
18.149050609000,0.078000000000
18.156737730000,0.103000000000
18.164424851000,0.115000000000
18.172111972000,0.128000000000
18.179799093000,0.133000000000
18.187486214000,0.128000000000
18.195173335000,0.125000000000
18.202860456000,0.108000000000
18.210547577000,0.069000000000
18.218234698000,0.019000000000
18.225921819000,-0.034000000000
18.233608940000,-0.083000000000
18.241296061000,-0.123000000000
18.248983182000,-0.152000000000
18.256670303000,-0.167000000000
18.264357424000,-0.172000000000
18.272044545000,-0.184000000000
18.279731666000,-0.184000000000
18.287418787000,-0.170000000000
18.295105908000,-0.160000000000
18.302793093000,-0.155000000000
18.310480075000,-0.150000000000
18.318167057000,-0.152000000000
18.325854039000,-0.147000000000
18.333541021000,-0.133000000000
18.341228003000,-0.123000000000
18.348914985000,-0.120000000000
18.356601967000,-0.123000000000
18.364288949000,-0.123000000000
18.371975931000,-0.120000000000
18.379662913000,-0.120000000000
18.387349895000,-0.118000000000
18.395036877000,-0.115000000000
18.402723859000,-0.118000000000
18.410410841000,-0.120000000000
18.418097823000,-0.123000000000
18.425784805000,-0.128000000000
18.433471787000,-0.125000000000
18.441158769000,-0.120000000000
18.448845751000,-0.123000000000
18.456532733000,-0.128000000000
18.464219715000,-0.123000000000
18.471906697000,-0.113000000000
18.479593679000,-0.113000000000
18.487280661000,-0.123000000000
18.494967643000,-0.120000000000
18.502654625000,-0.113000000000
18.510341607000,-0.113000000000
18.518028589000,-0.113000000000
18.525715571000,-0.115000000000
18.533402553000,-0.120000000000
18.541089535000,-0.125000000000
18.548776517000,-0.128000000000
18.556463499000,-0.120000000000
18.564150481000,-0.113000000000
18.571837463000,-0.106000000000
18.579524445000,-0.096000000000
18.587211427000,-0.083000000000
18.594898409000,-0.071000000000
18.602585391000,-0.073000000000
18.610272373000,-0.096000000000
18.617959355000,-0.106000000000
18.625646337000,-0.098000000000
18.633333319000,-0.101000000000
18.641020301000,-0.108000000000
18.648707283000,-0.106000000000
18.656394265000,-0.103000000000
18.664081247000,-0.120000000000
18.671768229000,-0.147000000000
18.679455211000,-0.056000000000
18.687142193000,0.330000000000
18.694829175000,0.754000000000
18.702516157000,0.616000000000
18.710203139000,-0.061000000000
18.717890121000,-0.448000000000
18.725577103000,-0.298000000000
18.733264085000,-0.197000000000
18.740951067000,-0.244000000000
18.748638049000,-0.175000000000
18.756325031000,-0.110000000000
18.764012013000,-0.140000000000
18.771698995000,-0.138000000000
18.779385977000,-0.106000000000
18.787072959000,-0.103000000000
18.794759941000,-0.108000000000
18.802446923000,-0.098000000000
18.810133905000,-0.088000000000
18.817820887000,-0.083000000000
18.825507869000,-0.078000000000
18.833194851000,-0.081000000000
18.840881833000,-0.083000000000
18.848568815000,-0.081000000000
18.856255797000,-0.073000000000
18.863942820000,-0.066000000000
18.871629663000,-0.059000000000
18.879316506000,-0.049000000000
18.887003349000,-0.032000000000
18.894690192000,-0.027000000000
18.902377035000,-0.024000000000
18.910063878000,0.000000000000
18.917750721000,0.027000000000
18.925437564000,0.039000000000
18.933124407000,0.056000000000
18.940811250000,0.076000000000
18.948498093000,0.076000000000
18.956184936000,0.073000000000
18.963871779000,0.083000000000
18.971558622000,0.071000000000
18.979245465000,0.027000000000
18.986932308000,-0.024000000000
18.994619151000,-0.066000000000
19.002305994000,-0.101000000000
19.009992837000,-0.135000000000
19.017679680000,-0.160000000000
19.025366523000,-0.157000000000
19.033053366000,-0.152000000000
19.040740209000,-0.162000000000
19.048427052000,-0.172000000000
19.056113895000,-0.165000000000
19.063800738000,-0.160000000000
19.071487581000,-0.162000000000
19.079174424000,-0.160000000000
19.086861267000,-0.150000000000
19.094548110000,-0.145000000000
19.102234953000,-0.145000000000
19.109921796000,-0.143000000000
19.117608639000,-0.140000000000
19.125295482000,-0.140000000000
19.132982325000,-0.140000000000
19.140669168000,-0.130000000000
19.148356011000,-0.120000000000
19.156042854000,-0.123000000000
19.163729697000,-0.130000000000
19.171416540000,-0.128000000000
19.179103383000,-0.128000000000
19.186790226000,-0.135000000000
19.194477069000,-0.128000000000
19.202163912000,-0.118000000000
19.209850755000,-0.125000000000
19.217537598000,-0.130000000000
19.225224441000,-0.110000000000
19.232911284000,-0.103000000000
19.240598127000,-0.118000000000
19.248284970000,-0.115000000000
19.255971813000,-0.106000000000
19.263658656000,-0.108000000000
19.271345499000,-0.108000000000
19.279032342000,-0.106000000000
19.286719185000,-0.108000000000
19.294406028000,-0.101000000000
19.302092871000,-0.088000000000
19.309779714000,-0.091000000000
19.317466557000,-0.106000000000
19.325153400000,-0.108000000000
19.332840243000,-0.101000000000
19.340527086000,-0.103000000000
19.348213929000,-0.106000000000
19.355900772000,-0.106000000000
19.363587615000,-0.108000000000
19.371274458000,-0.106000000000
19.378961301000,-0.091000000000
19.386648144000,-0.071000000000
19.394334987000,-0.056000000000
19.402021830000,-0.049000000000
19.409708673000,-0.066000000000
19.417395516000,-0.088000000000
19.425082369000,-0.091000000000
19.432769490000,-0.088000000000
19.440456611000,-0.091000000000
19.448143732000,-0.088000000000
19.455830853000,-0.093000000000
19.463517974000,-0.108000000000
19.471205095000,-0.125000000000
19.478892216000,-0.113000000000
19.486579337000,0.078000000000
19.494266458000,0.515000000000
19.501953579000,0.715000000000
19.509640700000,0.236000000000
19.517327821000,-0.399000000000
19.525014942000,-0.478000000000
19.532702063000,-0.266000000000
19.540389184000,-0.231000000000
19.548076305000,-0.226000000000
19.555763426000,-0.130000000000
19.563450547000,-0.101000000000
19.571137668000,-0.123000000000
19.578824789000,-0.103000000000
19.586511910000,-0.078000000000
19.594199031000,-0.076000000000
19.601886152000,-0.066000000000
19.609573273000,-0.066000000000
19.617260394000,-0.076000000000
19.624947515000,-0.059000000000
19.632634636000,-0.034000000000
19.640321757000,-0.034000000000
19.648008878000,-0.039000000000
19.655695999000,-0.022000000000
19.663383120000,-0.004000000000
19.671070241000,0.000000000000
19.678757362000,-0.002000000000
19.686444483000,0.007000000000
19.694131604000,0.032000000000
19.701818725000,0.044000000000
19.709505846000,0.046000000000
19.717192967000,0.066000000000
19.724880088000,0.093000000000
19.732567209000,0.123000000000
19.740254330000,0.135000000000
19.747941451000,0.133000000000
19.755628572000,0.138000000000
19.763315693000,0.143000000000
19.771002814000,0.130000000000
19.778689935000,0.098000000000
19.786377056000,0.044000000000
19.794064177000,-0.019000000000
19.801751298000,-0.066000000000
19.809438419000,-0.108000000000
19.817125540000,-0.143000000000
19.824812661000,-0.165000000000
19.832499782000,-0.175000000000
19.840186903000,-0.177000000000
19.847874024000,-0.175000000000
19.855561145000,-0.177000000000
19.863248266000,-0.172000000000
19.870935387000,-0.165000000000
19.878622508000,-0.170000000000
19.886309629000,-0.167000000000
19.893996750000,-0.152000000000
19.901683871000,-0.145000000000
19.909370992000,-0.147000000000
19.917058113000,-0.143000000000
19.924745234000,-0.120000000000
19.932432355000,-0.120000000000
19.940119476000,-0.135000000000
19.947806597000,-0.133000000000
19.955493718000,-0.133000000000
19.963180839000,-0.135000000000
19.970867960000,-0.133000000000
19.978555081000,-0.143000000000
19.986242266000,-0.152000000000
19.993929387000,-0.135000000000
20.001616508000,-0.128000000000
20.009303629000,-0.143000000000
20.016990750000,-0.145000000000
20.024677871000,-0.130000000000
20.032364992000,-0.130000000000
20.040052113000,-0.140000000000
20.047739234000,-0.135000000000
20.055426355000,-0.125000000000
20.063113476000,-0.130000000000
20.070800597000,-0.138000000000
20.078487718000,-0.130000000000
20.086174839000,-0.125000000000
20.093861960000,-0.135000000000
20.101549081000,-0.128000000000
20.109236202000,-0.113000000000
20.116923323000,-0.118000000000
20.124610444000,-0.125000000000
20.132297565000,-0.115000000000
20.139984686000,-0.096000000000
20.147671807000,-0.096000000000
20.155358928000,-0.101000000000
20.163046049000,-0.083000000000
20.170733170000,-0.056000000000
20.178420291000,-0.064000000000
20.186107412000,-0.093000000000
20.193794533000,-0.098000000000
20.201481654000,-0.093000000000
20.209168775000,-0.096000000000
20.216855896000,-0.096000000000
20.224543017000,-0.098000000000
20.232230138000,-0.103000000000
20.239917259000,-0.108000000000
20.247604380000,-0.118000000000
20.255291501000,-0.049000000000
20.262978622000,0.278000000000
20.270665743000,0.690000000000
20.278352864000,0.562000000000
20.286039985000,-0.143000000000
20.293727106000,-0.559000000000
20.301414227000,-0.392000000000
20.309101348000,-0.239000000000
20.316788469000,-0.263000000000
20.324475590000,-0.184000000000
20.332162711000,-0.091000000000
20.339849832000,-0.106000000000
20.347536953000,-0.113000000000
20.355224074000,-0.078000000000
20.362911195000,-0.066000000000
20.370598316000,-0.069000000000
20.378285437000,-0.056000000000
20.385972558000,-0.044000000000
20.393659679000,-0.044000000000
20.401346800000,-0.046000000000
20.409033921000,-0.039000000000
20.416721042000,-0.027000000000
20.424408163000,-0.019000000000
20.432095284000,-0.012000000000
20.439782405000,-0.002000000000
20.447469526000,0.007000000000
20.455156647000,0.022000000000
20.462843768000,0.036000000000
20.470530889000,0.051000000000
20.478218010000,0.064000000000
20.485905131000,0.086000000000
20.493592252000,0.108000000000
20.501279373000,0.120000000000
20.508966494000,0.133000000000
20.516653615000,0.147000000000
20.524340736000,0.147000000000
20.532027857000,0.143000000000
20.539714978000,0.147000000000
20.547402167000,0.128000000000
20.555089010000,0.076000000000
20.562775853000,0.017000000000
20.570462696000,-0.034000000000
20.578149539000,-0.081000000000
20.585836382000,-0.120000000000
20.593523225000,-0.150000000000
20.601210068000,-0.170000000000
20.608896911000,-0.175000000000
20.616583754000,-0.167000000000
20.624270597000,-0.167000000000
20.631957440000,-0.177000000000
20.639644283000,-0.172000000000
20.647331126000,-0.160000000000
20.655017969000,-0.147000000000
20.662704812000,-0.140000000000
20.670391655000,-0.133000000000
20.678078498000,-0.128000000000
20.685765341000,-0.118000000000
20.693452184000,-0.110000000000
20.701139027000,-0.123000000000
20.708825870000,-0.125000000000
20.716512713000,-0.110000000000
20.724199556000,-0.108000000000
20.731886399000,-0.113000000000
20.739573242000,-0.113000000000
20.747260085000,-0.113000000000
20.754946928000,-0.115000000000
20.762633771000,-0.115000000000
20.770320614000,-0.115000000000
20.778007457000,-0.120000000000
20.785694300000,-0.118000000000
20.793381143000,-0.113000000000
20.801067986000,-0.110000000000
20.808754829000,-0.110000000000
20.816441672000,-0.108000000000
20.824128515000,-0.110000000000
20.831815358000,-0.113000000000
20.839502201000,-0.110000000000
20.847189044000,-0.103000000000
20.854875887000,-0.103000000000
20.862562730000,-0.103000000000
20.870249573000,-0.096000000000
20.877936416000,-0.091000000000
20.885623259000,-0.096000000000
20.893310102000,-0.096000000000
20.900996945000,-0.086000000000
20.908683788000,-0.083000000000
20.916370631000,-0.096000000000
20.924057474000,-0.101000000000
20.931744317000,-0.098000000000
20.939431160000,-0.098000000000
20.947118003000,-0.096000000000
20.954804846000,-0.093000000000
20.962491689000,-0.078000000000
20.970178532000,-0.064000000000
20.977865375000,-0.056000000000
20.985552218000,-0.049000000000
20.993239061000,-0.056000000000
21.000925904000,-0.076000000000
21.008612747000,-0.081000000000
21.016299590000,-0.076000000000
21.023986433000,-0.078000000000
21.031673276000,-0.078000000000
21.039360119000,-0.078000000000
21.047046962000,-0.078000000000
21.054733805000,-0.091000000000
21.062420648000,-0.120000000000
21.070107491000,-0.056000000000
21.077794334000,0.298000000000
21.085481177000,0.761000000000
21.093168020000,0.724000000000
21.100854863000,0.081000000000
21.108541720000,-0.392000000000
21.116228702000,-0.293000000000
21.123915684000,-0.162000000000
21.131602666000,-0.214000000000
21.139289648000,-0.170000000000
21.146976630000,-0.098000000000
21.154663612000,-0.118000000000
21.162350594000,-0.120000000000
21.170037576000,-0.088000000000
21.177724558000,-0.083000000000
21.185411540000,-0.081000000000
21.193098522000,-0.069000000000
21.200785504000,-0.069000000000
21.208472486000,-0.069000000000
21.216159468000,-0.061000000000
21.223846450000,-0.059000000000
21.231533432000,-0.064000000000
21.239220414000,-0.061000000000
21.246907396000,-0.051000000000
21.254594378000,-0.046000000000
21.262281360000,-0.039000000000
21.269968342000,-0.034000000000
21.277655324000,-0.027000000000
21.285342306000,-0.009000000000
21.293029288000,0.009000000000
21.300716270000,0.022000000000
21.308403252000,0.039000000000
21.316090234000,0.056000000000
21.323777216000,0.076000000000
21.331464198000,0.096000000000
21.339151180000,0.108000000000
21.346838162000,0.108000000000
21.354525144000,0.110000000000
21.362212126000,0.106000000000
21.369899108000,0.073000000000
21.377586090000,0.027000000000
21.385273072000,-0.012000000000
21.392960054000,-0.051000000000
21.400647036000,-0.091000000000
21.408334018000,-0.115000000000
21.416021000000,-0.128000000000
21.423707982000,-0.138000000000
21.431394964000,-0.138000000000
21.439081946000,-0.130000000000
21.446768928000,-0.123000000000
21.454455910000,-0.128000000000
21.462142892000,-0.130000000000
21.469829874000,-0.128000000000
21.477516856000,-0.123000000000
21.485203838000,-0.123000000000
21.492890820000,-0.120000000000
21.500577802000,-0.118000000000
21.508264784000,-0.120000000000
21.515951766000,-0.120000000000
21.523638748000,-0.115000000000
21.531325730000,-0.108000000000
21.539012712000,-0.106000000000
21.546699694000,-0.110000000000
21.554386676000,-0.115000000000
21.562073658000,-0.110000000000
21.569760640000,-0.108000000000
21.577447622000,-0.118000000000
21.585134604000,-0.118000000000
21.592821586000,-0.108000000000
21.600508568000,-0.106000000000
21.608195550000,-0.101000000000
21.615882532000,-0.096000000000
21.623569514000,-0.103000000000
21.631256496000,-0.106000000000
21.638943478000,-0.096000000000
21.646630460000,-0.098000000000
21.654317442000,-0.098000000000
21.662004424000,-0.091000000000
21.669691443000,-0.093000000000
21.677378564000,-0.093000000000
21.685065685000,-0.083000000000
21.692752806000,-0.086000000000
21.700439927000,-0.098000000000
21.708127048000,-0.106000000000
21.715814169000,-0.110000000000
21.723501290000,-0.103000000000
21.731188411000,-0.088000000000
21.738875532000,-0.088000000000
21.746562653000,-0.096000000000
21.754249774000,-0.093000000000
21.761936895000,-0.088000000000
21.769624016000,-0.091000000000
21.777311137000,-0.093000000000
21.784998258000,-0.096000000000
21.792685379000,-0.088000000000
21.800372500000,-0.076000000000
21.808059621000,-0.069000000000
21.815746742000,-0.056000000000
21.823433863000,-0.056000000000
21.831120984000,-0.073000000000
21.838808105000,-0.086000000000
21.846495226000,-0.083000000000
21.854182347000,-0.078000000000
21.861869468000,-0.078000000000
21.869556589000,-0.076000000000
21.877243710000,-0.066000000000
21.884930831000,-0.073000000000
21.892617952000,-0.110000000000
21.900305073000,-0.073000000000
21.907992194000,0.239000000000
21.915679315000,0.697000000000
21.923366436000,0.685000000000
21.931053557000,0.059000000000
21.938740678000,-0.431000000000
21.946427799000,-0.342000000000
21.954114920000,-0.182000000000
21.961802041000,-0.207000000000
21.969489162000,-0.155000000000
21.977176283000,-0.069000000000
21.984863404000,-0.078000000000
21.992550525000,-0.086000000000
22.000237646000,-0.064000000000
22.007924767000,-0.066000000000
22.015611888000,-0.064000000000
22.023299009000,-0.046000000000
22.030986130000,-0.044000000000
22.038673251000,-0.039000000000
22.046360372000,-0.032000000000
22.054047493000,-0.029000000000
22.061734614000,-0.019000000000
22.069421735000,-0.012000000000
22.077108856000,-0.019000000000
22.084795977000,-0.014000000000
22.092483098000,0.007000000000
22.100170219000,0.017000000000
22.107857340000,0.022000000000
22.115544461000,0.034000000000
22.123231582000,0.051000000000
22.130918703000,0.071000000000
22.138605824000,0.096000000000
22.146292945000,0.110000000000
22.153980066000,0.128000000000
22.161667187000,0.145000000000
22.169354308000,0.150000000000
22.177041429000,0.150000000000
22.184728550000,0.155000000000
22.192415671000,0.138000000000
22.200102792000,0.091000000000
22.207789913000,0.046000000000
22.215477034000,0.002000000000
22.223164155000,-0.054000000000
22.230851340000,-0.101000000000
22.238538392000,-0.128000000000
22.246225444000,-0.147000000000
22.253912496000,-0.157000000000
22.261599548000,-0.157000000000
22.269286600000,-0.157000000000
22.276973652000,-0.165000000000
22.284660704000,-0.160000000000
22.292347756000,-0.147000000000
22.300034808000,-0.147000000000
22.307721860000,-0.150000000000
22.315408912000,-0.140000000000
22.323095964000,-0.130000000000
22.330783016000,-0.125000000000
22.338470068000,-0.125000000000
22.346157120000,-0.133000000000
22.353844172000,-0.133000000000
22.361531224000,-0.118000000000
22.369218276000,-0.110000000000
22.376905328000,-0.113000000000
22.384592380000,-0.113000000000
22.392279432000,-0.115000000000
22.399966484000,-0.115000000000
22.407653536000,-0.113000000000
22.415340588000,-0.115000000000
22.423027640000,-0.118000000000
22.430714692000,-0.123000000000
22.438401744000,-0.118000000000
22.446088796000,-0.110000000000
22.453775848000,-0.110000000000
22.461462900000,-0.110000000000
22.469149952000,-0.108000000000
22.476837004000,-0.106000000000
22.484524056000,-0.101000000000
22.492211108000,-0.108000000000
22.499898160000,-0.113000000000
22.507585212000,-0.113000000000
22.515272264000,-0.106000000000
22.522959316000,-0.101000000000
22.530646368000,-0.101000000000
22.538333420000,-0.096000000000
22.546020472000,-0.093000000000
22.553707524000,-0.103000000000
22.561394576000,-0.101000000000
22.569081628000,-0.091000000000
22.576768680000,-0.101000000000
22.584455732000,-0.113000000000
22.592142784000,-0.101000000000
22.599829836000,-0.086000000000
22.607516888000,-0.081000000000
22.615203940000,-0.069000000000
22.622890992000,-0.051000000000
22.630578044000,-0.049000000000
22.638265096000,-0.066000000000
22.645952148000,-0.088000000000
22.653639200000,-0.091000000000
22.661326252000,-0.088000000000
22.669013304000,-0.091000000000
22.676700356000,-0.086000000000
22.684387408000,-0.086000000000
22.692074460000,-0.083000000000
22.699761512000,-0.093000000000
22.707448564000,-0.098000000000
22.715135616000,0.066000000000
22.722822668000,0.490000000000
22.730509720000,0.724000000000
22.738196772000,0.281000000000
22.745883824000,-0.394000000000
22.753570876000,-0.515000000000
22.761257928000,-0.268000000000
22.768944980000,-0.209000000000
22.776632032000,-0.221000000000
22.784319084000,-0.118000000000
22.792006154000,-0.061000000000
22.799692927000,-0.081000000000
22.807379700000,-0.073000000000
22.815066473000,-0.044000000000
22.822753246000,-0.039000000000
22.830440019000,-0.041000000000
22.838126792000,-0.039000000000
22.845813565000,-0.036000000000
22.853500338000,-0.032000000000
22.861187111000,-0.024000000000
22.868873884000,-0.022000000000
22.876560657000,-0.014000000000
22.884247430000,-0.009000000000
22.891934203000,-0.007000000000
22.899620976000,0.000000000000
22.907307749000,0.012000000000
22.914994522000,0.022000000000
22.922681295000,0.027000000000
22.930368068000,0.036000000000
22.938054841000,0.061000000000
22.945741614000,0.088000000000
22.953428387000,0.106000000000
22.961115160000,0.115000000000
22.968801933000,0.133000000000
22.976488706000,0.145000000000
22.984175479000,0.145000000000
22.991862252000,0.140000000000
22.999549025000,0.133000000000
23.007235798000,0.106000000000
23.014922571000,0.061000000000
23.022609344000,0.007000000000
23.030296117000,-0.049000000000
23.037982890000,-0.103000000000
23.045669663000,-0.135000000000
23.053356436000,-0.143000000000
23.061043209000,-0.152000000000
23.068729982000,-0.177000000000
23.076416755000,-0.182000000000
23.084103528000,-0.172000000000
23.091790301000,-0.170000000000
23.099477074000,-0.167000000000
23.107163847000,-0.152000000000
23.114850620000,-0.143000000000
23.122537393000,-0.150000000000
23.130224166000,-0.147000000000
23.137910939000,-0.133000000000
23.145597712000,-0.120000000000
23.153284485000,-0.118000000000
23.160971258000,-0.123000000000
23.168658031000,-0.123000000000
23.176344804000,-0.113000000000
23.184031577000,-0.110000000000
23.191718350000,-0.118000000000
23.199405123000,-0.123000000000
23.207091896000,-0.123000000000
23.214778669000,-0.123000000000
23.222465442000,-0.125000000000
23.230152215000,-0.128000000000
23.237838988000,-0.123000000000
23.245525761000,-0.115000000000
23.253212534000,-0.118000000000
23.260899307000,-0.125000000000
23.268586080000,-0.125000000000
23.276272853000,-0.118000000000
23.283959626000,-0.113000000000
23.291646399000,-0.113000000000
23.299333172000,-0.110000000000
23.307019945000,-0.110000000000
23.314706718000,-0.110000000000
23.322393491000,-0.106000000000
23.330080264000,-0.103000000000
23.337767037000,-0.103000000000
23.345453810000,-0.106000000000
23.353140616000,-0.103000000000
23.360827737000,-0.091000000000
23.368514858000,-0.086000000000
23.376201979000,-0.091000000000
23.383889100000,-0.091000000000
23.391576221000,-0.088000000000
23.399263342000,-0.088000000000
23.406950463000,-0.096000000000
23.414637584000,-0.106000000000
23.422324705000,-0.108000000000
23.430011826000,-0.101000000000
23.437698947000,-0.086000000000
23.445386068000,-0.081000000000
23.453073189000,-0.081000000000
23.460760310000,-0.069000000000
23.468447431000,-0.059000000000
23.476134552000,-0.069000000000
23.483821673000,-0.086000000000
23.491508794000,-0.086000000000
23.499195915000,-0.081000000000
23.506883036000,-0.086000000000
23.514570157000,-0.091000000000
23.522257278000,-0.088000000000
23.529944399000,-0.088000000000
23.537631520000,-0.113000000000
23.545318641000,-0.147000000000
23.553005762000,-0.019000000000
23.560692883000,0.406000000000
23.568380004000,0.803000000000
23.576067125000,0.596000000000
23.583754246000,-0.081000000000
23.591441367000,-0.411000000000
23.599128488000,-0.249000000000
23.606815609000,-0.175000000000
23.614502730000,-0.219000000000
23.622189851000,-0.145000000000
23.629876972000,-0.098000000000
23.637564093000,-0.128000000000
23.645251214000,-0.113000000000
23.652938335000,-0.078000000000
23.660625456000,-0.078000000000
23.668312577000,-0.083000000000
23.675999698000,-0.078000000000
23.683686819000,-0.073000000000
23.691373940000,-0.071000000000
23.699061061000,-0.066000000000
23.706748182000,-0.064000000000
23.714435303000,-0.061000000000
23.722122424000,-0.056000000000
23.729809545000,-0.049000000000
23.737496666000,-0.049000000000
23.745183787000,-0.046000000000
23.752870908000,-0.036000000000
23.760558029000,-0.029000000000
23.768245150000,-0.019000000000
23.775932271000,-0.004000000000
23.783619392000,0.004000000000
23.791306513000,0.014000000000
23.798993634000,0.024000000000
23.806680755000,0.019000000000
23.814367876000,0.019000000000
23.822054997000,0.041000000000
23.829742118000,0.054000000000
23.837429239000,0.051000000000
23.845116360000,0.046000000000
23.852803481000,0.019000000000
23.860490602000,-0.029000000000
23.868177723000,-0.064000000000
23.875864844000,-0.091000000000
23.883551965000,-0.118000000000
23.891239086000,-0.135000000000
23.898926207000,-0.157000000000
23.906613328000,-0.170000000000
23.914300517000,-0.152000000000
23.921987638000,-0.135000000000
23.929674759000,-0.135000000000
23.937361880000,-0.133000000000
23.945049001000,-0.125000000000
23.952736122000,-0.120000000000
23.960423243000,-0.118000000000
23.968110364000,-0.115000000000
23.975797485000,-0.110000000000
23.983484606000,-0.108000000000
23.991171727000,-0.110000000000
23.998858848000,-0.115000000000
24.006545969000,-0.106000000000
24.014233090000,-0.096000000000
24.021920211000,-0.098000000000
24.029607332000,-0.101000000000
24.037294453000,-0.101000000000
24.044981574000,-0.101000000000
24.052668695000,-0.096000000000
24.060355816000,-0.101000000000
24.068042937000,-0.110000000000
24.075730058000,-0.103000000000
24.083417179000,-0.093000000000
24.091104300000,-0.093000000000
24.098791421000,-0.093000000000
24.106478542000,-0.096000000000
24.114165663000,-0.096000000000
24.121852784000,-0.088000000000
24.129539905000,-0.086000000000
24.137227026000,-0.093000000000
24.144914147000,-0.098000000000
24.152601268000,-0.091000000000
24.160288389000,-0.086000000000
24.167975510000,-0.086000000000
24.175662631000,-0.083000000000
24.183349752000,-0.083000000000
24.191036873000,-0.078000000000
24.198723994000,-0.076000000000
24.206411115000,-0.078000000000
24.214098236000,-0.081000000000
24.221785357000,-0.081000000000
24.229472478000,-0.081000000000
24.237159599000,-0.078000000000
24.244846720000,-0.086000000000
24.252533841000,-0.091000000000
24.260220962000,-0.088000000000
24.267908083000,-0.086000000000
24.275595204000,-0.081000000000
24.283282325000,-0.069000000000
24.290969446000,-0.061000000000
24.298656567000,-0.051000000000
24.306343688000,-0.044000000000
24.314030809000,-0.056000000000
24.321717930000,-0.078000000000
24.329405051000,-0.076000000000
24.337092172000,-0.066000000000
24.344779293000,-0.069000000000
24.352466414000,-0.073000000000
24.360153535000,-0.073000000000
24.367840656000,-0.071000000000
24.375527777000,-0.073000000000
24.383214898000,-0.098000000000
24.390902019000,-0.017000000000
24.398589140000,0.347000000000
24.406276261000,0.734000000000
24.413963382000,0.569000000000
24.421650503000,-0.093000000000
24.429337624000,-0.453000000000
24.437024745000,-0.290000000000
24.444711866000,-0.184000000000
24.452398987000,-0.216000000000
24.460086108000,-0.138000000000
24.467773229000,-0.081000000000
24.475460414000,-0.113000000000
24.483147535000,-0.108000000000
24.490834656000,-0.073000000000
24.498521777000,-0.071000000000
24.506208898000,-0.073000000000
24.513896019000,-0.066000000000
24.521583140000,-0.061000000000
24.529270261000,-0.056000000000
24.536957382000,-0.051000000000
24.544644503000,-0.056000000000
24.552331624000,-0.051000000000
24.560018745000,-0.034000000000
24.567705866000,-0.032000000000
24.575392987000,-0.034000000000
24.583080108000,-0.029000000000
24.590767229000,-0.012000000000
24.598454350000,0.012000000000
24.606141471000,0.024000000000
24.613828592000,0.032000000000
24.621515713000,0.059000000000
24.629202834000,0.081000000000
24.636889955000,0.091000000000
24.644577076000,0.103000000000
24.652264197000,0.118000000000
24.659951318000,0.133000000000
24.667638439000,0.135000000000
24.675325560000,0.123000000000
24.683012681000,0.106000000000
24.690699802000,0.081000000000
24.698386923000,0.039000000000
24.706074044000,-0.019000000000
24.713761165000,-0.073000000000
24.721448286000,-0.108000000000
24.729135407000,-0.135000000000
24.736822528000,-0.155000000000
24.744509649000,-0.167000000000
24.752196770000,-0.175000000000
24.759883891000,-0.175000000000
24.767571012000,-0.170000000000
24.775258133000,-0.162000000000
24.782945254000,-0.157000000000
24.790632375000,-0.155000000000
24.798319496000,-0.145000000000
24.806006617000,-0.138000000000
24.813693738000,-0.150000000000
24.821380859000,-0.145000000000
24.829067980000,-0.128000000000
24.836755101000,-0.133000000000
24.844442222000,-0.135000000000
24.852129343000,-0.123000000000
24.859816464000,-0.125000000000
24.867503585000,-0.130000000000
24.875190706000,-0.118000000000
24.882877827000,-0.108000000000
24.890564948000,-0.118000000000
24.898252069000,-0.125000000000
24.905939190000,-0.125000000000
24.913626311000,-0.123000000000
24.921313432000,-0.125000000000
24.929000553000,-0.128000000000
24.936687674000,-0.123000000000
24.944374795000,-0.110000000000
24.952061916000,-0.108000000000
24.959749037000,-0.110000000000
24.967436158000,-0.113000000000
24.975123279000,-0.113000000000
24.982810400000,-0.110000000000
24.990497521000,-0.106000000000
24.998184642000,-0.103000000000
25.005871763000,-0.098000000000
25.013558884000,-0.098000000000
25.021246005000,-0.101000000000
25.028933126000,-0.098000000000
25.036620311000,-0.098000000000
25.044307432000,-0.103000000000
25.051994553000,-0.103000000000
25.059681674000,-0.098000000000
25.067368795000,-0.093000000000
25.075055916000,-0.091000000000
25.082743037000,-0.088000000000
25.090430158000,-0.076000000000
25.098117279000,-0.069000000000
25.105804400000,-0.059000000000
25.113491521000,-0.054000000000
25.121178642000,-0.064000000000
25.128865763000,-0.076000000000
25.136552884000,-0.083000000000
25.144240005000,-0.088000000000
25.151927126000,-0.091000000000
25.159614247000,-0.091000000000
25.167301368000,-0.091000000000
25.174988489000,-0.083000000000
25.182675610000,-0.086000000000
25.190362731000,-0.086000000000
25.198049852000,0.081000000000
25.205736973000,0.510000000000
25.213424094000,0.717000000000
25.221111215000,0.216000000000
25.228798336000,-0.451000000000
25.236485457000,-0.522000000000
25.244172578000,-0.278000000000
25.251859699000,-0.244000000000
25.259546820000,-0.231000000000
25.267233941000,-0.106000000000
25.274921062000,-0.066000000000
25.282608183000,-0.098000000000
25.290295304000,-0.081000000000
25.297982425000,-0.049000000000
25.305669546000,-0.049000000000
25.313356667000,-0.049000000000
25.321043788000,-0.041000000000
25.328730909000,-0.041000000000
25.336418030000,-0.034000000000
25.344105151000,-0.022000000000
25.351792272000,-0.019000000000
25.359479393000,-0.022000000000
25.367166514000,-0.009000000000
25.374853635000,0.002000000000
25.382540756000,0.004000000000
25.390227877000,0.017000000000
25.397914998000,0.029000000000
25.405602119000,0.032000000000
25.413289240000,0.051000000000
25.420976361000,0.078000000000
25.428663482000,0.093000000000
25.436350603000,0.115000000000
25.444037724000,0.145000000000
25.451724845000,0.152000000000
25.459411966000,0.152000000000
25.467099087000,0.162000000000
25.474786208000,0.157000000000
25.482473329000,0.125000000000
25.490160450000,0.098000000000
25.497847571000,0.061000000000
25.505534692000,0.004000000000
25.513221813000,-0.046000000000
25.520908934000,-0.086000000000
25.528596055000,-0.123000000000
25.536283176000,-0.150000000000
25.543970297000,-0.165000000000
25.551657418000,-0.172000000000
25.559344539000,-0.180000000000
25.567031660000,-0.180000000000
25.574718781000,-0.167000000000
25.582405902000,-0.160000000000
25.590093023000,-0.157000000000
25.597780208000,-0.150000000000
25.605466911000,-0.145000000000
25.613153614000,-0.140000000000
25.620840317000,-0.135000000000
25.628527020000,-0.123000000000
25.636213723000,-0.115000000000
25.643900426000,-0.120000000000
25.651587129000,-0.125000000000
25.659273832000,-0.120000000000
25.666960535000,-0.115000000000
25.674647238000,-0.115000000000
25.682333941000,-0.113000000000
25.690020644000,-0.115000000000
25.697707347000,-0.118000000000
25.705394050000,-0.120000000000
25.713080753000,-0.120000000000
25.720767456000,-0.115000000000
25.728454159000,-0.115000000000
25.736140862000,-0.120000000000
25.743827565000,-0.120000000000
25.751514268000,-0.110000000000
25.759200971000,-0.106000000000
25.766887674000,-0.108000000000
25.774574377000,-0.108000000000
25.782261080000,-0.108000000000
25.789947783000,-0.103000000000
25.797634486000,-0.098000000000
25.805321189000,-0.088000000000
25.813007892000,-0.091000000000
25.820694595000,-0.106000000000
25.828381298000,-0.103000000000
25.836068001000,-0.093000000000
25.843754704000,-0.098000000000
25.851441407000,-0.108000000000
25.859128110000,-0.110000000000
25.866814813000,-0.108000000000
25.874501516000,-0.101000000000
25.882188219000,-0.086000000000
25.889874922000,-0.081000000000
25.897561625000,-0.078000000000
25.905248328000,-0.061000000000
25.912935031000,-0.049000000000
25.920621734000,-0.061000000000
25.928308437000,-0.073000000000
25.935995140000,-0.078000000000
25.943681843000,-0.083000000000
25.951368546000,-0.088000000000
25.959055249000,-0.078000000000
25.966741952000,-0.069000000000
25.974428655000,-0.073000000000
25.982115358000,-0.106000000000
25.989802061000,-0.125000000000
25.997488764000,0.056000000000
26.005175467000,0.517000000000
26.012862170000,0.803000000000
26.020548873000,0.401000000000
26.028235576000,-0.288000000000
26.035922279000,-0.463000000000
26.043608982000,-0.244000000000
26.051295685000,-0.187000000000
26.058982388000,-0.202000000000
26.066669091000,-0.108000000000
26.074355794000,-0.076000000000
26.082042497000,-0.106000000000
26.089729200000,-0.086000000000
26.097415903000,-0.059000000000
26.105102606000,-0.061000000000
26.112789309000,-0.061000000000
26.120476012000,-0.056000000000
26.128162715000,-0.049000000000
26.135849418000,-0.036000000000
26.143536121000,-0.036000000000
26.151222824000,-0.046000000000
26.158909587000,-0.041000000000
26.166596708000,-0.032000000000
26.174283829000,-0.032000000000
26.181970950000,-0.024000000000
26.189658071000,-0.014000000000
26.197345192000,-0.009000000000
26.205032313000,-0.002000000000
26.212719434000,0.014000000000
26.220406555000,0.029000000000
26.228093676000,0.036000000000
26.235780797000,0.049000000000
26.243467918000,0.071000000000
26.251155039000,0.091000000000
26.258842160000,0.096000000000
26.266529281000,0.096000000000
26.274216402000,0.101000000000
26.281903523000,0.088000000000
26.289590644000,0.069000000000
26.297277765000,0.046000000000
26.304964886000,0.002000000000
26.312652007000,-0.046000000000
26.320339128000,-0.083000000000
26.328026249000,-0.115000000000
26.335713370000,-0.140000000000
26.343400491000,-0.152000000000
26.351087612000,-0.157000000000
26.358774733000,-0.157000000000
26.366461854000,-0.152000000000
26.374148975000,-0.140000000000
26.381836096000,-0.138000000000
26.389523217000,-0.145000000000
26.397210338000,-0.143000000000
26.404897459000,-0.140000000000
26.412584580000,-0.135000000000
26.420271701000,-0.125000000000
26.427958822000,-0.120000000000
26.435645943000,-0.120000000000
26.443333064000,-0.110000000000
26.451020185000,-0.110000000000
26.458707306000,-0.115000000000
26.466394427000,-0.113000000000
26.474081548000,-0.108000000000
26.481768669000,-0.108000000000
26.489455790000,-0.108000000000
26.497142911000,-0.110000000000
26.504830032000,-0.113000000000
26.512517153000,-0.110000000000
26.520204274000,-0.106000000000
26.527891395000,-0.110000000000
26.535578516000,-0.115000000000
26.543265637000,-0.110000000000
26.550952758000,-0.103000000000
26.558639879000,-0.106000000000
26.566327000000,-0.110000000000
26.574014121000,-0.106000000000
26.581701242000,-0.098000000000
26.589388363000,-0.096000000000
26.597075484000,-0.098000000000
26.604762605000,-0.098000000000
26.612449726000,-0.093000000000
26.620136847000,-0.088000000000
26.627823968000,-0.091000000000
26.635511089000,-0.093000000000
26.643198210000,-0.091000000000
26.650885331000,-0.091000000000
26.658572452000,-0.098000000000
26.666259573000,-0.101000000000
26.673946694000,-0.098000000000
26.681633815000,-0.098000000000
26.689320936000,-0.091000000000
26.697008057000,-0.078000000000
26.704695178000,-0.069000000000
26.712382299000,-0.061000000000
26.720069484000,-0.049000000000
26.727756675000,-0.059000000000
26.735443866000,-0.076000000000
26.743131057000,-0.078000000000
26.750818248000,-0.078000000000
26.758505439000,-0.083000000000
26.766192630000,-0.088000000000
26.773879821000,-0.086000000000
26.781567012000,-0.078000000000
26.789254203000,-0.086000000000
26.796941394000,-0.113000000000
26.804628585000,-0.027000000000
26.812315776000,0.345000000000
26.820002967000,0.757000000000
26.827690158000,0.618000000000
26.835377349000,-0.046000000000
26.843064540000,-0.416000000000
26.850751731000,-0.263000000000
26.858438922000,-0.165000000000
26.866126113000,-0.207000000000
26.873813304000,-0.135000000000
26.881500495000,-0.071000000000
26.889187686000,-0.101000000000
26.896874877000,-0.103000000000
26.904562068000,-0.071000000000
26.912249259000,-0.069000000000
26.919936450000,-0.076000000000
26.927623641000,-0.064000000000
26.935310832000,-0.054000000000
26.942998023000,-0.056000000000
26.950685214000,-0.054000000000
26.958372405000,-0.046000000000
26.966059596000,-0.034000000000
26.973746787000,-0.032000000000
26.981433978000,-0.034000000000
26.989121169000,-0.024000000000
26.996808360000,-0.009000000000
27.004495551000,-0.009000000000
27.012182742000,-0.007000000000
27.019869933000,0.004000000000
27.027557124000,0.022000000000
27.035244315000,0.041000000000
27.042931506000,0.061000000000
27.050618697000,0.073000000000
27.058305888000,0.086000000000
27.065993079000,0.101000000000
27.073680270000,0.103000000000
27.081367461000,0.106000000000
27.089054652000,0.106000000000
27.096741843000,0.091000000000
27.104429034000,0.061000000000
27.112116225000,0.022000000000
27.119803416000,-0.024000000000
27.127490607000,-0.071000000000
27.135177798000,-0.110000000000
27.142864989000,-0.133000000000
27.150552180000,-0.147000000000
27.158239371000,-0.157000000000
27.165926562000,-0.165000000000
27.173613753000,-0.170000000000
27.181300944000,-0.160000000000
27.188988135000,-0.147000000000
27.196675326000,-0.155000000000
27.204362517000,-0.160000000000
27.212049708000,-0.143000000000
27.219736899000,-0.130000000000
27.227424090000,-0.135000000000
27.235111281000,-0.138000000000
27.242798472000,-0.135000000000
27.250485663000,-0.128000000000
27.258172854000,-0.120000000000
27.265860045000,-0.115000000000
27.273547236000,-0.115000000000
27.281234472000,-0.120000000000
27.288921663000,-0.123000000000
27.296608854000,-0.128000000000
27.304296045000,-0.130000000000
27.311983236000,-0.128000000000
27.319670427000,-0.113000000000
27.327357618000,-0.110000000000
27.335044809000,-0.125000000000
27.342732000000,-0.130000000000
27.350419191000,-0.118000000000
27.358106382000,-0.115000000000
27.365793573000,-0.128000000000
27.373480764000,-0.120000000000
27.381167955000,-0.103000000000
27.388855146000,-0.108000000000
27.396542337000,-0.110000000000
27.404229528000,-0.106000000000
27.411916719000,-0.115000000000
27.419603910000,-0.113000000000
27.427291101000,-0.103000000000
27.434978292000,-0.106000000000
27.442665483000,-0.103000000000
27.450352674000,-0.093000000000
27.458039865000,-0.093000000000
27.465727056000,-0.093000000000
27.473414247000,-0.101000000000
27.481101438000,-0.108000000000
27.488788629000,-0.096000000000
27.496475820000,-0.083000000000
27.504163011000,-0.078000000000
27.511850202000,-0.071000000000
27.519537393000,-0.064000000000
27.527224584000,-0.059000000000
27.534911775000,-0.064000000000
27.542598966000,-0.078000000000
27.550286157000,-0.083000000000
27.557973348000,-0.086000000000
27.565660539000,-0.091000000000
27.573347730000,-0.086000000000
27.581034921000,-0.076000000000
27.588722112000,-0.076000000000
27.596409303000,-0.091000000000
27.604096494000,-0.110000000000
27.611783685000,-0.022000000000
27.619470876000,0.340000000000
27.627158067000,0.707000000000
27.634845258000,0.466000000000
27.642532449000,-0.251000000000
27.650219640000,-0.569000000000
27.657906831000,-0.355000000000
27.665594022000,-0.231000000000
27.673281213000,-0.256000000000
27.680968404000,-0.160000000000
27.688655595000,-0.083000000000
27.696342786000,-0.096000000000
27.704029977000,-0.073000000000
27.711717168000,-0.044000000000
27.719404359000,-0.054000000000
27.727091550000,-0.064000000000
27.734778741000,-0.051000000000
27.742465932000,-0.034000000000
27.750153123000,-0.039000000000
27.757840314000,-0.044000000000
27.765527505000,-0.024000000000
27.773214696000,-0.012000000000
27.780901887000,-0.014000000000
27.788589078000,-0.004000000000
27.796276269000,0.007000000000
27.803963460000,0.014000000000
27.811650651000,0.029000000000
27.819337842000,0.049000000000
27.827025033000,0.059000000000
27.834712224000,0.069000000000
27.842399456000,0.093000000000
27.850086438000,0.115000000000
27.857773420000,0.135000000000
27.865460402000,0.140000000000
27.873147384000,0.138000000000
27.880834366000,0.150000000000
27.888521348000,0.157000000000
27.896208330000,0.145000000000
27.903895312000,0.115000000000
27.911582294000,0.069000000000
27.919269276000,0.017000000000
27.926956258000,-0.034000000000
27.934643240000,-0.078000000000
27.942330222000,-0.113000000000
27.950017204000,-0.155000000000
27.957704186000,-0.189000000000
27.965391168000,-0.184000000000
27.973078150000,-0.172000000000
27.980765132000,-0.180000000000
27.988452114000,-0.187000000000
27.996139096000,-0.172000000000
28.003826078000,-0.157000000000
28.011513060000,-0.157000000000
28.019200042000,-0.160000000000
28.026887024000,-0.155000000000
28.034574006000,-0.147000000000
28.042260988000,-0.135000000000
28.049947970000,-0.118000000000
28.057634952000,-0.110000000000
28.065321934000,-0.118000000000
28.073008916000,-0.128000000000
28.080695898000,-0.130000000000
28.088382880000,-0.133000000000
28.096069862000,-0.135000000000
28.103756844000,-0.125000000000
28.111443826000,-0.118000000000
28.119130808000,-0.128000000000
28.126817790000,-0.130000000000
28.134504772000,-0.123000000000
28.142191754000,-0.128000000000
28.149878736000,-0.123000000000
28.157565718000,-0.115000000000
28.165252700000,-0.125000000000
28.172939682000,-0.130000000000
28.180626664000,-0.120000000000
28.188313646000,-0.106000000000
28.196000628000,-0.108000000000
28.203687610000,-0.123000000000
28.211374592000,-0.115000000000
28.219061574000,-0.101000000000
28.226748556000,-0.101000000000
28.234435538000,-0.106000000000
28.242122520000,-0.101000000000
28.249809502000,-0.101000000000
28.257496484000,-0.103000000000
28.265183466000,-0.101000000000
28.272870448000,-0.088000000000
28.280557430000,-0.076000000000
28.288244412000,-0.073000000000
28.295931394000,-0.061000000000
28.303618376000,-0.054000000000
28.311305358000,-0.073000000000
28.318992340000,-0.086000000000
28.326679322000,-0.076000000000
28.334366304000,-0.076000000000
28.342053286000,-0.083000000000
28.349740268000,-0.081000000000
28.357427250000,-0.081000000000
28.365114232000,-0.098000000000
28.372801214000,-0.118000000000
28.380488196000,-0.108000000000
28.388175178000,0.083000000000
28.395862160000,0.515000000000
28.403549179000,0.687000000000
28.411236300000,0.155000000000
28.418923421000,-0.490000000000
28.426610542000,-0.522000000000
28.434297663000,-0.276000000000
28.441984784000,-0.246000000000
28.449671905000,-0.229000000000
28.457359026000,-0.106000000000
28.465046147000,-0.064000000000
28.472733268000,-0.088000000000
28.480420389000,-0.071000000000
28.488107510000,-0.054000000000
28.495794631000,-0.066000000000
28.503481752000,-0.066000000000
28.511168873000,-0.046000000000
28.518855994000,-0.044000000000
28.526543115000,-0.044000000000
28.534230236000,-0.034000000000
28.541917357000,-0.024000000000
28.549604478000,-0.022000000000
28.557291599000,-0.012000000000
28.564978720000,0.002000000000
28.572665841000,0.004000000000
28.580352962000,0.004000000000
28.588040083000,0.022000000000
28.595727204000,0.036000000000
28.603414325000,0.046000000000
28.611101446000,0.061000000000
28.618788567000,0.086000000000
28.626475688000,0.101000000000
28.634162809000,0.103000000000
28.641849930000,0.120000000000
28.649537051000,0.138000000000
28.657224172000,0.140000000000
28.664911293000,0.133000000000
28.672598414000,0.123000000000
28.680285535000,0.093000000000
28.687972656000,0.039000000000
28.695659777000,-0.012000000000
28.703346898000,-0.056000000000
28.711034019000,-0.101000000000
28.718721140000,-0.138000000000
28.726408261000,-0.155000000000
28.734095382000,-0.162000000000
28.741782503000,-0.162000000000
28.749469624000,-0.160000000000
28.757156745000,-0.167000000000
28.764843866000,-0.177000000000
28.772530987000,-0.167000000000
28.780218108000,-0.157000000000
28.787905229000,-0.162000000000
28.795592350000,-0.160000000000
28.803279471000,-0.143000000000
28.810966592000,-0.125000000000
28.818653713000,-0.125000000000
28.826340834000,-0.120000000000
28.834027955000,-0.108000000000
28.841715076000,-0.103000000000
28.849402197000,-0.106000000000
28.857089318000,-0.110000000000
28.864776439000,-0.110000000000
28.872463560000,-0.101000000000
28.880150681000,-0.098000000000
28.887837802000,-0.103000000000
28.895524923000,-0.103000000000
28.903212044000,-0.101000000000
28.910899165000,-0.103000000000
28.918586286000,-0.110000000000
28.926273407000,-0.106000000000
28.933960528000,-0.096000000000
28.941647649000,-0.098000000000
28.949334770000,-0.101000000000
28.957021891000,-0.093000000000
28.964709076000,-0.098000000000
28.972396128000,-0.118000000000
28.980083180000,-0.120000000000
28.987770232000,-0.110000000000
28.995457284000,-0.103000000000
29.003144336000,-0.096000000000
29.010831388000,-0.086000000000
29.018518440000,-0.086000000000
29.026205492000,-0.091000000000
29.033892544000,-0.091000000000
29.041579596000,-0.088000000000
29.049266648000,-0.093000000000
29.056953700000,-0.103000000000
29.064640752000,-0.101000000000
29.072327804000,-0.093000000000
29.080014856000,-0.088000000000
29.087701908000,-0.078000000000
29.095388960000,-0.066000000000
29.103076012000,-0.051000000000
29.110763064000,-0.046000000000
29.118450116000,-0.059000000000
29.126137168000,-0.076000000000
29.133824220000,-0.083000000000
29.141511272000,-0.081000000000
29.149198324000,-0.076000000000
29.156885376000,-0.078000000000
29.164572428000,-0.083000000000
29.172259480000,-0.078000000000
29.179946532000,-0.093000000000
29.187633584000,-0.133000000000
29.195320636000,-0.024000000000
29.203007688000,0.389000000000
29.210694740000,0.796000000000
29.218381792000,0.604000000000
29.226068844000,-0.078000000000
29.233755896000,-0.424000000000
29.241442948000,-0.268000000000
29.249130000000,-0.187000000000
29.256817052000,-0.224000000000
29.264504104000,-0.145000000000
29.272191156000,-0.091000000000
29.279878208000,-0.115000000000
