time,LSB
0.000000000000,1.121000000000
0.007686843000,1.082000000000
0.015373686000,0.038000000000
0.023060529000,-0.829000000000
0.030747372000,-0.676000000000
0.038434215000,-0.321000000000
0.046121058000,-0.311000000000
0.053807901000,-0.206000000000
0.061494744000,-0.026000000000
0.069181587000,-0.029000000000
0.076868430000,-0.060000000000
0.084555273000,-0.012000000000
0.092242116000,0.012000000000
0.099928959000,0.007000000000
0.107615802000,0.024000000000
0.115302645000,0.041000000000
0.122989488000,0.043000000000
0.130676331000,0.048000000000
0.138363174000,0.060000000000
0.146050017000,0.075000000000
0.153736860000,0.085000000000
0.161423703000,0.092000000000
0.169110546000,0.109000000000
0.176797389000,0.131000000000
0.184484232000,0.148000000000
0.192171075000,0.165000000000
0.199857918000,0.184000000000
0.207544761000,0.206000000000
0.215231604000,0.228000000000
0.222918447000,0.257000000000
0.230605290000,0.287000000000
0.238292133000,0.304000000000
0.245978976000,0.309000000000
0.253665819000,0.313000000000
0.261352662000,0.316000000000
0.269039505000,0.306000000000
0.276726348000,0.282000000000
0.284413191000,0.250000000000
0.292100034000,0.204000000000
0.299786877000,0.138000000000
0.307473720000,0.070000000000
0.315160563000,0.009000000000
0.322847406000,-0.038000000000
0.330534249000,-0.080000000000
0.338221092000,-0.109000000000
0.345907935000,-0.124000000000
0.353594778000,-0.128000000000
0.361281621000,-0.126000000000
0.368968464000,-0.124000000000
0.376655307000,-0.114000000000
0.384342150000,-0.102000000000
0.392028993000,-0.085000000000
0.399715836000,-0.070000000000
0.407402679000,-0.060000000000
0.415089522000,-0.048000000000
0.422776365000,-0.038000000000
0.430463218000,-0.031000000000
0.438149921000,-0.026000000000
0.445836624000,-0.026000000000
0.453523327000,-0.024000000000
0.461210030000,-0.021000000000
0.468896733000,-0.026000000000
0.476583436000,-0.031000000000
0.484270139000,-0.029000000000
0.491956842000,-0.026000000000
0.499643545000,-0.034000000000
0.507330248000,-0.036000000000
0.515016951000,-0.034000000000
0.522703654000,-0.034000000000
0.530390357000,-0.034000000000
0.538077060000,-0.029000000000
0.545763763000,-0.029000000000
0.553450466000,-0.029000000000
0.561137169000,-0.024000000000
0.568823872000,-0.024000000000
0.576510575000,-0.021000000000
0.584197278000,-0.017000000000
0.591883981000,-0.014000000000
0.599570684000,-0.014000000000
0.607257387000,-0.014000000000
0.614944090000,-0.012000000000
0.622630793000,-0.017000000000
0.630317496000,-0.024000000000
0.638004199000,-0.024000000000
0.645690902000,-0.021000000000
0.653377605000,-0.007000000000
0.661064308000,0.014000000000
0.668751011000,0.026000000000
0.676437714000,0.031000000000
0.684124417000,0.036000000000
0.691811120000,0.021000000000
0.699497823000,0.002000000000
0.707184526000,0.000000000000
0.714871229000,0.002000000000
0.722557932000,0.002000000000
0.730244635000,0.007000000000
0.737931338000,0.012000000000
0.745618041000,0.007000000000
0.753304744000,-0.026000000000
0.760991447000,-0.051000000000
0.768678150000,0.201000000000
0.776364853000,0.885000000000
0.784051556000,1.372000000000
0.791738259000,0.832000000000
0.799424962000,-0.306000000000
0.807111665000,-0.722000000000
0.814798368000,-0.352000000000
0.822485071000,-0.160000000000
0.830171774000,-0.175000000000
0.837858477000,-0.038000000000
0.845545180000,0.043000000000
0.853231883000,0.004000000000
0.860918586000,0.017000000000
0.868605289000,0.053000000000
0.876291992000,0.048000000000
0.883978695000,0.048000000000
0.891665398000,0.063000000000
0.899352101000,0.068000000000
0.907038804000,0.070000000000
0.914725507000,0.077000000000
0.922412210000,0.080000000000
0.930098913000,0.090000000000
0.937785616000,0.099000000000
0.945472319000,0.107000000000
0.953159022000,0.119000000000
0.960845725000,0.131000000000
0.968532428000,0.143000000000
0.976219131000,0.160000000000
0.983905834000,0.177000000000
0.991592597000,0.197000000000
0.999279718000,0.223000000000
1.006966839000,0.250000000000
1.014653960000,0.270000000000
1.022341081000,0.287000000000
1.030028202000,0.296000000000
1.037715323000,0.304000000000
1.045402444000,0.304000000000
1.053089565000,0.294000000000
1.060776686000,0.270000000000
1.068463807000,0.231000000000
1.076150928000,0.175000000000
1.083838049000,0.109000000000
1.091525170000,0.046000000000
1.099212291000,-0.004000000000
1.106899412000,-0.048000000000
1.114586533000,-0.080000000000
1.122273654000,-0.094000000000
1.129960775000,-0.099000000000
1.137647896000,-0.102000000000
1.145335017000,-0.102000000000
1.153022138000,-0.092000000000
1.160709259000,-0.087000000000
1.168396380000,-0.085000000000
1.176083501000,-0.077000000000
1.183770622000,-0.075000000000
1.191457743000,-0.070000000000
1.199144864000,-0.065000000000
1.206831985000,-0.058000000000
1.214519106000,-0.058000000000
1.222206227000,-0.058000000000
1.229893348000,-0.055000000000
1.237580469000,-0.055000000000
1.245267590000,-0.058000000000
1.252954711000,-0.058000000000
1.260641832000,-0.063000000000
1.268328953000,-0.065000000000
1.276016074000,-0.060000000000
1.283703195000,-0.060000000000
1.291390316000,-0.068000000000
1.299077437000,-0.068000000000
1.306764558000,-0.065000000000
1.314451679000,-0.065000000000
1.322138800000,-0.065000000000
1.329825921000,-0.063000000000
1.337513042000,-0.063000000000
1.345200163000,-0.063000000000
1.352887284000,-0.060000000000
1.360574405000,-0.060000000000
1.368261526000,-0.058000000000
1.375948647000,-0.055000000000
1.383635768000,-0.055000000000
1.391322889000,-0.055000000000
1.399010010000,-0.053000000000
1.406697131000,-0.048000000000
1.414384252000,-0.048000000000
1.422071373000,-0.048000000000
1.429758494000,-0.046000000000
1.437445615000,-0.043000000000
1.445132736000,-0.043000000000
1.452819857000,-0.046000000000
1.460506978000,-0.051000000000
1.468194099000,-0.058000000000
1.475881220000,-0.063000000000
1.483568341000,-0.060000000000
1.491255462000,-0.048000000000
1.498942583000,-0.029000000000
1.506629704000,-0.014000000000
1.514316825000,-0.009000000000
1.522003946000,-0.004000000000
1.529691067000,-0.012000000000
1.537378188000,-0.036000000000
1.545065309000,-0.043000000000
1.552752498000,-0.038000000000
1.560439341000,-0.038000000000
1.568126184000,-0.038000000000
1.575813027000,-0.034000000000
1.583499870000,-0.036000000000
1.591186713000,-0.063000000000
1.598873556000,-0.107000000000
1.606560399000,0.000000000000
1.614247242000,0.535000000000
1.621934085000,1.221000000000
1.629620928000,1.180000000000
1.637307771000,0.187000000000
1.644994614000,-0.649000000000
1.652681457000,-0.525000000000
1.660368300000,-0.204000000000
1.668055143000,-0.218000000000
1.675741986000,-0.167000000000
1.683428829000,-0.043000000000
1.691115672000,-0.063000000000
1.698802515000,-0.082000000000
1.706489358000,-0.036000000000
1.714176201000,-0.026000000000
1.721863044000,-0.038000000000
1.729549887000,-0.024000000000
1.737236730000,-0.012000000000
1.744923573000,-0.012000000000
1.752610416000,-0.007000000000
1.760297259000,0.004000000000
1.767984102000,0.012000000000
1.775670945000,0.017000000000
1.783357788000,0.029000000000
1.791044631000,0.038000000000
1.798731474000,0.046000000000
1.806418317000,0.055000000000
1.814105160000,0.072000000000
1.821792003000,0.087000000000
1.829478846000,0.104000000000
1.837165689000,0.126000000000
1.844852532000,0.148000000000
1.852539375000,0.167000000000
1.860226218000,0.182000000000
1.867913061000,0.197000000000
1.875599904000,0.204000000000
1.883286747000,0.209000000000
1.890973590000,0.206000000000
1.898660433000,0.201000000000
1.906347276000,0.180000000000
1.914034119000,0.138000000000
1.921720962000,0.090000000000
1.929407805000,0.036000000000
1.937094648000,-0.017000000000
1.944781491000,-0.060000000000
1.952468334000,-0.097000000000
1.960155177000,-0.124000000000
1.967842020000,-0.136000000000
1.975528863000,-0.138000000000
1.983215706000,-0.138000000000
1.990902549000,-0.141000000000
1.998589392000,-0.141000000000
2.006276235000,-0.133000000000
2.013963078000,-0.128000000000
2.021649921000,-0.124000000000
2.029336764000,-0.119000000000
2.037023607000,-0.116000000000
2.044710450000,-0.116000000000
2.052397293000,-0.116000000000
2.060084136000,-0.114000000000
2.067770979000,-0.109000000000
2.075457822000,-0.107000000000
2.083144665000,-0.109000000000
2.090831508000,-0.111000000000
2.098518351000,-0.111000000000
2.106205194000,-0.111000000000
2.113892051000,-0.109000000000
2.121579033000,-0.111000000000
2.129266015000,-0.116000000000
2.136952997000,-0.114000000000
2.144639979000,-0.111000000000
2.152326961000,-0.109000000000
2.160013943000,-0.107000000000
2.167700925000,-0.109000000000
2.175387907000,-0.111000000000
2.183074889000,-0.107000000000
2.190761871000,-0.102000000000
2.198448853000,-0.102000000000
2.206135835000,-0.102000000000
2.213822817000,-0.102000000000
2.221509799000,-0.097000000000
2.229196781000,-0.094000000000
2.236883763000,-0.092000000000
2.244570745000,-0.090000000000
2.252257727000,-0.087000000000
2.259944709000,-0.092000000000
2.267631691000,-0.090000000000
2.275318673000,-0.085000000000
2.283005655000,-0.085000000000
2.290692637000,-0.080000000000
2.298379619000,-0.077000000000
2.306066601000,-0.077000000000
2.313753583000,-0.077000000000
2.321440565000,-0.075000000000
2.329127547000,-0.072000000000
2.336814529000,-0.072000000000
2.344501511000,-0.070000000000
2.352188493000,-0.070000000000
2.359875475000,-0.068000000000
2.367562457000,-0.065000000000
2.375249439000,-0.063000000000
2.382936421000,-0.068000000000
2.390623403000,-0.065000000000
2.398310385000,-0.065000000000
2.405997367000,-0.065000000000
2.413684349000,-0.063000000000
2.421371331000,-0.060000000000
2.429058313000,-0.060000000000
2.436745295000,-0.068000000000
2.444432277000,-0.075000000000
2.452119259000,-0.080000000000
2.459806241000,-0.080000000000
2.467493223000,-0.072000000000
2.475180205000,-0.053000000000
2.482867187000,-0.034000000000
2.490554169000,-0.029000000000
2.498241151000,-0.026000000000
2.505928133000,-0.021000000000
2.513615115000,-0.041000000000
2.521302097000,-0.063000000000
2.528989079000,-0.058000000000
2.536676061000,-0.055000000000
2.544363043000,-0.063000000000
2.552050025000,-0.063000000000
2.559737007000,-0.055000000000
2.567423989000,-0.065000000000
2.575110971000,-0.114000000000
2.582797953000,-0.116000000000
2.590484935000,0.233000000000
2.598171917000,0.961000000000
2.605858899000,1.338000000000
2.613545881000,0.693000000000
2.621232863000,-0.369000000000
2.628919845000,-0.649000000000
2.636606827000,-0.301000000000
2.644293809000,-0.204000000000
2.651980791000,-0.233000000000
2.659667773000,-0.109000000000
2.667354755000,-0.068000000000
2.675041774000,-0.109000000000
2.682728756000,-0.085000000000
2.690415738000,-0.053000000000
2.698102720000,-0.060000000000
2.705789702000,-0.058000000000
2.713476684000,-0.038000000000
2.721163666000,-0.036000000000
2.728850648000,-0.034000000000
2.736537630000,-0.026000000000
2.744224612000,-0.021000000000
2.751911594000,-0.012000000000
2.759598576000,-0.002000000000
2.767285558000,0.004000000000
2.774972540000,0.014000000000
2.782659522000,0.024000000000
2.790346504000,0.034000000000
2.798033486000,0.048000000000
2.805720468000,0.063000000000
2.813407450000,0.080000000000
2.821094432000,0.094000000000
2.828781414000,0.114000000000
2.836468396000,0.131000000000
2.844155378000,0.145000000000
2.851842360000,0.153000000000
2.859529342000,0.160000000000
2.867216324000,0.163000000000
2.874903306000,0.160000000000
2.882590288000,0.155000000000
2.890277270000,0.141000000000
2.897964252000,0.111000000000
2.905651234000,0.070000000000
2.913338216000,0.024000000000
2.921025198000,-0.021000000000
2.928712180000,-0.065000000000
2.936399162000,-0.097000000000
2.944086144000,-0.121000000000
2.951773126000,-0.133000000000
2.959460108000,-0.141000000000
2.967147090000,-0.141000000000
2.974834072000,-0.141000000000
2.982521054000,-0.138000000000
2.990208036000,-0.136000000000
2.997895018000,-0.131000000000
3.005582000000,-0.126000000000
3.013268982000,-0.121000000000
3.020955964000,-0.119000000000
3.028642946000,-0.116000000000
3.036329928000,-0.114000000000
3.044016910000,-0.114000000000
3.051703892000,-0.114000000000
3.059390874000,-0.109000000000
3.067077856000,-0.104000000000
3.074764838000,-0.104000000000
3.082451820000,-0.107000000000
3.090138802000,-0.109000000000
3.097825784000,-0.109000000000
3.105512766000,-0.107000000000
3.113199748000,-0.107000000000
3.120886730000,-0.107000000000
3.128573712000,-0.107000000000
3.136260694000,-0.107000000000
3.143947676000,-0.107000000000
3.151634658000,-0.107000000000
3.159321640000,-0.107000000000
3.167008622000,-0.104000000000
3.174695604000,-0.099000000000
3.182382586000,-0.097000000000
3.190069568000,-0.097000000000
3.197756550000,-0.094000000000
3.205443532000,-0.094000000000
3.213130514000,-0.097000000000
3.220817496000,-0.092000000000
3.228504478000,-0.090000000000
3.236191501000,-0.090000000000
3.243878344000,-0.087000000000
3.251565187000,-0.087000000000
3.259252030000,-0.087000000000
3.266938873000,-0.085000000000
3.274625716000,-0.082000000000
3.282312559000,-0.082000000000
3.289999402000,-0.080000000000
3.297686245000,-0.077000000000
3.305373088000,-0.077000000000
3.313059931000,-0.075000000000
3.320746774000,-0.072000000000
3.328433617000,-0.072000000000
3.336120460000,-0.072000000000
3.343807303000,-0.070000000000
3.351494146000,-0.068000000000
3.359180989000,-0.068000000000
3.366867832000,-0.068000000000
3.374554675000,-0.065000000000
3.382241518000,-0.065000000000
3.389928361000,-0.063000000000
3.397615204000,-0.065000000000
3.405302047000,-0.063000000000
3.412988890000,-0.060000000000
3.420675733000,-0.063000000000
3.428362576000,-0.063000000000
3.436049419000,-0.063000000000
3.443736262000,-0.060000000000
3.451423105000,-0.060000000000
3.459109948000,-0.060000000000
3.466796791000,-0.058000000000
3.474483634000,-0.058000000000
3.482170477000,-0.058000000000
3.489857320000,-0.058000000000
3.497544163000,-0.058000000000
3.505231006000,-0.058000000000
3.512917849000,-0.055000000000
3.520604692000,-0.058000000000
3.528291535000,-0.063000000000
3.535978378000,-0.070000000000
3.543665221000,-0.075000000000
3.551352064000,-0.072000000000
3.559038907000,-0.060000000000
3.566725750000,-0.046000000000
3.574412593000,-0.034000000000
3.582099436000,-0.024000000000
3.589786279000,-0.017000000000
3.597473122000,-0.034000000000
3.605159965000,-0.055000000000
3.612846808000,-0.058000000000
3.620533651000,-0.055000000000
3.628220494000,-0.058000000000
3.635907337000,-0.055000000000
3.643594180000,-0.053000000000
3.651281023000,-0.063000000000
3.658967866000,-0.104000000000
3.666654709000,-0.133000000000
3.674341552000,0.119000000000
3.682028395000,0.802000000000
3.689715238000,1.338000000000
3.697402081000,0.931000000000
3.705088924000,-0.141000000000
3.712775767000,-0.661000000000
3.720462610000,-0.379000000000
3.728149453000,-0.201000000000
3.735836296000,-0.250000000000
3.743523139000,-0.150000000000
3.751209982000,-0.075000000000
3.758896825000,-0.114000000000
3.766583668000,-0.104000000000
3.774270511000,-0.068000000000
3.781957354000,-0.070000000000
3.789644197000,-0.070000000000
3.797331050000,-0.053000000000
3.805018171000,-0.046000000000
3.812705292000,-0.046000000000
3.820392413000,-0.036000000000
3.828079534000,-0.026000000000
3.835766655000,-0.021000000000
3.843453776000,-0.014000000000
3.851140897000,-0.004000000000
3.858828018000,0.004000000000
3.866515139000,0.017000000000
3.874202260000,0.026000000000
3.881889381000,0.036000000000
3.889576502000,0.051000000000
3.897263623000,0.065000000000
3.904950744000,0.082000000000
3.912637865000,0.097000000000
3.920324986000,0.111000000000
3.928012107000,0.126000000000
3.935699228000,0.136000000000
3.943386349000,0.141000000000
3.951073470000,0.145000000000
3.958760591000,0.143000000000
3.966447712000,0.141000000000
3.974134833000,0.133000000000
3.981821954000,0.111000000000
3.989509075000,0.077000000000
3.997196196000,0.038000000000
4.004883317000,-0.004000000000
4.012570438000,-0.048000000000
4.020257559000,-0.085000000000
4.027944680000,-0.111000000000
4.035631801000,-0.128000000000
4.043318922000,-0.138000000000
4.051006043000,-0.143000000000
4.058693164000,-0.143000000000
4.066380285000,-0.141000000000
4.074067406000,-0.136000000000
4.081754527000,-0.128000000000
4.089441648000,-0.126000000000
4.097128769000,-0.124000000000
4.104815890000,-0.119000000000
4.112503011000,-0.116000000000
4.120190132000,-0.114000000000
4.127877253000,-0.114000000000
4.135564374000,-0.111000000000
4.143251495000,-0.109000000000
4.150938616000,-0.109000000000
4.158625737000,-0.109000000000
4.166312858000,-0.109000000000
4.173999979000,-0.111000000000
4.181687100000,-0.114000000000
4.189374221000,-0.114000000000
4.197061342000,-0.114000000000
4.204748463000,-0.114000000000
4.212435584000,-0.114000000000
4.220122705000,-0.111000000000
4.227809826000,-0.111000000000
4.235496947000,-0.111000000000
4.243184068000,-0.109000000000
4.250871189000,-0.109000000000
4.258558310000,-0.107000000000
4.266245431000,-0.104000000000
4.273932552000,-0.104000000000
4.281619673000,-0.104000000000
4.289306794000,-0.104000000000
4.296993915000,-0.099000000000
4.304681036000,-0.094000000000
4.312368157000,-0.094000000000
4.320055278000,-0.092000000000
4.327742399000,-0.090000000000
4.335429520000,-0.087000000000
4.343116641000,-0.087000000000
4.350803762000,-0.087000000000
4.358490947000,-0.085000000000
4.366177720000,-0.082000000000
4.373864493000,-0.082000000000
4.381551266000,-0.080000000000
4.389238039000,-0.077000000000
4.396924812000,-0.077000000000
4.404611585000,-0.075000000000
4.412298358000,-0.072000000000
4.419985131000,-0.068000000000
4.427671904000,-0.068000000000
4.435358677000,-0.070000000000
4.443045450000,-0.070000000000
4.450732223000,-0.065000000000
4.458418996000,-0.063000000000
4.466105769000,-0.063000000000
4.473792542000,-0.060000000000
4.481479315000,-0.060000000000
4.489166088000,-0.060000000000
4.496852861000,-0.060000000000
4.504539634000,-0.060000000000
4.512226407000,-0.058000000000
4.519913180000,-0.053000000000
4.527599953000,-0.048000000000
4.535286726000,-0.048000000000
4.542973499000,-0.051000000000
4.550660272000,-0.060000000000
4.558347045000,-0.060000000000
4.566033818000,-0.055000000000
4.573720591000,-0.053000000000
4.581407364000,-0.053000000000
4.589094137000,-0.051000000000
4.596780910000,-0.053000000000
4.604467683000,-0.058000000000
4.612154456000,-0.063000000000
4.619841229000,-0.063000000000
4.627528002000,-0.058000000000
4.635214775000,-0.053000000000
4.642901548000,-0.038000000000
4.650588321000,-0.026000000000
4.658275094000,-0.017000000000
4.665961867000,-0.007000000000
4.673648640000,-0.021000000000
4.681335413000,-0.043000000000
4.689022186000,-0.048000000000
4.696708959000,-0.048000000000
4.704395732000,-0.051000000000
4.712082505000,-0.043000000000
4.719769278000,-0.043000000000
4.727456051000,-0.053000000000
4.735142824000,-0.092000000000
4.742829597000,-0.102000000000
4.750516370000,0.194000000000
4.758203143000,0.893000000000
4.765889916000,1.335000000000
4.773576689000,0.810000000000
4.781263462000,-0.243000000000
4.788950235000,-0.647000000000
4.796637008000,-0.340000000000
4.804323781000,-0.199000000000
4.812010554000,-0.236000000000
4.819697327000,-0.121000000000
4.827384100000,-0.058000000000
4.835070873000,-0.099000000000
4.842757646000,-0.082000000000
4.850444419000,-0.048000000000
4.858131192000,-0.053000000000
4.865817965000,-0.048000000000
4.873504738000,-0.029000000000
4.881191511000,-0.026000000000
4.888878284000,-0.029000000000
4.896565057000,-0.017000000000
4.904251830000,-0.007000000000
4.911938603000,0.000000000000
4.919625417000,0.004000000000
4.927312469000,0.014000000000
4.934999521000,0.026000000000
4.942686573000,0.038000000000
4.950373625000,0.048000000000
4.958060677000,0.060000000000
4.965747729000,0.075000000000
4.973434781000,0.092000000000
4.981121833000,0.107000000000
4.988808885000,0.121000000000
4.996495937000,0.133000000000
5.004182989000,0.143000000000
5.011870041000,0.155000000000
5.019557093000,0.163000000000
5.027244145000,0.160000000000
5.034931197000,0.160000000000
5.042618249000,0.158000000000
5.050305301000,0.145000000000
5.057992353000,0.119000000000
5.065679405000,0.085000000000
5.073366457000,0.043000000000
5.081053509000,-0.004000000000
5.088740561000,-0.048000000000
5.096427613000,-0.085000000000
5.104114665000,-0.114000000000
5.111801717000,-0.131000000000
5.119488769000,-0.138000000000
5.127175821000,-0.138000000000
5.134862873000,-0.138000000000
5.142549925000,-0.136000000000
5.150236977000,-0.131000000000
5.157924029000,-0.126000000000
5.165611081000,-0.119000000000
5.173298133000,-0.114000000000
5.180985185000,-0.109000000000
5.188672237000,-0.104000000000
5.196359289000,-0.102000000000
5.204046341000,-0.099000000000
5.211733393000,-0.099000000000
5.219420445000,-0.099000000000
5.227107497000,-0.099000000000
5.234794549000,-0.097000000000
5.242481601000,-0.099000000000
5.250168653000,-0.102000000000
5.257855705000,-0.102000000000
5.265542757000,-0.102000000000
5.273229809000,-0.107000000000
5.280916861000,-0.107000000000
5.288603913000,-0.104000000000
5.296290965000,-0.102000000000
5.303978017000,-0.104000000000
5.311665069000,-0.102000000000
5.319352121000,-0.099000000000
5.327039173000,-0.099000000000
5.334726225000,-0.099000000000
5.342413277000,-0.097000000000
5.350100329000,-0.094000000000
5.357787381000,-0.092000000000
5.365474433000,-0.092000000000
5.373161485000,-0.087000000000
5.380848537000,-0.085000000000
5.388535589000,-0.085000000000
5.396222641000,-0.082000000000
5.403909693000,-0.077000000000
5.411596745000,-0.077000000000
5.419283797000,-0.075000000000
5.426970849000,-0.075000000000
5.434657901000,-0.072000000000
5.442344953000,-0.070000000000
5.450032005000,-0.068000000000
5.457719057000,-0.065000000000
5.465406109000,-0.063000000000
5.473093161000,-0.063000000000
5.480780227000,-0.063000000000
5.488467139000,-0.060000000000
5.496154051000,-0.060000000000
5.503840963000,-0.060000000000
5.511527875000,-0.065000000000
5.519214787000,-0.072000000000
5.526901699000,-0.072000000000
5.534588611000,-0.068000000000
5.542275523000,-0.060000000000
5.549962435000,-0.043000000000
5.557649347000,-0.031000000000
5.565336259000,-0.021000000000
5.573023171000,-0.012000000000
5.580710083000,-0.026000000000
5.588396995000,-0.053000000000
5.596083907000,-0.058000000000
5.603770819000,-0.053000000000
5.611457731000,-0.058000000000
5.619144643000,-0.055000000000
5.626831555000,-0.046000000000
5.634518467000,-0.053000000000
5.642205379000,-0.085000000000
5.649892291000,-0.099000000000
5.657579203000,0.133000000000
5.665266115000,0.783000000000
5.672953027000,1.294000000000
5.680639939000,0.873000000000
5.688326851000,-0.194000000000
5.696013763000,-0.695000000000
5.703700675000,-0.401000000000
5.711387587000,-0.209000000000
5.719074499000,-0.240000000000
5.726761411000,-0.124000000000
5.734448323000,-0.038000000000
5.742135235000,-0.080000000000
5.749822147000,-0.070000000000
5.757509059000,-0.026000000000
5.765195971000,-0.029000000000
5.772882883000,-0.029000000000
5.780569795000,-0.012000000000
5.788256707000,-0.004000000000
5.795943619000,-0.004000000000
5.803630531000,0.004000000000
5.811317443000,0.014000000000
5.819004355000,0.021000000000
5.826691267000,0.029000000000
5.834378179000,0.038000000000
5.842065091000,0.051000000000
5.849752003000,0.065000000000
5.857438915000,0.077000000000
5.865125827000,0.090000000000
5.872812739000,0.104000000000
5.880499651000,0.124000000000
5.888186563000,0.138000000000
5.895873475000,0.153000000000
5.903560387000,0.172000000000
5.911247299000,0.187000000000
5.918934211000,0.192000000000
5.926621123000,0.194000000000
5.934308035000,0.194000000000
5.941994947000,0.192000000000
5.949681859000,0.182000000000
5.957368771000,0.158000000000
5.965055683000,0.124000000000
5.972742595000,0.077000000000
5.980429507000,0.024000000000
5.988116419000,-0.026000000000
5.995803331000,-0.070000000000
6.003490243000,-0.109000000000
6.011177155000,-0.136000000000
6.018864067000,-0.148000000000
6.026550979000,-0.150000000000
6.034237891000,-0.150000000000
6.041924867000,-0.145000000000
6.049611779000,-0.141000000000
6.057298691000,-0.133000000000
6.064985603000,-0.126000000000
6.072672515000,-0.119000000000
6.080359427000,-0.111000000000
6.088046339000,-0.109000000000
6.095733251000,-0.107000000000
6.103420163000,-0.102000000000
6.111107075000,-0.102000000000
6.118793987000,-0.099000000000
6.126480899000,-0.099000000000
6.134167811000,-0.099000000000
6.141854723000,-0.102000000000
6.149541635000,-0.104000000000
6.157228547000,-0.104000000000
6.164915459000,-0.104000000000
6.172602371000,-0.107000000000
6.180289283000,-0.111000000000
6.187976195000,-0.109000000000
6.195663107000,-0.102000000000
6.203350019000,-0.102000000000
6.211036931000,-0.107000000000
6.218723843000,-0.104000000000
6.226410755000,-0.102000000000
6.234097667000,-0.099000000000
6.241784579000,-0.097000000000
6.249471491000,-0.097000000000
6.257158403000,-0.097000000000
6.264845315000,-0.097000000000
6.272532227000,-0.094000000000
6.280219139000,-0.092000000000
6.287906051000,-0.094000000000
6.295592963000,-0.094000000000
6.303279875000,-0.090000000000
6.310966787000,-0.085000000000
6.318653699000,-0.087000000000
6.326340611000,-0.090000000000
6.334027523000,-0.085000000000
6.341714435000,-0.082000000000
6.349401347000,-0.085000000000
6.357088259000,-0.092000000000
6.364775171000,-0.097000000000
6.372462083000,-0.094000000000
6.380148995000,-0.092000000000
6.387835907000,-0.090000000000
6.395522819000,-0.075000000000
6.403209731000,-0.060000000000
6.410896643000,-0.048000000000
6.418583555000,-0.041000000000
6.426270467000,-0.060000000000
6.433957379000,-0.087000000000
6.441644291000,-0.092000000000
6.449331203000,-0.090000000000
6.457018115000,-0.097000000000
6.464705027000,-0.094000000000
6.472391939000,-0.092000000000
6.480078851000,-0.097000000000
6.487765763000,-0.119000000000
6.495452675000,-0.114000000000
6.503139587000,0.148000000000
6.510826499000,0.798000000000
6.518513411000,1.223000000000
6.526200323000,0.644000000000
6.533887235000,-0.462000000000
6.541574147000,-0.832000000000
6.549261059000,-0.476000000000
6.556947971000,-0.321000000000
6.564634883000,-0.328000000000
6.572321795000,-0.167000000000
6.580008707000,-0.082000000000
6.587695619000,-0.124000000000
6.595382531000,-0.111000000000
6.603069503000,-0.075000000000
6.610756206000,-0.080000000000
6.618442909000,-0.077000000000
6.626129612000,-0.063000000000
6.633816315000,-0.058000000000
6.641503018000,-0.058000000000
6.649189721000,-0.051000000000
6.656876424000,-0.046000000000
6.664563127000,-0.041000000000
6.672249830000,-0.034000000000
6.679936533000,-0.021000000000
6.687623236000,-0.012000000000
6.695309939000,0.000000000000
6.702996642000,0.012000000000
6.710683345000,0.021000000000
6.718370048000,0.036000000000
6.726056751000,0.053000000000
6.733743454000,0.072000000000
6.741430157000,0.090000000000
6.749116860000,0.104000000000
6.756803563000,0.119000000000
6.764490266000,0.126000000000
6.772176969000,0.126000000000
6.779863672000,0.124000000000
6.787550375000,0.119000000000
6.795237078000,0.107000000000
6.802923781000,0.077000000000
6.810610484000,0.034000000000
6.818297187000,-0.019000000000
6.825983890000,-0.080000000000
6.833670593000,-0.138000000000
6.841357296000,-0.192000000000
6.849043999000,-0.228000000000
6.856730702000,-0.250000000000
6.864417405000,-0.262000000000
6.872104108000,-0.265000000000
6.879790811000,-0.262000000000
6.887477514000,-0.257000000000
6.895164217000,-0.248000000000
6.902850920000,-0.238000000000
6.910537623000,-0.231000000000
6.918224326000,-0.223000000000
6.925911029000,-0.216000000000
6.933597732000,-0.209000000000
6.941284435000,-0.204000000000
6.948971138000,-0.201000000000
6.956657841000,-0.199000000000
6.964344544000,-0.199000000000
6.972031247000,-0.199000000000
6.979717950000,-0.199000000000
6.987404653000,-0.201000000000
6.995091356000,-0.201000000000
7.002778059000,-0.201000000000
7.010464762000,-0.201000000000
7.018151465000,-0.201000000000
7.025838168000,-0.201000000000
7.033524871000,-0.199000000000
7.041211574000,-0.199000000000
7.048898277000,-0.194000000000
7.056584980000,-0.192000000000
7.064271683000,-0.189000000000
7.071958386000,-0.187000000000
7.079645089000,-0.187000000000
7.087331792000,-0.182000000000
7.095018495000,-0.177000000000
7.102705198000,-0.175000000000
7.110391901000,-0.170000000000
7.118078604000,-0.167000000000
7.125765307000,-0.165000000000
7.133452010000,-0.160000000000
7.141138713000,-0.155000000000
7.148825416000,-0.153000000000
7.156512119000,-0.148000000000
7.164198882000,-0.143000000000
7.171886003000,-0.138000000000
7.179573124000,-0.136000000000
7.187260245000,-0.133000000000
7.194947366000,-0.131000000000
7.202634487000,-0.136000000000
7.210321608000,-0.138000000000
7.218008729000,-0.133000000000
7.225695850000,-0.124000000000
7.233382971000,-0.109000000000
7.241070092000,-0.090000000000
7.248757213000,-0.075000000000
7.256444334000,-0.058000000000
7.264131455000,-0.058000000000
7.271818576000,-0.080000000000
7.279505697000,-0.090000000000
7.287192818000,-0.085000000000
7.294879939000,-0.082000000000
7.302567060000,-0.080000000000
7.310254181000,-0.072000000000
7.317941302000,-0.070000000000
7.325628423000,-0.082000000000
7.333315544000,-0.124000000000
7.341002665000,-0.075000000000
7.348689786000,0.367000000000
7.356376907000,1.090000000000
7.364064028000,1.282000000000
7.371751149000,0.452000000000
7.379438270000,-0.528000000000
7.387125391000,-0.591000000000
7.394812512000,-0.226000000000
7.402499633000,-0.192000000000
7.410186754000,-0.180000000000
7.417873875000,-0.041000000000
7.425560996000,-0.031000000000
7.433248117000,-0.063000000000
7.440935238000,-0.021000000000
7.448622359000,0.002000000000
7.456309480000,-0.002000000000
7.463996601000,0.009000000000
7.471683722000,0.026000000000
7.479370843000,0.031000000000
7.487057964000,0.038000000000
7.494745085000,0.051000000000
7.502432206000,0.058000000000
7.510119327000,0.070000000000
7.517806448000,0.080000000000
7.525493569000,0.092000000000
7.533180690000,0.104000000000
7.540867811000,0.119000000000
7.548554932000,0.136000000000
7.556242053000,0.153000000000
7.563929174000,0.170000000000
7.571616295000,0.189000000000
7.579303416000,0.209000000000
7.586990537000,0.228000000000
7.594677658000,0.248000000000
7.602364779000,0.260000000000
7.610051900000,0.270000000000
7.617739021000,0.272000000000
7.625426142000,0.272000000000
7.633113263000,0.267000000000
7.640800384000,0.253000000000
7.648487505000,0.226000000000
7.656174626000,0.184000000000
7.663861747000,0.136000000000
7.671548868000,0.087000000000
7.679235989000,0.041000000000
7.686923110000,0.002000000000
7.694610231000,-0.024000000000
7.702297352000,-0.036000000000
7.709984473000,-0.038000000000
7.717671594000,-0.038000000000
7.725358779000,-0.034000000000
7.733045900000,-0.026000000000
7.740733021000,-0.021000000000
7.748420142000,-0.014000000000
7.756107263000,-0.007000000000
7.763794384000,-0.004000000000
7.771481505000,-0.002000000000
7.779168626000,0.002000000000
7.786855747000,0.007000000000
7.794542868000,0.009000000000
7.802229989000,0.012000000000
7.809917110000,0.012000000000
7.817604231000,0.014000000000
7.825291352000,0.012000000000
7.832978473000,0.012000000000
7.840665594000,0.012000000000
7.848352715000,0.012000000000
7.856039836000,0.009000000000
7.863726957000,0.009000000000
7.871414078000,0.012000000000
7.879101199000,0.012000000000
7.886788320000,0.014000000000
7.894475441000,0.014000000000
7.902162562000,0.014000000000
7.909849683000,0.017000000000
7.917536804000,0.019000000000
7.925223925000,0.021000000000
7.932911046000,0.024000000000
7.940598167000,0.026000000000
7.948285288000,0.029000000000
7.955972409000,0.031000000000
7.963659530000,0.034000000000
7.971346651000,0.036000000000
7.979033772000,0.036000000000
7.986720893000,0.038000000000
7.994408014000,0.038000000000
8.002095135000,0.038000000000
8.009782256000,0.041000000000
8.017469377000,0.041000000000
8.025156498000,0.041000000000
8.032843619000,0.043000000000
8.040530740000,0.046000000000
8.048217861000,0.048000000000
8.055904982000,0.051000000000
8.063592103000,0.053000000000
8.071279224000,0.051000000000
8.078966345000,0.051000000000
8.086653466000,0.055000000000
8.094340587000,0.058000000000
8.102027708000,0.058000000000
8.109714829000,0.058000000000
8.117401950000,0.058000000000
8.125089071000,0.058000000000
8.132776192000,0.060000000000
8.140463313000,0.060000000000
8.148150434000,0.063000000000
8.155837555000,0.063000000000
8.163524676000,0.063000000000
8.171211797000,0.060000000000
8.178898918000,0.053000000000
8.186586039000,0.046000000000
8.194273160000,0.046000000000
8.201960281000,0.048000000000
8.209647402000,0.060000000000
8.217334523000,0.075000000000
8.225021644000,0.085000000000
8.232708765000,0.097000000000
8.240395886000,0.097000000000
8.248083007000,0.072000000000
8.255770128000,0.053000000000
8.263457249000,0.055000000000
8.271144370000,0.055000000000
8.278831491000,0.051000000000
8.286518680000,0.055000000000
8.294205383000,0.055000000000
8.301892086000,0.041000000000
8.309578789000,-0.004000000000
8.317265492000,-0.002000000000
8.324952195000,0.340000000000
8.332638898000,1.063000000000
8.340325601000,1.452000000000
8.348012304000,0.827000000000
8.355699007000,-0.240000000000
8.363385710000,-0.549000000000
8.371072413000,-0.206000000000
8.378759116000,-0.107000000000
8.386445819000,-0.143000000000
8.394132522000,-0.019000000000
8.401819225000,0.024000000000
8.409505928000,-0.019000000000
8.417192631000,0.004000000000
8.424879334000,0.036000000000
8.432566037000,0.026000000000
8.440252740000,0.031000000000
8.447939443000,0.051000000000
8.455626146000,0.051000000000
8.463312849000,0.051000000000
8.470999552000,0.060000000000
8.478686255000,0.068000000000
8.486372958000,0.072000000000
8.494059661000,0.080000000000
8.501746364000,0.090000000000
8.509433067000,0.097000000000
8.517119770000,0.107000000000
8.524806473000,0.116000000000
8.532493176000,0.131000000000
8.540179879000,0.143000000000
8.547866582000,0.155000000000
8.555553285000,0.170000000000
8.563239988000,0.182000000000
8.570926691000,0.194000000000
8.578613394000,0.206000000000
8.586300097000,0.214000000000
8.593986800000,0.214000000000
8.601673503000,0.214000000000
8.609360206000,0.214000000000
8.617046909000,0.206000000000
8.624733612000,0.192000000000
8.632420315000,0.163000000000
8.640107018000,0.121000000000
8.647793721000,0.077000000000
8.655480424000,0.034000000000
8.663167127000,-0.009000000000
8.670853830000,-0.043000000000
8.678540533000,-0.068000000000
8.686227236000,-0.082000000000
8.693913939000,-0.090000000000
8.701600642000,-0.092000000000
8.709287345000,-0.090000000000
8.716974048000,-0.090000000000
8.724660751000,-0.087000000000
8.732347454000,-0.082000000000
8.740034157000,-0.077000000000
8.747720860000,-0.072000000000
8.755407563000,-0.072000000000
8.763094266000,-0.070000000000
8.770780969000,-0.068000000000
8.778467672000,-0.068000000000
8.786154375000,-0.068000000000
8.793841078000,-0.070000000000
8.801527781000,-0.072000000000
8.809214484000,-0.075000000000
8.816901187000,-0.077000000000
8.824587890000,-0.080000000000
8.832274593000,-0.080000000000
8.839961296000,-0.082000000000
8.847648059000,-0.085000000000
8.855335180000,-0.087000000000
8.863022301000,-0.087000000000
8.870709422000,-0.087000000000
8.878396543000,-0.087000000000
8.886083664000,-0.087000000000
8.893770785000,-0.087000000000
8.901457906000,-0.087000000000
8.909145027000,-0.085000000000
8.916832148000,-0.085000000000
8.924519269000,-0.085000000000
8.932206390000,-0.085000000000
8.939893511000,-0.082000000000
8.947580632000,-0.082000000000
8.955267753000,-0.082000000000
8.962954874000,-0.080000000000
8.970641995000,-0.080000000000
8.978329116000,-0.077000000000
8.986016237000,-0.075000000000
8.993703358000,-0.072000000000
9.001390479000,-0.072000000000
9.009077600000,-0.072000000000
9.016764721000,-0.072000000000
9.024451842000,-0.072000000000
9.032138963000,-0.072000000000
9.039826084000,-0.070000000000
9.047513205000,-0.068000000000
9.055200326000,-0.068000000000
9.062887447000,-0.068000000000
9.070574568000,-0.068000000000
9.078261689000,-0.068000000000
9.085948810000,-0.068000000000
9.093635931000,-0.068000000000
9.101323052000,-0.068000000000
9.109010173000,-0.068000000000
9.116697294000,-0.065000000000
9.124384415000,-0.065000000000
9.132071536000,-0.068000000000
9.139758657000,-0.065000000000
9.147445778000,-0.065000000000
9.155132899000,-0.065000000000
9.162820020000,-0.065000000000
9.170507141000,-0.063000000000
9.178194262000,-0.060000000000
9.185881383000,-0.063000000000
9.193568504000,-0.065000000000
9.201255625000,-0.060000000000
9.208942746000,-0.065000000000
9.216629867000,-0.072000000000
9.224316988000,-0.080000000000
9.232004109000,-0.077000000000
9.239691230000,-0.070000000000
9.247378351000,-0.058000000000
9.255065472000,-0.046000000000
9.262752593000,-0.034000000000
9.270439714000,-0.019000000000
9.278126835000,-0.029000000000
9.285813956000,-0.060000000000
9.293501077000,-0.068000000000
9.301188198000,-0.063000000000
9.308875319000,-0.070000000000
9.316562440000,-0.072000000000
9.324249561000,-0.065000000000
9.331936682000,-0.068000000000
9.339623803000,-0.094000000000
9.347310924000,-0.138000000000
9.354998045000,-0.004000000000
9.362685166000,0.574000000000
9.370372287000,1.248000000000
9.378059408000,1.158000000000
9.385746529000,0.155000000000
9.393433650000,-0.639000000000
9.401120771000,-0.503000000000
9.408807956000,-0.216000000000
9.416494659000,-0.255000000000
9.424181362000,-0.201000000000
9.431868065000,-0.085000000000
9.439554768000,-0.107000000000
9.447241471000,-0.121000000000
9.454928174000,-0.077000000000
9.462614877000,-0.070000000000
9.470301580000,-0.075000000000
9.477988283000,-0.060000000000
9.485674986000,-0.051000000000
9.493361689000,-0.051000000000
9.501048392000,-0.046000000000
9.508735095000,-0.036000000000
9.516421798000,-0.026000000000
9.524108501000,-0.017000000000
9.531795204000,-0.009000000000
9.539481907000,-0.002000000000
9.547168610000,0.007000000000
9.554855313000,0.019000000000
9.562542016000,0.029000000000
9.570228719000,0.043000000000
9.577915422000,0.058000000000
9.585602125000,0.072000000000
9.593288828000,0.092000000000
9.600975531000,0.107000000000
9.608662234000,0.119000000000
9.616348937000,0.128000000000
9.624035640000,0.136000000000
9.631722343000,0.138000000000
9.639409046000,0.136000000000
9.647095749000,0.133000000000
9.654782452000,0.126000000000
9.662469155000,0.104000000000
9.670155858000,0.068000000000
9.677842561000,0.024000000000
9.685529264000,-0.019000000000
9.693215967000,-0.065000000000
9.700902670000,-0.107000000000
9.708589373000,-0.138000000000
9.716276076000,-0.158000000000
9.723962779000,-0.167000000000
9.731649482000,-0.170000000000
9.739336185000,-0.170000000000
9.747022888000,-0.165000000000
9.754709591000,-0.160000000000
9.762396294000,-0.155000000000
9.770082997000,-0.148000000000
9.777769700000,-0.141000000000
9.785456403000,-0.138000000000
9.793143106000,-0.136000000000
9.800829809000,-0.133000000000
9.808516512000,-0.128000000000
9.816203215000,-0.128000000000
9.823889918000,-0.128000000000
9.831576621000,-0.126000000000
9.839263324000,-0.128000000000
9.846950027000,-0.128000000000
9.854636730000,-0.128000000000
9.862323433000,-0.128000000000
9.870010136000,-0.131000000000
9.877696839000,-0.131000000000
9.885383542000,-0.131000000000
9.893070245000,-0.131000000000
9.900756948000,-0.131000000000
9.908443651000,-0.131000000000
9.916130354000,-0.131000000000
9.923817057000,-0.131000000000
9.931503760000,-0.128000000000
9.939190463000,-0.126000000000
9.946877166000,-0.124000000000
9.954563869000,-0.121000000000
9.962250572000,-0.119000000000
9.969937335000,-0.116000000000
9.977624456000,-0.116000000000
9.985311577000,-0.116000000000
9.992998698000,-0.116000000000
10.000685819000,-0.111000000000
10.008372940000,-0.109000000000
10.016060061000,-0.109000000000
10.023747182000,-0.107000000000
10.031434303000,-0.104000000000
10.039121424000,-0.104000000000
10.046808545000,-0.102000000000
10.054495666000,-0.099000000000
10.062182787000,-0.097000000000
10.069869908000,-0.097000000000
10.077557029000,-0.097000000000
10.085244150000,-0.097000000000
10.092931271000,-0.094000000000
10.100618392000,-0.092000000000
10.108305513000,-0.090000000000
10.115992634000,-0.087000000000
10.123679755000,-0.085000000000
10.131366876000,-0.085000000000
10.139053997000,-0.085000000000
10.146741118000,-0.085000000000
10.154428239000,-0.082000000000
10.162115360000,-0.080000000000
10.169802481000,-0.080000000000
10.177489602000,-0.080000000000
10.185176723000,-0.077000000000
10.192863844000,-0.075000000000
10.200550965000,-0.072000000000
10.208238086000,-0.077000000000
10.215925207000,-0.087000000000
10.223612328000,-0.090000000000
10.231299449000,-0.085000000000
10.238986570000,-0.080000000000
10.246673691000,-0.068000000000
10.254360812000,-0.053000000000
10.262047933000,-0.038000000000
10.269735054000,-0.029000000000
10.277422175000,-0.041000000000
10.285109296000,-0.068000000000
10.292796417000,-0.075000000000
10.300483538000,-0.070000000000
10.308170659000,-0.075000000000
10.315857780000,-0.072000000000
10.323544901000,-0.068000000000
10.331232022000,-0.072000000000
10.338919143000,-0.099000000000
10.346606264000,-0.136000000000
10.354293385000,0.026000000000
10.361980506000,0.635000000000
10.369667627000,1.277000000000
10.377354748000,1.085000000000
10.385041869000,0.046000000000
10.392728990000,-0.674000000000
10.400416111000,-0.484000000000
10.408103232000,-0.226000000000
10.415790353000,-0.262000000000
10.423477474000,-0.187000000000
10.431164595000,-0.075000000000
10.438851716000,-0.104000000000
10.446538837000,-0.114000000000
10.454225958000,-0.068000000000
10.461913079000,-0.063000000000
10.469600200000,-0.068000000000
10.477287321000,-0.051000000000
10.484974442000,-0.041000000000
10.492661563000,-0.041000000000
10.500348684000,-0.034000000000
10.508035805000,-0.021000000000
10.515722926000,-0.014000000000
10.523410047000,-0.007000000000
10.531097232000,0.002000000000
10.538783935000,0.012000000000
10.546470638000,0.021000000000
10.554157341000,0.034000000000
10.561844044000,0.048000000000
10.569530747000,0.060000000000
10.577217450000,0.075000000000
10.584904153000,0.092000000000
10.592590856000,0.111000000000
10.600277559000,0.128000000000
10.607964262000,0.143000000000
10.615650965000,0.155000000000
10.623337668000,0.163000000000
10.631024371000,0.165000000000
10.638711074000,0.165000000000
10.646397777000,0.163000000000
10.654084480000,0.150000000000
10.661771183000,0.124000000000
10.669457886000,0.082000000000
10.677144589000,0.031000000000
10.684831292000,-0.021000000000
10.692517995000,-0.070000000000
10.700204698000,-0.111000000000
10.707891401000,-0.145000000000
10.715578104000,-0.163000000000
10.723264807000,-0.170000000000
10.730951510000,-0.172000000000
10.738638213000,-0.172000000000
10.746324916000,-0.165000000000
10.754011619000,-0.158000000000
10.761698322000,-0.150000000000
10.769385025000,-0.145000000000
10.777071728000,-0.141000000000
10.784758431000,-0.136000000000
10.792445134000,-0.131000000000
10.800131837000,-0.126000000000
10.807818540000,-0.121000000000
10.815505243000,-0.119000000000
10.823191946000,-0.119000000000
10.830878649000,-0.119000000000
10.838565352000,-0.119000000000
10.846252055000,-0.121000000000
10.853938758000,-0.121000000000
10.861625461000,-0.124000000000
10.869312164000,-0.124000000000
10.876998867000,-0.121000000000
10.884685570000,-0.121000000000
10.892372273000,-0.124000000000
10.900058976000,-0.124000000000
10.907745679000,-0.121000000000
10.915432382000,-0.119000000000
10.923119085000,-0.119000000000
10.930805788000,-0.116000000000
10.938492491000,-0.114000000000
10.946179194000,-0.114000000000
10.953865897000,-0.111000000000
10.961552600000,-0.109000000000
10.969239303000,-0.107000000000
10.976926006000,-0.104000000000
10.984612709000,-0.102000000000
10.992299412000,-0.102000000000
10.999986115000,-0.099000000000
11.007672818000,-0.097000000000
11.015359521000,-0.094000000000
11.023046224000,-0.092000000000
11.030732927000,-0.090000000000
11.038419630000,-0.090000000000
11.046106333000,-0.087000000000
11.053793036000,-0.085000000000
11.061479739000,-0.085000000000
11.069166442000,-0.082000000000
11.076853145000,-0.082000000000
11.084539848000,-0.082000000000
11.092226611000,-0.080000000000
11.099913732000,-0.077000000000
11.107600853000,-0.077000000000
11.115287974000,-0.077000000000
11.122975095000,-0.075000000000
11.130662216000,-0.072000000000
11.138349337000,-0.072000000000
11.146036458000,-0.070000000000
11.153723579000,-0.068000000000
11.161410700000,-0.068000000000
11.169097821000,-0.068000000000
11.176784942000,-0.065000000000
11.184472063000,-0.065000000000
11.192159184000,-0.065000000000
11.199846305000,-0.060000000000
11.207533426000,-0.060000000000
11.215220547000,-0.060000000000
11.222907668000,-0.060000000000
11.230594789000,-0.060000000000
11.238281910000,-0.063000000000
11.245969031000,-0.070000000000
11.253656152000,-0.075000000000
11.261343273000,-0.072000000000
11.269030394000,-0.070000000000
11.276717515000,-0.058000000000
11.284404636000,-0.041000000000
11.292091757000,-0.029000000000
11.299778878000,-0.017000000000
11.307465999000,-0.019000000000
11.315153120000,-0.046000000000
11.322840241000,-0.060000000000
11.330527362000,-0.055000000000
11.338214483000,-0.058000000000
11.345901604000,-0.058000000000
11.353588725000,-0.053000000000
11.361275846000,-0.055000000000
11.368962967000,-0.075000000000
11.376650088000,-0.119000000000
11.384337209000,-0.036000000000
11.392024330000,0.462000000000
11.399711451000,1.180000000000
11.407398572000,1.262000000000
11.415085693000,0.362000000000
11.422772814000,-0.559000000000
11.430459935000,-0.566000000000
11.438147056000,-0.245000000000
11.445834177000,-0.245000000000
11.453521298000,-0.216000000000
11.461208419000,-0.080000000000
11.468895540000,-0.080000000000
11.476582661000,-0.107000000000
11.484269782000,-0.068000000000
11.491956903000,-0.048000000000
11.499644024000,-0.058000000000
11.507331145000,-0.043000000000
11.515018266000,-0.031000000000
11.522705387000,-0.031000000000
11.530392508000,-0.021000000000
11.538079629000,-0.009000000000
11.545766750000,-0.002000000000
11.553453871000,0.002000000000
11.561140992000,0.014000000000
11.568828113000,0.026000000000
11.576515234000,0.036000000000
11.584202355000,0.051000000000
11.591889476000,0.065000000000
11.599576597000,0.077000000000
11.607263718000,0.090000000000
11.614950839000,0.107000000000
11.622637960000,0.124000000000
11.630325081000,0.141000000000
11.638012202000,0.155000000000
11.645699323000,0.165000000000
11.653386512000,0.175000000000
11.661073355000,0.182000000000
11.668760198000,0.180000000000
11.676447041000,0.175000000000
11.684133884000,0.165000000000
11.691820727000,0.148000000000
11.699507570000,0.116000000000
11.707194413000,0.068000000000
11.714881256000,0.017000000000
11.722568099000,-0.034000000000
11.730254942000,-0.082000000000
11.737941785000,-0.121000000000
11.745628628000,-0.145000000000
11.753315471000,-0.160000000000
11.761002314000,-0.165000000000
11.768689157000,-0.160000000000
11.776376000000,-0.158000000000
11.784062843000,-0.153000000000
11.791749686000,-0.145000000000
11.799436529000,-0.138000000000
11.807123372000,-0.128000000000
11.814810215000,-0.121000000000
11.822497058000,-0.116000000000
11.830183901000,-0.111000000000
11.837870744000,-0.111000000000
11.845557587000,-0.109000000000
11.853244430000,-0.107000000000
11.860931273000,-0.104000000000
11.868618116000,-0.107000000000
11.876304959000,-0.111000000000
11.883991802000,-0.114000000000
11.891678645000,-0.114000000000
11.899365488000,-0.114000000000
11.907052331000,-0.114000000000
11.914739174000,-0.114000000000
11.922426017000,-0.116000000000
11.930112860000,-0.116000000000
11.937799703000,-0.114000000000
11.945486546000,-0.111000000000
11.953173389000,-0.109000000000
11.960860232000,-0.107000000000
11.968547075000,-0.107000000000
11.976233918000,-0.107000000000
11.983920761000,-0.102000000000
11.991607604000,-0.094000000000
11.999294447000,-0.094000000000
12.006981290000,-0.099000000000
12.014668133000,-0.099000000000
12.022354976000,-0.099000000000
12.030041819000,-0.097000000000
12.037728662000,-0.092000000000
12.045415505000,-0.090000000000
12.053102348000,-0.090000000000
12.060789191000,-0.087000000000
12.068476034000,-0.082000000000
12.076162877000,-0.082000000000
12.083849720000,-0.082000000000
12.091536563000,-0.080000000000
12.099223406000,-0.080000000000
12.106910249000,-0.077000000000
12.114597092000,-0.077000000000
12.122283935000,-0.077000000000
12.129970778000,-0.072000000000
12.137657621000,-0.070000000000
12.145344464000,-0.072000000000
12.153031307000,-0.070000000000
12.160718150000,-0.068000000000
12.168404993000,-0.065000000000
12.176091836000,-0.068000000000
12.183778679000,-0.072000000000
12.191465522000,-0.075000000000
12.199152365000,-0.080000000000
12.206839208000,-0.077000000000
12.214526065000,-0.072000000000
12.222213047000,-0.063000000000
12.229900029000,-0.051000000000
12.237587011000,-0.041000000000
12.245273993000,-0.029000000000
12.252960975000,-0.034000000000
12.260647957000,-0.063000000000
12.268334939000,-0.075000000000
12.276021921000,-0.070000000000
12.283708903000,-0.072000000000
12.291395885000,-0.075000000000
12.299082867000,-0.070000000000
12.306769849000,-0.070000000000
12.314456831000,-0.090000000000
12.322143813000,-0.119000000000
12.329830795000,0.007000000000
12.337517777000,0.559000000000
12.345204759000,1.216000000000
12.352891741000,1.092000000000
12.360578723000,0.055000000000
12.368265705000,-0.739000000000
12.375952687000,-0.593000000000
12.383639669000,-0.296000000000
12.391326651000,-0.311000000000
12.399013633000,-0.228000000000
12.406700615000,-0.090000000000
12.414387597000,-0.107000000000
12.422074579000,-0.124000000000
12.429761561000,-0.080000000000
12.437448543000,-0.072000000000
12.445135525000,-0.082000000000
12.452822507000,-0.068000000000
12.460509489000,-0.058000000000
12.468196471000,-0.060000000000
12.475883453000,-0.053000000000
12.483570435000,-0.046000000000
12.491257417000,-0.041000000000
12.498944399000,-0.034000000000
12.506631381000,-0.024000000000
12.514318363000,-0.014000000000
12.522005345000,-0.007000000000
12.529692327000,0.007000000000
12.537379309000,0.019000000000
12.545066291000,0.029000000000
12.552753273000,0.046000000000
12.560440255000,0.063000000000
12.568127237000,0.077000000000
12.575814219000,0.097000000000
12.583501201000,0.119000000000
12.591188183000,0.133000000000
12.598875165000,0.138000000000
12.606562147000,0.138000000000
12.614249129000,0.136000000000
12.621936111000,0.131000000000
12.629623093000,0.116000000000
12.637310075000,0.082000000000
12.644997057000,0.034000000000
12.652684039000,-0.021000000000
12.660371021000,-0.082000000000
12.668058003000,-0.141000000000
12.675744985000,-0.187000000000
12.683431967000,-0.221000000000
12.691118949000,-0.245000000000
12.698805931000,-0.257000000000
12.706492913000,-0.257000000000
12.714179895000,-0.255000000000
12.721866877000,-0.250000000000
12.729553859000,-0.245000000000
12.737240841000,-0.236000000000
12.744927823000,-0.226000000000
12.752614805000,-0.218000000000
12.760301787000,-0.211000000000
12.767988769000,-0.206000000000
12.775675788000,-0.204000000000
12.783362491000,-0.199000000000
12.791049194000,-0.197000000000
12.798735897000,-0.197000000000
12.806422600000,-0.197000000000
12.814109303000,-0.197000000000
12.821796006000,-0.199000000000
12.829482709000,-0.201000000000
12.837169412000,-0.204000000000
12.844856115000,-0.204000000000
12.852542818000,-0.204000000000
12.860229521000,-0.206000000000
12.867916224000,-0.206000000000
12.875602927000,-0.204000000000
12.883289630000,-0.201000000000
12.890976333000,-0.201000000000
12.898663036000,-0.199000000000
12.906349739000,-0.197000000000
12.914036442000,-0.194000000000
12.921723145000,-0.192000000000
12.929409848000,-0.189000000000
12.937096551000,-0.187000000000
12.944783254000,-0.184000000000
12.952469957000,-0.180000000000
12.960156660000,-0.180000000000
12.967843363000,-0.180000000000
12.975530066000,-0.175000000000
12.983216769000,-0.172000000000
12.990903472000,-0.167000000000
12.998590175000,-0.165000000000
13.006276878000,-0.163000000000
13.013963581000,-0.160000000000
13.021650284000,-0.158000000000
13.029336987000,-0.155000000000
13.037023690000,-0.153000000000
13.044710393000,-0.150000000000
13.052397096000,-0.145000000000
13.060083799000,-0.145000000000
13.067770502000,-0.150000000000
13.075457205000,-0.155000000000
13.083143908000,-0.153000000000
13.090830611000,-0.148000000000
13.098517314000,-0.138000000000
13.106204017000,-0.121000000000
13.113890720000,-0.107000000000
13.121577423000,-0.094000000000
13.129264126000,-0.085000000000
13.136950829000,-0.094000000000
13.144637532000,-0.119000000000
13.152324235000,-0.121000000000
13.160010938000,-0.116000000000
13.167697641000,-0.119000000000
13.175384344000,-0.114000000000
13.183071047000,-0.111000000000
13.190757750000,-0.114000000000
13.198444453000,-0.141000000000
13.206131156000,-0.160000000000
13.213817859000,0.065000000000
13.221504562000,0.732000000000
13.229191265000,1.296000000000
13.236877968000,0.924000000000
13.244564671000,-0.165000000000
13.252251374000,-0.734000000000
13.259938077000,-0.452000000000
13.267624780000,-0.240000000000
13.275311483000,-0.284000000000
13.282998186000,-0.177000000000
13.290684889000,-0.085000000000
13.298371592000,-0.124000000000
13.306058295000,-0.119000000000
13.313744998000,-0.077000000000
13.321431701000,-0.077000000000
13.329118404000,-0.075000000000
13.336805167000,-0.053000000000
13.344492288000,-0.046000000000
13.352179409000,-0.046000000000
13.359866530000,-0.036000000000
13.367553651000,-0.021000000000
13.375240772000,-0.014000000000
13.382927893000,-0.002000000000
13.390615014000,0.014000000000
13.398302135000,0.021000000000
13.405989256000,0.031000000000
13.413676377000,0.048000000000
13.421363498000,0.063000000000
13.429050619000,0.082000000000
13.436737740000,0.102000000000
13.444424861000,0.124000000000
13.452111982000,0.148000000000
13.459799103000,0.170000000000
13.467486224000,0.187000000000
13.475173345000,0.204000000000
13.482860466000,0.211000000000
13.490547587000,0.214000000000
13.498234708000,0.214000000000
13.505921829000,0.209000000000
13.513608950000,0.189000000000
13.521296071000,0.153000000000
13.528983192000,0.099000000000
13.536670313000,0.038000000000
13.544357434000,-0.017000000000
13.552044555000,-0.063000000000
13.559731676000,-0.102000000000
13.567418797000,-0.126000000000
13.575105918000,-0.141000000000
13.582793039000,-0.145000000000
13.590480160000,-0.145000000000
13.598167281000,-0.141000000000
13.605854402000,-0.133000000000
13.613541523000,-0.126000000000
13.621228644000,-0.119000000000
13.628915765000,-0.111000000000
13.636602886000,-0.104000000000
13.644290007000,-0.099000000000
13.651977128000,-0.094000000000
13.659664249000,-0.090000000000
13.667351370000,-0.085000000000
13.675038491000,-0.080000000000
13.682725612000,-0.077000000000
13.690412733000,-0.077000000000
13.698099854000,-0.077000000000
13.705786975000,-0.077000000000
13.713474096000,-0.077000000000
13.721161217000,-0.075000000000
13.728848338000,-0.075000000000
13.736535459000,-0.075000000000
13.744222580000,-0.075000000000
13.751909701000,-0.075000000000
13.759596822000,-0.075000000000
13.767283943000,-0.072000000000
13.774971064000,-0.070000000000
13.782658185000,-0.068000000000
13.790345306000,-0.065000000000
13.798032427000,-0.063000000000
13.805719548000,-0.060000000000
13.813406669000,-0.058000000000
13.821093790000,-0.055000000000
13.828780911000,-0.055000000000
13.836468032000,-0.051000000000
13.844155153000,-0.048000000000
13.851842274000,-0.046000000000
13.859529395000,-0.043000000000
13.867216516000,-0.041000000000
13.874903637000,-0.038000000000
13.882590758000,-0.036000000000
13.890277879000,-0.034000000000
13.897965064000,-0.031000000000
13.905651767000,-0.029000000000
13.913338470000,-0.029000000000
13.921025173000,-0.026000000000
13.928711876000,-0.024000000000
13.936398579000,-0.024000000000
13.944085282000,-0.024000000000
13.951771985000,-0.019000000000
13.959458688000,-0.017000000000
13.967145391000,-0.019000000000
13.974832094000,-0.024000000000
13.982518797000,-0.031000000000
13.990205500000,-0.031000000000
13.997892203000,-0.024000000000
14.005578906000,-0.014000000000
14.013265609000,0.000000000000
14.020952312000,0.014000000000
14.028639015000,0.026000000000
14.036325718000,0.034000000000
14.044012421000,0.021000000000
14.051699124000,-0.004000000000
14.059385827000,-0.007000000000
14.067072530000,-0.002000000000
14.074759233000,-0.007000000000
14.082445936000,-0.007000000000
14.090132639000,-0.002000000000
14.097819342000,-0.004000000000
14.105506045000,-0.029000000000
14.113192748000,-0.065000000000
14.120879451000,0.094000000000
14.128566154000,0.693000000000
14.136252857000,1.333000000000
14.143939560000,1.155000000000
14.151626263000,0.124000000000
14.159312966000,-0.613000000000
14.166999669000,-0.435000000000
14.174686372000,-0.160000000000
14.182373075000,-0.192000000000
14.190059778000,-0.119000000000
14.197746481000,-0.007000000000
14.205433184000,-0.036000000000
14.213119887000,-0.046000000000
14.220806590000,0.000000000000
14.228493293000,0.004000000000
14.236179996000,0.000000000000
14.243866699000,0.017000000000
14.251553402000,0.026000000000
14.259240105000,0.029000000000
14.266926808000,0.036000000000
14.274613511000,0.043000000000
14.282300214000,0.051000000000
14.289986917000,0.058000000000
14.297673620000,0.068000000000
14.305360323000,0.077000000000
14.313047026000,0.092000000000
14.320733729000,0.107000000000
14.328420432000,0.119000000000
14.336107135000,0.131000000000
14.343793838000,0.150000000000
14.351480541000,0.170000000000
14.359167244000,0.192000000000
14.366853947000,0.211000000000
14.374540650000,0.231000000000
14.382227353000,0.245000000000
14.389914056000,0.253000000000
14.397600759000,0.257000000000
14.405287462000,0.257000000000
14.412974165000,0.253000000000
14.420660868000,0.238000000000
14.428347571000,0.204000000000
14.436034274000,0.158000000000
14.443720977000,0.102000000000
14.451407680000,0.043000000000
14.459094443000,-0.007000000000
14.466781564000,-0.048000000000
14.474468685000,-0.080000000000
14.482155806000,-0.099000000000
14.489842927000,-0.109000000000
14.497530048000,-0.111000000000
14.505217169000,-0.111000000000
14.512904290000,-0.104000000000
14.520591411000,-0.099000000000
14.528278532000,-0.092000000000
14.535965653000,-0.090000000000
14.543652774000,-0.082000000000
14.551339895000,-0.075000000000
14.559027016000,-0.072000000000
14.566714137000,-0.070000000000
14.574401258000,-0.063000000000
14.582088379000,-0.060000000000
14.589775500000,-0.058000000000
14.597462621000,-0.058000000000
14.605149742000,-0.060000000000
14.612836863000,-0.060000000000
14.620523984000,-0.063000000000
14.628211105000,-0.063000000000
14.635898226000,-0.063000000000
14.643585347000,-0.065000000000
14.651272468000,-0.065000000000
14.658959589000,-0.063000000000
14.666646710000,-0.063000000000
14.674333831000,-0.063000000000
14.682020952000,-0.060000000000
14.689708073000,-0.060000000000
14.697395194000,-0.058000000000
14.705082315000,-0.053000000000
14.712769436000,-0.051000000000
14.720456557000,-0.051000000000
14.728143678000,-0.051000000000
14.735830799000,-0.048000000000
14.743517920000,-0.048000000000
14.751205041000,-0.043000000000
14.758892162000,-0.041000000000
14.766579283000,-0.043000000000
14.774266404000,-0.041000000000
14.781953525000,-0.034000000000
14.789640646000,-0.031000000000
14.797327767000,-0.034000000000
14.805014888000,-0.034000000000
14.812702009000,-0.031000000000
14.820389130000,-0.026000000000
14.828076251000,-0.026000000000
14.835763372000,-0.026000000000
14.843450493000,-0.026000000000
14.851137614000,-0.021000000000
14.858824735000,-0.021000000000
14.866511856000,-0.021000000000
14.874198977000,-0.019000000000
14.881886098000,-0.019000000000
14.889573219000,-0.021000000000
14.897260340000,-0.021000000000
14.904947461000,-0.019000000000
14.912634582000,-0.017000000000
14.920321703000,-0.019000000000
14.928008824000,-0.019000000000
14.935695945000,-0.017000000000
14.943383066000,-0.017000000000
14.951070187000,-0.017000000000
14.958757308000,-0.012000000000
14.966444429000,-0.014000000000
14.974131550000,-0.024000000000
14.981818671000,-0.026000000000
14.989505792000,-0.026000000000
14.997192913000,-0.024000000000
15.004880034000,-0.019000000000
15.012567155000,-0.007000000000
15.020254344000,0.004000000000
15.027941187000,0.017000000000
15.035628030000,0.026000000000
15.043314873000,0.009000000000
15.051001716000,-0.017000000000
15.058688559000,-0.017000000000
15.066375402000,-0.014000000000
15.074062245000,-0.017000000000
15.081749088000,-0.014000000000
15.089435931000,-0.012000000000
15.097122774000,-0.017000000000
15.104809617000,-0.048000000000
15.112496460000,-0.063000000000
15.120183303000,0.189000000000
15.127870146000,0.866000000000
15.135556989000,1.374000000000
15.143243832000,0.922000000000
15.150930675000,-0.172000000000
15.158617518000,-0.683000000000
15.166304361000,-0.394000000000
15.173991204000,-0.204000000000
15.181678047000,-0.233000000000
15.189364890000,-0.111000000000
15.197051733000,-0.019000000000
15.204738576000,-0.055000000000
15.212425419000,-0.051000000000
15.220112262000,-0.012000000000
15.227799105000,-0.012000000000
15.235485948000,-0.014000000000
15.243172791000,0.000000000000
15.250859634000,0.007000000000
15.258546477000,0.009000000000
15.266233320000,0.019000000000
15.273920163000,0.026000000000
15.281607006000,0.034000000000
15.289293849000,0.043000000000
15.296980692000,0.055000000000
15.304667535000,0.065000000000
15.312354378000,0.077000000000
15.320041221000,0.090000000000
15.327728064000,0.104000000000
15.335414907000,0.116000000000
15.343101750000,0.133000000000
15.350788593000,0.150000000000
15.358475436000,0.170000000000
15.366162279000,0.187000000000
15.373849122000,0.204000000000
15.381535965000,0.218000000000
15.389222808000,0.226000000000
15.396909651000,0.228000000000
15.404596494000,0.228000000000
15.412283337000,0.223000000000
15.419970180000,0.206000000000
15.427657023000,0.180000000000
15.435343866000,0.133000000000
15.443030709000,0.080000000000
15.450717552000,0.024000000000
15.458404395000,-0.026000000000
15.466091238000,-0.072000000000
15.473778081000,-0.109000000000
15.481464924000,-0.128000000000
15.489151767000,-0.136000000000
15.496838610000,-0.138000000000
15.504525453000,-0.138000000000
15.512212296000,-0.136000000000
15.519899139000,-0.128000000000
15.527585982000,-0.119000000000
15.535272825000,-0.111000000000
15.542959668000,-0.109000000000
15.550646511000,-0.099000000000
15.558333354000,-0.092000000000
15.566020197000,-0.087000000000
15.573707040000,-0.085000000000
15.581393897000,-0.087000000000
15.589080879000,-0.087000000000
15.596767861000,-0.082000000000
15.604454843000,-0.085000000000
15.612141825000,-0.090000000000
15.619828807000,-0.092000000000
15.627515789000,-0.094000000000
15.635202771000,-0.097000000000
15.642889753000,-0.099000000000
15.650576735000,-0.097000000000
15.658263717000,-0.099000000000
15.665950699000,-0.097000000000
15.673637681000,-0.094000000000
15.681324663000,-0.097000000000
15.689011645000,-0.097000000000
15.696698627000,-0.094000000000
15.704385609000,-0.092000000000
15.712072591000,-0.090000000000
15.719759573000,-0.087000000000
15.727446555000,-0.085000000000
15.735133537000,-0.085000000000
15.742820519000,-0.085000000000
15.750507501000,-0.082000000000
15.758194483000,-0.077000000000
15.765881465000,-0.075000000000
15.773568447000,-0.075000000000
15.781255429000,-0.072000000000
15.788942411000,-0.070000000000
15.796629393000,-0.068000000000
15.804316375000,-0.068000000000
15.812003357000,-0.065000000000
15.819690339000,-0.060000000000
15.827377321000,-0.058000000000
15.835064303000,-0.060000000000
15.842751285000,-0.063000000000
15.850438267000,-0.058000000000
15.858125249000,-0.055000000000
15.865812231000,-0.053000000000
15.873499213000,-0.051000000000
15.881186195000,-0.053000000000
15.888873177000,-0.051000000000
15.896560159000,-0.051000000000
15.904247141000,-0.051000000000
15.911934123000,-0.048000000000
15.919621105000,-0.051000000000
15.927308087000,-0.051000000000
15.934995069000,-0.046000000000
15.942682051000,-0.043000000000
15.950369033000,-0.046000000000
15.958056015000,-0.043000000000
15.965742997000,-0.038000000000
15.973429979000,-0.038000000000
15.981116961000,-0.041000000000
15.988803943000,-0.041000000000
15.996490925000,-0.036000000000
16.004177907000,-0.038000000000
16.011864889000,-0.046000000000
16.019551871000,-0.051000000000
16.027238853000,-0.048000000000
16.034925835000,-0.051000000000
16.042612817000,-0.046000000000
16.050299799000,-0.031000000000
16.057986781000,-0.017000000000
16.065673763000,-0.009000000000
16.073360745000,0.004000000000
16.081047727000,0.000000000000
16.088734709000,-0.029000000000
16.096421691000,-0.038000000000
16.104108673000,-0.034000000000
16.111795655000,-0.036000000000
16.119482637000,-0.038000000000
16.127169619000,-0.034000000000
16.134856601000,-0.034000000000
16.142543620000,-0.063000000000
16.150230602000,-0.111000000000
16.157917584000,0.009000000000
16.165604566000,0.576000000000
16.173291548000,1.282000000000
16.180978530000,1.260000000000
16.188665512000,0.291000000000
16.196352494000,-0.566000000000
16.204039476000,-0.496000000000
16.211726458000,-0.199000000000
16.219413440000,-0.223000000000
16.227100422000,-0.187000000000
16.234787404000,-0.068000000000
16.242474386000,-0.082000000000
16.250161368000,-0.102000000000
16.257848350000,-0.058000000000
16.265535332000,-0.046000000000
16.273222314000,-0.055000000000
16.280909296000,-0.041000000000
16.288596278000,-0.029000000000
16.296283260000,-0.029000000000
16.303970242000,-0.021000000000
16.311657224000,-0.014000000000
16.319344206000,-0.007000000000
16.327031188000,0.000000000000
16.334718170000,0.007000000000
16.342405152000,0.017000000000
16.350092134000,0.031000000000
16.357779116000,0.043000000000
16.365466098000,0.058000000000
16.373153080000,0.068000000000
16.380840062000,0.085000000000
16.388527044000,0.104000000000
16.396214026000,0.124000000000
16.403901008000,0.143000000000
16.411587990000,0.165000000000
16.419274972000,0.182000000000
16.426961954000,0.189000000000
16.434648936000,0.194000000000
16.442335918000,0.199000000000
16.450022900000,0.194000000000
16.457709882000,0.182000000000
16.465396864000,0.165000000000
16.473083846000,0.131000000000
16.480770828000,0.080000000000
16.488457810000,0.026000000000
16.496144792000,-0.024000000000
16.503831774000,-0.072000000000
16.511518756000,-0.111000000000
16.519205738000,-0.138000000000
16.526892720000,-0.153000000000
16.534579702000,-0.160000000000
16.542266684000,-0.158000000000
16.549953666000,-0.158000000000
16.557640648000,-0.155000000000
16.565327630000,-0.148000000000
16.573014612000,-0.141000000000
16.580701594000,-0.136000000000
16.588388576000,-0.133000000000
16.596075558000,-0.136000000000
16.603762540000,-0.133000000000
16.611449522000,-0.128000000000
16.619136504000,-0.128000000000
16.626823486000,-0.126000000000
16.634510468000,-0.124000000000
16.642197450000,-0.126000000000
16.649884432000,-0.128000000000
16.657571414000,-0.128000000000
16.665258396000,-0.131000000000
16.672945378000,-0.133000000000
16.680632360000,-0.136000000000
16.688319342000,-0.136000000000
16.696006324000,-0.141000000000
16.703693347000,-0.143000000000
16.711380190000,-0.143000000000
16.719067033000,-0.141000000000
16.726753876000,-0.141000000000
16.734440719000,-0.141000000000
16.742127562000,-0.143000000000
16.749814405000,-0.141000000000
16.757501248000,-0.138000000000
16.765188091000,-0.141000000000
16.772874934000,-0.141000000000
16.780561777000,-0.138000000000
16.788248620000,-0.138000000000
16.795935463000,-0.141000000000
16.803622306000,-0.138000000000
16.811309149000,-0.136000000000
16.818995992000,-0.131000000000
16.826682835000,-0.131000000000
16.834369678000,-0.136000000000
16.842056521000,-0.133000000000
16.849743364000,-0.128000000000
16.857430207000,-0.131000000000
16.865117050000,-0.131000000000
16.872803893000,-0.128000000000
16.880490736000,-0.131000000000
16.888177579000,-0.138000000000
16.895864422000,-0.143000000000
16.903551265000,-0.145000000000
16.911238108000,-0.145000000000
16.918924951000,-0.136000000000
16.926611794000,-0.119000000000
16.934298637000,-0.107000000000
16.941985480000,-0.102000000000
16.949672323000,-0.092000000000
16.957359166000,-0.097000000000
16.965046009000,-0.126000000000
16.972732852000,-0.141000000000
16.980419695000,-0.138000000000
16.988106538000,-0.138000000000
16.995793381000,-0.133000000000
17.003480224000,-0.128000000000
17.011167067000,-0.133000000000
17.018853910000,-0.153000000000
17.026540753000,-0.189000000000
17.034227596000,-0.065000000000
17.041914439000,0.496000000000
17.049601282000,1.185000000000
17.057288125000,1.116000000000
17.064974968000,0.114000000000
17.072661811000,-0.720000000000
17.080348654000,-0.610000000000
17.088035497000,-0.304000000000
17.095722340000,-0.316000000000
17.103409183000,-0.257000000000
17.111096026000,-0.133000000000
17.118782869000,-0.153000000000
17.126469712000,-0.170000000000
17.134156555000,-0.124000000000
17.141843398000,-0.114000000000
17.149530241000,-0.121000000000
17.157217084000,-0.104000000000
17.164903927000,-0.090000000000
17.172590770000,-0.090000000000
17.180277613000,-0.082000000000
17.187964456000,-0.072000000000
17.195651299000,-0.068000000000
17.203338142000,-0.058000000000
17.211024985000,-0.046000000000
17.218711828000,-0.034000000000
17.226398671000,-0.021000000000
17.234085514000,-0.007000000000
17.241772357000,0.012000000000
17.249459200000,0.029000000000
17.257146043000,0.048000000000
17.264832896000,0.075000000000
17.272519599000,0.102000000000
17.280206302000,0.124000000000
17.287893005000,0.143000000000
17.295579708000,0.167000000000
17.303266411000,0.180000000000
17.310953114000,0.184000000000
17.318639817000,0.187000000000
17.326326520000,0.182000000000
17.334013223000,0.165000000000
17.341699926000,0.131000000000
17.349386629000,0.082000000000
17.357073332000,0.024000000000
17.364760035000,-0.036000000000
17.372446738000,-0.090000000000
17.380133441000,-0.131000000000
17.387820144000,-0.165000000000
17.395506847000,-0.182000000000
17.403193550000,-0.189000000000
17.410880253000,-0.187000000000
17.418566956000,-0.182000000000
17.426253659000,-0.175000000000
17.433940362000,-0.165000000000
17.441627065000,-0.155000000000
17.449313768000,-0.145000000000
17.457000471000,-0.136000000000
17.464687174000,-0.126000000000
17.472373877000,-0.121000000000
17.480060580000,-0.114000000000
17.487747283000,-0.107000000000
17.495433986000,-0.102000000000
17.503120689000,-0.094000000000
17.510807392000,-0.092000000000
17.518494095000,-0.090000000000
17.526180798000,-0.087000000000
17.533867501000,-0.087000000000
17.541554204000,-0.087000000000
17.549240907000,-0.087000000000
17.556927610000,-0.082000000000
17.564614313000,-0.082000000000
17.572301016000,-0.080000000000
17.579987719000,-0.075000000000
17.587674422000,-0.070000000000
17.595361125000,-0.070000000000
17.603047828000,-0.070000000000
17.610734531000,-0.065000000000
17.618421234000,-0.060000000000
17.626107937000,-0.060000000000
17.633794640000,-0.055000000000
17.641481343000,-0.051000000000
17.649168046000,-0.048000000000
17.656854749000,-0.046000000000
17.664541452000,-0.041000000000
17.672228155000,-0.038000000000
17.679914858000,-0.034000000000
17.687601561000,-0.031000000000
17.695288264000,-0.029000000000
17.702974967000,-0.026000000000
17.710661670000,-0.021000000000
17.718348373000,-0.017000000000
17.726035076000,-0.014000000000
17.733721779000,-0.012000000000
17.741408482000,-0.009000000000
17.749095185000,-0.007000000000
17.756781888000,-0.004000000000
17.764468591000,-0.002000000000
17.772155294000,0.002000000000
17.779841997000,0.004000000000
17.787528700000,0.002000000000
17.795215403000,-0.002000000000
17.802902106000,-0.004000000000
17.810588809000,-0.007000000000
17.818275512000,-0.004000000000
17.825962275000,0.012000000000
17.833649396000,0.036000000000
17.841336517000,0.051000000000
17.849023638000,0.055000000000
17.856710759000,0.063000000000
17.864397880000,0.053000000000
17.872085001000,0.029000000000
17.879772122000,0.024000000000
17.887459243000,0.029000000000
17.895146364000,0.029000000000
17.902833485000,0.034000000000
17.910520606000,0.043000000000
17.918207727000,0.036000000000
17.925894848000,0.002000000000
17.933581969000,-0.009000000000
17.941269090000,0.240000000000
17.948956211000,0.919000000000
17.956643332000,1.452000000000
17.964330453000,1.021000000000
17.972017574000,-0.075000000000
17.979704695000,-0.603000000000
17.987391816000,-0.309000000000
17.995078937000,-0.107000000000
18.002766058000,-0.143000000000
18.010453179000,-0.034000000000
18.018140300000,0.055000000000
18.025827421000,0.019000000000
18.033514542000,0.024000000000
18.041201663000,0.058000000000
18.048888784000,0.060000000000
18.056575905000,0.063000000000
18.064263026000,0.082000000000
18.071950147000,0.090000000000
18.079637268000,0.092000000000
18.087324389000,0.099000000000
18.095011510000,0.107000000000
18.102698631000,0.111000000000
18.110385752000,0.121000000000
18.118072873000,0.133000000000
18.125759994000,0.148000000000
18.133447115000,0.158000000000
18.141134236000,0.167000000000
18.148821357000,0.184000000000
18.156508478000,0.206000000000
18.164195599000,0.223000000000
18.171882720000,0.240000000000
18.179569841000,0.260000000000
18.187256962000,0.274000000000
18.194944083000,0.291000000000
18.202631204000,0.311000000000
18.210318325000,0.321000000000
18.218005446000,0.316000000000
18.225692567000,0.318000000000
18.233379688000,0.316000000000
18.241066809000,0.294000000000
18.248753930000,0.257000000000
18.256441051000,0.211000000000
18.264128172000,0.158000000000
18.271815293000,0.097000000000
18.279502414000,0.041000000000
18.287189535000,-0.002000000000
18.294876656000,-0.029000000000
18.302563777000,-0.046000000000
18.310250898000,-0.053000000000
18.317938019000,-0.060000000000
18.325625140000,-0.060000000000
18.333312261000,-0.048000000000
18.340999382000,-0.038000000000
18.348686503000,-0.041000000000
18.356373624000,-0.038000000000
18.364060745000,-0.029000000000
18.371747866000,-0.026000000000
18.379434987000,-0.021000000000
18.387122176000,-0.017000000000
18.394808879000,-0.019000000000
18.402495582000,-0.019000000000
18.410182285000,-0.014000000000
18.417868988000,-0.014000000000
18.425555691000,-0.021000000000
18.433242394000,-0.029000000000
18.440929097000,-0.026000000000
18.448615800000,-0.026000000000
18.456302503000,-0.029000000000
18.463989206000,-0.029000000000
18.471675909000,-0.034000000000
18.479362612000,-0.036000000000
18.487049315000,-0.031000000000
18.494736018000,-0.029000000000
18.502422721000,-0.029000000000
18.510109424000,-0.029000000000
18.517796127000,-0.029000000000
18.525482830000,-0.029000000000
18.533169533000,-0.029000000000
18.540856236000,-0.024000000000
18.548542939000,-0.019000000000
18.556229642000,-0.024000000000
18.563916345000,-0.026000000000
18.571603048000,-0.021000000000
18.579289751000,-0.017000000000
18.586976454000,-0.019000000000
18.594663157000,-0.014000000000
18.602349860000,-0.009000000000
18.610036563000,-0.012000000000
18.617723266000,-0.014000000000
18.625409969000,-0.019000000000
18.633096672000,-0.024000000000
18.640783375000,-0.021000000000
18.648470078000,-0.019000000000
18.656156781000,-0.007000000000
18.663843484000,0.012000000000
18.671530187000,0.024000000000
18.679216890000,0.026000000000
18.686903593000,0.021000000000
18.694590296000,0.004000000000
18.702276999000,-0.014000000000
18.709963702000,-0.014000000000
18.717650405000,-0.014000000000
18.725337108000,-0.017000000000
18.733023811000,-0.012000000000
18.740710514000,-0.007000000000
18.748397217000,-0.017000000000
18.756083920000,-0.041000000000
18.763770623000,0.024000000000
18.771457326000,0.455000000000
18.779144029000,1.150000000000
18.786830732000,1.257000000000
18.794517435000,0.306000000000
18.802204138000,-0.676000000000
18.809890841000,-0.669000000000
18.817577544000,-0.299000000000
18.825264247000,-0.262000000000
18.832950950000,-0.197000000000
18.840637653000,-0.019000000000
18.848324356000,0.002000000000
18.856011059000,-0.029000000000
18.863697762000,0.009000000000
18.871384465000,0.029000000000
18.879071168000,0.021000000000
18.886757871000,0.031000000000
18.894444574000,0.043000000000
18.902131277000,0.043000000000
18.909817980000,0.046000000000
18.917504683000,0.053000000000
18.925191386000,0.058000000000
18.932878089000,0.065000000000
18.940564792000,0.072000000000
18.948251555000,0.082000000000
18.955938676000,0.097000000000
18.963625797000,0.109000000000
18.971312918000,0.124000000000
18.979000039000,0.138000000000
18.986687160000,0.153000000000
18.994374281000,0.172000000000
19.002061402000,0.194000000000
19.009748523000,0.214000000000
19.017435644000,0.233000000000
19.025122765000,0.253000000000
19.032809886000,0.260000000000
19.040497007000,0.260000000000
19.048184128000,0.260000000000
19.055871249000,0.255000000000
19.063558370000,0.236000000000
19.071245491000,0.201000000000
19.078932612000,0.153000000000
19.086619733000,0.087000000000
19.094306854000,0.021000000000
19.101993975000,-0.038000000000
19.109681096000,-0.097000000000
19.117368217000,-0.138000000000
19.125055338000,-0.160000000000
19.132742459000,-0.170000000000
19.140429580000,-0.175000000000
19.148116701000,-0.172000000000
19.155803822000,-0.170000000000
19.163490943000,-0.160000000000
19.171178064000,-0.148000000000
19.178865185000,-0.138000000000
19.186552306000,-0.128000000000
19.194239427000,-0.121000000000
19.201926548000,-0.111000000000
19.209613669000,-0.104000000000
19.217300790000,-0.104000000000
19.224987911000,-0.102000000000
19.232675032000,-0.099000000000
19.240362153000,-0.104000000000
19.248049274000,-0.109000000000
19.255736395000,-0.111000000000
19.263423516000,-0.111000000000
19.271110637000,-0.114000000000
19.278797758000,-0.116000000000
19.286484879000,-0.116000000000
19.294172000000,-0.116000000000
19.301859121000,-0.119000000000
19.309546242000,-0.121000000000
19.317233363000,-0.119000000000
19.324920484000,-0.114000000000
19.332607605000,-0.116000000000
19.340294726000,-0.114000000000
19.347981847000,-0.109000000000
19.355668968000,-0.107000000000
19.363356089000,-0.107000000000
19.371043210000,-0.109000000000
19.378730331000,-0.109000000000
19.386417452000,-0.107000000000
19.394104573000,-0.102000000000
19.401791694000,-0.102000000000
19.409478815000,-0.104000000000
19.417165936000,-0.102000000000
19.424853057000,-0.099000000000
19.432540178000,-0.097000000000
19.440227299000,-0.097000000000
19.447914420000,-0.092000000000
19.455601541000,-0.092000000000
19.463288662000,-0.099000000000
19.470975783000,-0.109000000000
19.478662904000,-0.109000000000
19.486350025000,-0.104000000000
19.494037146000,-0.090000000000
19.501724267000,-0.070000000000
19.509411452000,-0.060000000000
19.517098155000,-0.055000000000
19.524784858000,-0.043000000000
19.532471561000,-0.055000000000
19.540158264000,-0.085000000000
19.547844967000,-0.090000000000
19.555531670000,-0.085000000000
19.563218373000,-0.090000000000
19.570905076000,-0.087000000000
19.578591779000,-0.085000000000
19.586278482000,-0.087000000000
19.593965185000,-0.114000000000
19.601651888000,-0.153000000000
19.609338591000,0.021000000000
19.617025294000,0.656000000000
19.624711997000,1.306000000000
19.632398700000,1.087000000000
19.640085403000,0.009000000000
19.647772106000,-0.710000000000
19.655458809000,-0.489000000000
19.663145512000,-0.221000000000
19.670832215000,-0.265000000000
19.678518918000,-0.192000000000
19.686205621000,-0.092000000000
19.693892324000,-0.124000000000
19.701579027000,-0.126000000000
19.709265730000,-0.082000000000
19.716952433000,-0.080000000000
19.724639136000,-0.087000000000
19.732325839000,-0.070000000000
19.740012542000,-0.060000000000
19.747699245000,-0.053000000000
19.755385948000,-0.046000000000
19.763072651000,-0.041000000000
19.770759354000,-0.038000000000
19.778446057000,-0.026000000000
19.786132760000,-0.014000000000
19.793819463000,0.000000000000
19.801506166000,0.009000000000
19.809192869000,0.019000000000
19.816879572000,0.034000000000
19.824566275000,0.053000000000
19.832252978000,0.065000000000
19.839939681000,0.082000000000
19.847626384000,0.109000000000
19.855313087000,0.133000000000
19.862999790000,0.148000000000
19.870686493000,0.165000000000
19.878373196000,0.170000000000
19.886059899000,0.167000000000
19.893746602000,0.167000000000
19.901433305000,0.167000000000
19.909120008000,0.150000000000
19.916806711000,0.114000000000
19.924493414000,0.065000000000
19.932180117000,0.009000000000
19.939866820000,-0.043000000000
19.947553523000,-0.090000000000
19.955240226000,-0.133000000000
19.962926929000,-0.163000000000
19.970613632000,-0.175000000000
19.978300335000,-0.177000000000
19.985987038000,-0.180000000000
19.993673741000,-0.177000000000
20.001360444000,-0.172000000000
20.009047147000,-0.170000000000
20.016733850000,-0.167000000000
20.024420553000,-0.163000000000
20.032107256000,-0.160000000000
20.039793959000,-0.153000000000
20.047480662000,-0.148000000000
20.055167365000,-0.148000000000
20.062854068000,-0.148000000000
20.070540831000,-0.143000000000
20.078227883000,-0.141000000000
20.085914935000,-0.141000000000
20.093601987000,-0.143000000000
20.101289039000,-0.143000000000
20.108976091000,-0.143000000000
20.116663143000,-0.143000000000
20.124350195000,-0.141000000000
20.132037247000,-0.143000000000
20.139724299000,-0.143000000000
20.147411351000,-0.141000000000
20.155098403000,-0.141000000000
20.162785455000,-0.141000000000
20.170472507000,-0.136000000000
20.178159559000,-0.133000000000
20.185846611000,-0.133000000000
20.193533663000,-0.131000000000
20.201220715000,-0.128000000000
20.208907767000,-0.131000000000
20.216594819000,-0.126000000000
20.224281871000,-0.121000000000
20.231968923000,-0.124000000000
20.239655975000,-0.121000000000
20.247343027000,-0.114000000000
20.255030079000,-0.114000000000
20.262717131000,-0.114000000000
20.270404183000,-0.109000000000
20.278091235000,-0.104000000000
20.285778287000,-0.102000000000
20.293465339000,-0.104000000000
20.301152391000,-0.102000000000
20.308839443000,-0.092000000000
20.316526495000,-0.092000000000
20.324213547000,-0.092000000000
20.331900599000,-0.094000000000
20.339587651000,-0.099000000000
20.347274703000,-0.107000000000
20.354961755000,-0.107000000000
20.362648807000,-0.104000000000
20.370335859000,-0.094000000000
20.378022911000,-0.080000000000
20.385709963000,-0.063000000000
20.393397015000,-0.053000000000
20.401084067000,-0.046000000000
20.408771119000,-0.046000000000
20.416458171000,-0.065000000000
20.424145223000,-0.082000000000
20.431832275000,-0.085000000000
20.439519327000,-0.087000000000
20.447206379000,-0.087000000000
20.454893431000,-0.082000000000
20.462580483000,-0.080000000000
20.470267535000,-0.094000000000
20.477954587000,-0.131000000000
20.485641639000,-0.099000000000
20.493328691000,0.291000000000
20.501015743000,1.017000000000
20.508702795000,1.304000000000
20.516389847000,0.579000000000
20.524076899000,-0.452000000000
20.531763951000,-0.669000000000
20.539451003000,-0.323000000000
20.547138055000,-0.238000000000
20.554825107000,-0.253000000000
20.562512159000,-0.121000000000
20.570199211000,-0.090000000000
20.577886263000,-0.126000000000
20.585573315000,-0.094000000000
20.593260367000,-0.068000000000
20.600947419000,-0.077000000000
20.608634471000,-0.068000000000
20.616321523000,-0.055000000000
20.624008575000,-0.053000000000
20.631695645000,-0.046000000000
20.639382418000,-0.038000000000
20.647069191000,-0.034000000000
20.654755964000,-0.024000000000
20.662442737000,-0.014000000000
20.670129510000,-0.002000000000
20.677816283000,0.009000000000
20.685503056000,0.021000000000
20.693189829000,0.034000000000
20.700876602000,0.048000000000
20.708563375000,0.065000000000
20.716250148000,0.082000000000
20.723936921000,0.099000000000
20.731623694000,0.119000000000
20.739310467000,0.138000000000
20.746997240000,0.155000000000
20.754684013000,0.167000000000
20.762370786000,0.172000000000
20.770057559000,0.172000000000
20.777744332000,0.172000000000
20.785431105000,0.165000000000
20.793117878000,0.145000000000
20.800804651000,0.107000000000
20.808491424000,0.058000000000
20.816178197000,0.002000000000
20.823864970000,-0.048000000000
20.831551743000,-0.097000000000
20.839238516000,-0.133000000000
20.846925289000,-0.155000000000
20.854612062000,-0.167000000000
20.862298835000,-0.172000000000
20.869985608000,-0.175000000000
20.877672381000,-0.175000000000
20.885359154000,-0.165000000000
20.893045927000,-0.160000000000
20.900732700000,-0.158000000000
20.908419473000,-0.153000000000
20.916106246000,-0.143000000000
20.923793019000,-0.138000000000
20.931479792000,-0.136000000000
20.939166565000,-0.133000000000
20.946853338000,-0.131000000000
20.954540111000,-0.131000000000
20.962226884000,-0.131000000000
20.969913657000,-0.128000000000
20.977600430000,-0.128000000000
20.985287203000,-0.133000000000
20.992973976000,-0.133000000000
21.000660749000,-0.131000000000
21.008347522000,-0.131000000000
21.016034295000,-0.131000000000
21.023721068000,-0.133000000000
21.031407841000,-0.133000000000
21.039094614000,-0.128000000000
21.046781387000,-0.128000000000
21.054468160000,-0.128000000000
21.062154933000,-0.124000000000
21.069841706000,-0.119000000000
21.077528479000,-0.119000000000
21.085215252000,-0.119000000000
21.092902025000,-0.119000000000
21.100588798000,-0.116000000000
21.108275571000,-0.114000000000
21.115962344000,-0.107000000000
21.123649117000,-0.109000000000
21.131335890000,-0.109000000000
21.139022663000,-0.104000000000
21.146709436000,-0.104000000000
21.154396209000,-0.102000000000
21.162082982000,-0.097000000000
21.169769755000,-0.092000000000
21.177456528000,-0.094000000000
21.185143301000,-0.092000000000
21.192830107000,-0.090000000000
21.200517228000,-0.090000000000
21.208204349000,-0.092000000000
21.215891470000,-0.090000000000
21.223578591000,-0.090000000000
21.231265712000,-0.094000000000
21.238952833000,-0.099000000000
21.246639954000,-0.097000000000
21.254327075000,-0.090000000000
21.262014196000,-0.070000000000
21.269701317000,-0.051000000000
21.277388438000,-0.048000000000
21.285075559000,-0.043000000000
21.292762680000,-0.041000000000
21.300449801000,-0.063000000000
21.308136922000,-0.082000000000
21.315824043000,-0.077000000000
21.323511164000,-0.077000000000
21.331198285000,-0.080000000000
21.338885406000,-0.075000000000
21.346572527000,-0.070000000000
21.354259648000,-0.085000000000
21.361946769000,-0.124000000000
21.369633890000,-0.075000000000
21.377321011000,0.340000000000
21.385008132000,1.063000000000
21.392695253000,1.279000000000
21.400382374000,0.462000000000
21.408069495000,-0.554000000000
21.415756616000,-0.686000000000
21.423443737000,-0.323000000000
21.431130858000,-0.255000000000
21.438817979000,-0.245000000000
21.446505100000,-0.102000000000
21.454192221000,-0.075000000000
21.461879342000,-0.109000000000
21.469566463000,-0.068000000000
21.477253584000,-0.041000000000
21.484940705000,-0.048000000000
21.492627826000,-0.041000000000
21.500314947000,-0.026000000000
21.508002068000,-0.029000000000
21.515689189000,-0.024000000000
21.523376310000,-0.014000000000
21.531063431000,-0.007000000000
21.538750552000,0.002000000000
21.546437673000,0.014000000000
21.554124794000,0.024000000000
21.561811915000,0.038000000000
21.569499036000,0.053000000000
21.577186157000,0.063000000000
21.584873278000,0.077000000000
21.592560399000,0.097000000000
21.600247520000,0.109000000000
21.607934641000,0.128000000000
21.615621762000,0.148000000000
21.623308883000,0.158000000000
21.630996004000,0.170000000000
21.638683125000,0.184000000000
21.646370246000,0.184000000000
21.654057367000,0.182000000000
21.661744488000,0.182000000000
21.669431609000,0.177000000000
21.677118730000,0.153000000000
21.684805851000,0.109000000000
21.692492972000,0.058000000000
21.700180093000,0.004000000000
21.707867214000,-0.055000000000
21.715554335000,-0.107000000000
21.723241456000,-0.141000000000
21.730928577000,-0.165000000000
21.738615698000,-0.182000000000
21.746302819000,-0.187000000000
21.753990008000,-0.182000000000
21.761676851000,-0.172000000000
21.769363694000,-0.167000000000
21.777050537000,-0.167000000000
21.784737380000,-0.155000000000
21.792424223000,-0.141000000000
21.800111066000,-0.141000000000
21.807797909000,-0.141000000000
21.815484752000,-0.131000000000
21.823171595000,-0.136000000000
21.830858438000,-0.138000000000
21.838545281000,-0.126000000000
21.846232124000,-0.131000000000
21.853918967000,-0.143000000000
21.861605810000,-0.133000000000
21.869292653000,-0.126000000000
21.876979496000,-0.143000000000
21.884666339000,-0.145000000000
21.892353182000,-0.133000000000
21.900040025000,-0.141000000000
21.907726868000,-0.150000000000
21.915413711000,-0.143000000000
21.923100554000,-0.136000000000
21.930787397000,-0.133000000000
21.938474240000,-0.136000000000
21.946161083000,-0.136000000000
21.953847926000,-0.133000000000
21.961534769000,-0.131000000000
21.969221612000,-0.124000000000
21.976908455000,-0.124000000000
21.984595298000,-0.126000000000
21.992282141000,-0.119000000000
21.999968984000,-0.111000000000
22.007655827000,-0.116000000000
22.015342670000,-0.121000000000
22.023029513000,-0.116000000000
22.030716356000,-0.111000000000
22.038403199000,-0.119000000000
22.046090042000,-0.121000000000
22.053776885000,-0.114000000000
22.061463728000,-0.107000000000
22.069150571000,-0.094000000000
22.076837414000,-0.072000000000
22.084524257000,-0.063000000000
22.092211100000,-0.060000000000
22.099897943000,-0.060000000000
22.107584786000,-0.075000000000
22.115271629000,-0.092000000000
22.122958472000,-0.099000000000
22.130645315000,-0.102000000000
22.138332158000,-0.090000000000
22.146019001000,-0.082000000000
22.153705844000,-0.085000000000
22.161392687000,-0.092000000000
22.169079530000,-0.109000000000
22.176766373000,0.004000000000
22.184453216000,0.508000000000
22.192140059000,1.146000000000
22.199826902000,1.021000000000
22.207513745000,-0.048000000000
22.215200588000,-0.858000000000
22.222887431000,-0.669000000000
22.230574274000,-0.330000000000
22.238261117000,-0.330000000000
22.245947960000,-0.226000000000
22.253634803000,-0.048000000000
22.261321646000,-0.048000000000
22.269008489000,-0.068000000000
22.276695332000,-0.021000000000
22.284382175000,-0.012000000000
22.292069018000,-0.019000000000
22.299755861000,-0.007000000000
22.307442704000,0.004000000000
22.315129561000,0.004000000000
22.322816334000,0.012000000000
22.330503107000,0.024000000000
22.338189880000,0.031000000000
22.345876653000,0.041000000000
22.353563426000,0.051000000000
22.361250199000,0.063000000000
22.368936972000,0.075000000000
22.376623745000,0.087000000000
22.384310518000,0.099000000000
22.391997291000,0.116000000000
22.399684064000,0.136000000000
22.407370837000,0.155000000000
22.415057610000,0.180000000000
22.422744383000,0.199000000000
22.430431156000,0.216000000000
22.438117929000,0.231000000000
22.445804702000,0.238000000000
22.453491475000,0.238000000000
22.461178248000,0.236000000000
22.468865021000,0.226000000000
22.476551794000,0.206000000000
22.484238567000,0.170000000000
22.491925340000,0.114000000000
22.499612113000,0.046000000000
22.507298886000,-0.017000000000
22.514985659000,-0.075000000000
22.522672432000,-0.126000000000
22.530359205000,-0.160000000000
22.538045978000,-0.182000000000
22.545732751000,-0.189000000000
22.553419524000,-0.192000000000
22.561106297000,-0.187000000000
22.568793070000,-0.175000000000
22.576479843000,-0.165000000000
22.584166616000,-0.155000000000
22.591853389000,-0.145000000000
22.599540162000,-0.133000000000
22.607226935000,-0.121000000000
22.614913708000,-0.114000000000
22.622600481000,-0.111000000000
22.630287254000,-0.107000000000
22.637974027000,-0.102000000000
22.645660800000,-0.104000000000
22.653347573000,-0.107000000000
22.661034346000,-0.109000000000
22.668721119000,-0.111000000000
22.676407892000,-0.114000000000
22.684094665000,-0.119000000000
22.691781438000,-0.121000000000
22.699468211000,-0.119000000000
22.707154984000,-0.119000000000
22.714841757000,-0.119000000000
22.722528530000,-0.114000000000
22.730215303000,-0.114000000000
22.737902076000,-0.116000000000
22.745588849000,-0.114000000000
22.753275622000,-0.111000000000
22.760962395000,-0.111000000000
22.768649168000,-0.109000000000
22.776335941000,-0.104000000000
22.784022714000,-0.107000000000
22.791709487000,-0.107000000000
22.799396260000,-0.102000000000
22.807083033000,-0.097000000000
22.814769806000,-0.094000000000
22.822456579000,-0.097000000000
22.830143352000,-0.104000000000
22.837830125000,-0.111000000000
22.845516898000,-0.114000000000
22.853203671000,-0.109000000000
22.860890444000,-0.092000000000
22.868577217000,-0.072000000000
22.876264027000,-0.063000000000
22.883950939000,-0.051000000000
22.891637851000,-0.043000000000
22.899324763000,-0.060000000000
22.907011675000,-0.085000000000
22.914698587000,-0.087000000000
22.922385499000,-0.082000000000
22.930072411000,-0.085000000000
22.937759323000,-0.077000000000
22.945446235000,-0.075000000000
22.953133147000,-0.080000000000
22.960820059000,-0.116000000000
22.968506971000,-0.158000000000
22.976193883000,0.043000000000
22.983880795000,0.705000000000
22.991567707000,1.328000000000
22.999254619000,1.034000000000
23.006941531000,-0.072000000000
23.014628443000,-0.717000000000
23.022315355000,-0.442000000000
23.030002267000,-0.199000000000
23.037689179000,-0.250000000000
23.045376091000,-0.160000000000
23.053063003000,-0.068000000000
23.060749915000,-0.109000000000
23.068436827000,-0.104000000000
23.076123739000,-0.060000000000
23.083810651000,-0.063000000000
23.091497563000,-0.065000000000
23.099184475000,-0.046000000000
23.106871387000,-0.038000000000
23.114558299000,-0.041000000000
23.122245211000,-0.031000000000
23.129932123000,-0.024000000000
23.137619035000,-0.021000000000
23.145305947000,-0.009000000000
23.152992859000,0.007000000000
23.160679771000,0.014000000000
23.168366683000,0.019000000000
23.176053595000,0.031000000000
23.183740507000,0.046000000000
23.191427419000,0.060000000000
23.199114331000,0.075000000000
23.206801243000,0.094000000000
23.214488155000,0.114000000000
23.222175067000,0.136000000000
23.229861979000,0.155000000000
23.237548891000,0.165000000000
23.245235803000,0.170000000000
23.252922715000,0.175000000000
23.260609627000,0.175000000000
23.268296539000,0.165000000000
23.275983451000,0.150000000000
23.283670363000,0.116000000000
23.291357275000,0.065000000000
23.299044187000,0.012000000000
23.306731099000,-0.036000000000
23.314418011000,-0.082000000000
23.322104923000,-0.119000000000
23.329791835000,-0.143000000000
23.337478747000,-0.158000000000
23.345165659000,-0.160000000000
23.352852571000,-0.160000000000
23.360539483000,-0.163000000000
23.368226395000,-0.160000000000
23.375913307000,-0.153000000000
23.383600219000,-0.148000000000
23.391287131000,-0.143000000000
23.398974043000,-0.138000000000
23.406660955000,-0.133000000000
23.414347867000,-0.131000000000
23.422034779000,-0.131000000000
23.429721691000,-0.126000000000
23.437408663000,-0.126000000000
23.445095715000,-0.128000000000
23.452782767000,-0.126000000000
23.460469819000,-0.126000000000
23.468156871000,-0.126000000000
23.475843923000,-0.124000000000
23.483530975000,-0.124000000000
23.491218027000,-0.126000000000
23.498905079000,-0.126000000000
23.506592131000,-0.124000000000
23.514279183000,-0.121000000000
23.521966235000,-0.121000000000
23.529653287000,-0.116000000000
23.537340339000,-0.116000000000
23.545027391000,-0.116000000000
23.552714443000,-0.114000000000
23.560401495000,-0.111000000000
23.568088547000,-0.109000000000
23.575775599000,-0.104000000000
23.583462651000,-0.102000000000
23.591149703000,-0.102000000000
23.598836755000,-0.099000000000
23.606523807000,-0.097000000000
23.614210859000,-0.097000000000
23.621897911000,-0.092000000000
23.629584963000,-0.092000000000
23.637272015000,-0.097000000000
23.644959067000,-0.104000000000
23.652646119000,-0.107000000000
23.660333171000,-0.102000000000
23.668020223000,-0.094000000000
23.675707275000,-0.080000000000
23.683394327000,-0.060000000000
23.691081379000,-0.048000000000
23.698768431000,-0.043000000000
23.706455483000,-0.041000000000
23.714142535000,-0.060000000000
23.721829587000,-0.080000000000
23.729516639000,-0.077000000000
23.737203691000,-0.075000000000
23.744890743000,-0.080000000000
23.752577795000,-0.080000000000
23.760264847000,-0.072000000000
23.767951899000,-0.077000000000
23.775638951000,-0.111000000000
23.783326003000,-0.138000000000
23.791013055000,0.107000000000
23.798700107000,0.790000000000
23.806387159000,1.345000000000
23.814074211000,0.946000000000
23.821761263000,-0.155000000000
23.829448315000,-0.705000000000
23.837135367000,-0.406000000000
23.844822419000,-0.206000000000
23.852509471000,-0.255000000000
23.860196523000,-0.148000000000
23.867883575000,-0.070000000000
23.875570627000,-0.114000000000
23.883257679000,-0.102000000000
23.890944731000,-0.060000000000
23.898631783000,-0.065000000000
23.906318835000,-0.060000000000
23.914005887000,-0.043000000000
23.921692939000,-0.041000000000
23.929379991000,-0.036000000000
23.937067043000,-0.024000000000
23.944754095000,-0.017000000000
23.952441147000,-0.012000000000
23.960128199000,-0.002000000000
23.967815251000,0.007000000000
23.975502303000,0.017000000000
23.983189355000,0.029000000000
23.990876407000,0.041000000000
23.998563477000,0.053000000000
24.006250250000,0.070000000000
24.013937023000,0.090000000000
24.021623796000,0.107000000000
24.029310569000,0.124000000000
24.036997342000,0.138000000000
24.044684115000,0.153000000000
24.052370888000,0.165000000000
24.060057661000,0.170000000000
24.067744434000,0.172000000000
24.075431207000,0.175000000000
24.083117980000,0.170000000000
24.090804753000,0.150000000000
24.098491526000,0.119000000000
24.106178299000,0.070000000000
24.113865072000,0.017000000000
24.121551845000,-0.034000000000
24.129238618000,-0.080000000000
24.136925391000,-0.114000000000
24.144612164000,-0.136000000000
24.152298937000,-0.150000000000
24.159985710000,-0.153000000000
24.167672483000,-0.150000000000
24.175359256000,-0.150000000000
24.183046029000,-0.148000000000
24.190732802000,-0.143000000000
24.198419575000,-0.138000000000
24.206106348000,-0.136000000000
24.213793121000,-0.131000000000
24.221479894000,-0.126000000000
24.229166667000,-0.124000000000
24.236853440000,-0.124000000000
24.244540213000,-0.124000000000
24.252226986000,-0.121000000000
24.259913759000,-0.119000000000
24.267600532000,-0.119000000000
24.275287305000,-0.119000000000
24.282974078000,-0.119000000000
24.290660851000,-0.119000000000
24.298347624000,-0.119000000000
24.306034397000,-0.119000000000
24.313721170000,-0.121000000000
24.321407943000,-0.119000000000
24.329094716000,-0.116000000000
24.336781489000,-0.116000000000
24.344468262000,-0.116000000000
24.352155035000,-0.109000000000
24.359841808000,-0.107000000000
24.367528581000,-0.109000000000
24.375215354000,-0.107000000000
24.382902127000,-0.102000000000
24.390588900000,-0.102000000000
24.398275673000,-0.102000000000
24.405962446000,-0.099000000000
24.413649219000,-0.097000000000
24.421335992000,-0.094000000000
24.429022765000,-0.092000000000
24.436709538000,-0.087000000000
24.444396311000,-0.082000000000
24.452083084000,-0.080000000000
24.459769857000,-0.082000000000
24.467456630000,-0.080000000000
24.475143403000,-0.075000000000
24.482830176000,-0.075000000000
24.490516949000,-0.075000000000
24.498203722000,-0.072000000000
24.505890495000,-0.070000000000
24.513577268000,-0.065000000000
24.521264041000,-0.065000000000
24.528950814000,-0.063000000000
24.536637587000,-0.063000000000
24.544324360000,-0.063000000000
24.552011133000,-0.060000000000
24.559697939000,-0.058000000000
24.567385060000,-0.058000000000
24.575072181000,-0.055000000000
24.582759302000,-0.055000000000
24.590446423000,-0.058000000000
24.598133544000,-0.058000000000
24.605820665000,-0.063000000000
24.613507786000,-0.068000000000
24.621194907000,-0.070000000000
24.628882028000,-0.068000000000
24.636569149000,-0.055000000000
24.644256270000,-0.036000000000
24.651943391000,-0.024000000000
24.659630512000,-0.012000000000
24.667317633000,-0.007000000000
24.675004754000,-0.029000000000
24.682691875000,-0.048000000000
24.690378996000,-0.048000000000
24.698066117000,-0.048000000000
24.705753238000,-0.051000000000
24.713440359000,-0.046000000000
24.721127480000,-0.046000000000
24.728814601000,-0.051000000000
24.736501722000,-0.085000000000
24.744188843000,-0.116000000000
24.751875964000,0.119000000000
24.759563085000,0.798000000000
24.767250206000,1.352000000000
24.774937327000,0.978000000000
24.782624448000,-0.094000000000
24.790311569000,-0.652000000000
24.797998690000,-0.374000000000
24.805685811000,-0.180000000000
24.813372932000,-0.233000000000
24.821060053000,-0.136000000000
24.828747174000,-0.053000000000
24.836434295000,-0.094000000000
24.844121416000,-0.085000000000
24.851808537000,-0.043000000000
24.859495658000,-0.046000000000
24.867182779000,-0.048000000000
24.874869900000,-0.031000000000
24.882557021000,-0.024000000000
24.890244142000,-0.021000000000
24.897931263000,-0.012000000000
24.905618384000,-0.002000000000
24.913305505000,0.002000000000
24.920992626000,0.012000000000
24.928679747000,0.021000000000
24.936366868000,0.029000000000
24.944053989000,0.038000000000
24.951741110000,0.046000000000
24.959428231000,0.058000000000
24.967115352000,0.072000000000
24.974802473000,0.087000000000
24.982489594000,0.099000000000
24.990176715000,0.114000000000
24.997863836000,0.126000000000
25.005550957000,0.141000000000
25.013238078000,0.150000000000
25.020925199000,0.155000000000
25.028612320000,0.155000000000
25.036299441000,0.160000000000
25.043986562000,0.163000000000
25.051673683000,0.158000000000
25.059360804000,0.141000000000
25.067047925000,0.111000000000
25.074735046000,0.072000000000
25.082422167000,0.029000000000
25.090109288000,-0.014000000000
25.097796409000,-0.048000000000
25.105483530000,-0.080000000000
25.113170651000,-0.102000000000
25.120857840000,-0.119000000000
25.128544683000,-0.124000000000
25.136231526000,-0.124000000000
25.143918369000,-0.121000000000
25.151605212000,-0.119000000000
25.159292055000,-0.114000000000
25.166978898000,-0.109000000000
25.174665741000,-0.107000000000
25.182352584000,-0.104000000000
25.190039427000,-0.104000000000
25.197726270000,-0.104000000000
25.205413113000,-0.104000000000
25.213099956000,-0.104000000000
25.220786799000,-0.104000000000
25.228473642000,-0.104000000000
25.236160485000,-0.104000000000
25.243847328000,-0.104000000000
25.251534171000,-0.107000000000
25.259221014000,-0.107000000000
25.266907857000,-0.107000000000
25.274594700000,-0.104000000000
25.282281543000,-0.104000000000
25.289968386000,-0.104000000000
25.297655229000,-0.104000000000
25.305342072000,-0.102000000000
25.313028915000,-0.102000000000
25.320715758000,-0.099000000000
25.328402601000,-0.097000000000
25.336089444000,-0.094000000000
25.343776287000,-0.092000000000
25.351463130000,-0.090000000000
25.359149973000,-0.087000000000
25.366836816000,-0.082000000000
25.374523659000,-0.080000000000
25.382210502000,-0.080000000000
25.389897345000,-0.080000000000
25.397584188000,-0.077000000000
25.405271031000,-0.077000000000
25.412957874000,-0.075000000000
25.420644717000,-0.070000000000
25.428331560000,-0.068000000000
25.436018403000,-0.068000000000
25.443705246000,-0.065000000000
25.451392089000,-0.063000000000
25.459078932000,-0.063000000000
25.466765775000,-0.063000000000
25.474452618000,-0.063000000000
25.482139461000,-0.058000000000
25.489826304000,-0.055000000000
25.497513147000,-0.053000000000
25.505199990000,-0.053000000000
25.512886833000,-0.051000000000
25.520573676000,-0.053000000000
25.528260519000,-0.051000000000
25.535947362000,-0.046000000000
25.543634205000,-0.048000000000
25.551321048000,-0.048000000000
25.559007891000,-0.046000000000
25.566694734000,-0.048000000000
25.574381577000,-0.046000000000
25.582068420000,-0.043000000000
25.589755263000,-0.046000000000
25.597442106000,-0.051000000000
25.605128949000,-0.055000000000
25.612815792000,-0.063000000000
25.620502635000,-0.065000000000
25.628189478000,-0.053000000000
25.635876321000,-0.036000000000
25.643563164000,-0.019000000000
25.651250007000,-0.012000000000
25.658936850000,-0.002000000000
25.666623693000,-0.004000000000
25.674310536000,-0.031000000000
25.681997393000,-0.048000000000
25.689684375000,-0.046000000000
25.697371357000,-0.043000000000
25.705058339000,-0.046000000000
25.712745321000,-0.043000000000
25.720432303000,-0.043000000000
25.728119285000,-0.058000000000
25.735806267000,-0.102000000000
25.743493249000,-0.053000000000
25.751180231000,0.386000000000
25.758867213000,1.112000000000
25.766554195000,1.306000000000
25.774241177000,0.481000000000
25.781928159000,-0.510000000000
25.789615141000,-0.605000000000
25.797302123000,-0.260000000000
25.804989105000,-0.226000000000
25.812676087000,-0.216000000000
25.820363069000,-0.077000000000
25.828050051000,-0.063000000000
25.835737033000,-0.094000000000
25.843424015000,-0.058000000000
25.851110997000,-0.036000000000
25.858797979000,-0.046000000000
25.866484961000,-0.034000000000
25.874171943000,-0.017000000000
25.881858925000,-0.017000000000
25.889545907000,-0.009000000000
25.897232889000,0.000000000000
25.904919871000,0.000000000000
25.912606853000,0.007000000000
25.920293835000,0.019000000000
25.927980817000,0.029000000000
25.935667799000,0.038000000000
25.943354781000,0.048000000000
25.951041763000,0.055000000000
25.958728745000,0.068000000000
25.966415727000,0.080000000000
25.974102709000,0.092000000000
25.981789691000,0.104000000000
25.989476673000,0.119000000000
25.997163655000,0.131000000000
26.004850637000,0.141000000000
26.012537619000,0.143000000000
26.020224601000,0.143000000000
26.027911583000,0.143000000000
26.035598565000,0.141000000000
26.043285547000,0.138000000000
26.050972529000,0.131000000000
26.058659511000,0.109000000000
26.066346493000,0.072000000000
26.074033475000,0.031000000000
26.081720457000,-0.014000000000
26.089407439000,-0.055000000000
26.097094421000,-0.090000000000
26.104781403000,-0.116000000000
26.112468385000,-0.131000000000
26.120155367000,-0.141000000000
26.127842349000,-0.143000000000
26.135529331000,-0.141000000000
26.143216313000,-0.138000000000
26.150903295000,-0.133000000000
26.158590277000,-0.128000000000
26.166277259000,-0.121000000000
26.173964241000,-0.119000000000
26.181651223000,-0.116000000000
26.189338205000,-0.114000000000
26.197025187000,-0.114000000000
26.204712169000,-0.111000000000
26.212399151000,-0.111000000000
26.220086133000,-0.116000000000
26.227773115000,-0.119000000000
26.235460097000,-0.119000000000
26.243147116000,-0.119000000000
26.250834098000,-0.119000000000
26.258521080000,-0.119000000000
26.266208062000,-0.121000000000
26.273895044000,-0.124000000000
26.281582026000,-0.121000000000
26.289269008000,-0.119000000000
26.296955990000,-0.119000000000
26.304642972000,-0.119000000000
26.312329954000,-0.116000000000
26.320016936000,-0.114000000000
26.327703918000,-0.114000000000
26.335390900000,-0.114000000000
26.343077882000,-0.111000000000
26.350764864000,-0.109000000000
26.358451846000,-0.107000000000
26.366138828000,-0.102000000000
26.373825810000,-0.099000000000
26.381512792000,-0.099000000000
26.389199774000,-0.099000000000
26.396886756000,-0.094000000000
26.404573738000,-0.092000000000
26.412260720000,-0.090000000000
26.419947702000,-0.087000000000
26.427634684000,-0.085000000000
26.435321666000,-0.082000000000
26.443008648000,-0.080000000000
26.450695630000,-0.077000000000
26.458382612000,-0.077000000000
26.466069594000,-0.077000000000
26.473756576000,-0.075000000000
26.481443558000,-0.072000000000
26.489130540000,-0.072000000000
26.496817522000,-0.072000000000
26.504504504000,-0.070000000000
26.512191486000,-0.068000000000
26.519878468000,-0.065000000000
26.527565450000,-0.065000000000
26.535252432000,-0.065000000000
26.542939414000,-0.070000000000
26.550626396000,-0.072000000000
26.558313378000,-0.075000000000
26.566000360000,-0.077000000000
26.573687342000,-0.070000000000
26.581374324000,-0.055000000000
26.589061306000,-0.038000000000
26.596748288000,-0.026000000000
26.604435270000,-0.019000000000
26.612122252000,-0.019000000000
26.619809234000,-0.038000000000
26.627496216000,-0.058000000000
26.635183198000,-0.055000000000
26.642870180000,-0.053000000000
26.650557162000,-0.058000000000
26.658244144000,-0.055000000000
26.665931126000,-0.053000000000
26.673618108000,-0.060000000000
26.681305090000,-0.099000000000
26.688992072000,-0.097000000000
26.696679054000,0.228000000000
26.704366036000,0.939000000000
26.712053018000,1.330000000000
26.719740000000,0.703000000000
26.727426982000,-0.382000000000
26.735113964000,-0.695000000000
26.742800946000,-0.338000000000
26.750487928000,-0.209000000000
26.758174910000,-0.231000000000
26.765861892000,-0.102000000000
26.773548874000,-0.051000000000
26.781235856000,-0.090000000000
26.788922838000,-0.068000000000
26.796609820000,-0.036000000000
26.804296843000,-0.041000000000
26.811983686000,-0.036000000000
26.819670529000,-0.019000000000
26.827357372000,-0.017000000000
26.835044215000,-0.012000000000
26.842731058000,-0.002000000000
26.850417901000,0.002000000000
26.858104744000,0.007000000000
26.865791587000,0.019000000000
26.873478430000,0.029000000000
26.881165273000,0.036000000000
26.888852116000,0.046000000000
26.896538959000,0.055000000000
26.904225802000,0.070000000000
26.911912645000,0.082000000000
26.919599488000,0.094000000000
26.927286331000,0.109000000000
26.934973174000,0.121000000000
26.942660017000,0.136000000000
26.950346860000,0.148000000000
26.958033703000,0.155000000000
26.965720546000,0.160000000000
26.973407389000,0.158000000000
26.981094232000,0.158000000000
26.988781075000,0.155000000000
26.996467918000,0.143000000000
27.004154761000,0.121000000000
27.011841604000,0.085000000000
27.019528447000,0.041000000000
27.027215290000,-0.004000000000
27.034902133000,-0.048000000000
27.042588976000,-0.085000000000
27.050275819000,-0.109000000000
27.057962662000,-0.124000000000
27.065649505000,-0.133000000000
27.073336348000,-0.133000000000
27.081023191000,-0.131000000000
27.088710034000,-0.128000000000
27.096396877000,-0.124000000000
27.104083720000,-0.116000000000
27.111770563000,-0.111000000000
27.119457406000,-0.109000000000
27.127144249000,-0.107000000000
27.134831092000,-0.102000000000
27.142517935000,-0.099000000000
27.150204778000,-0.099000000000
27.157891621000,-0.102000000000
27.165578464000,-0.104000000000
27.173265307000,-0.104000000000
27.180952150000,-0.107000000000
27.188638993000,-0.107000000000
27.196325836000,-0.109000000000
27.204012679000,-0.109000000000
27.211699522000,-0.109000000000
27.219386365000,-0.109000000000
27.227073208000,-0.109000000000
27.234760051000,-0.109000000000
27.242446894000,-0.109000000000
27.250133737000,-0.107000000000
27.257820580000,-0.104000000000
27.265507423000,-0.102000000000
27.273194266000,-0.102000000000
27.280881109000,-0.099000000000
27.288567952000,-0.097000000000
27.296254795000,-0.094000000000
27.303941638000,-0.092000000000
27.311628481000,-0.090000000000
27.319315324000,-0.087000000000
27.327002167000,-0.087000000000
27.334689010000,-0.085000000000
27.342375853000,-0.082000000000
27.350062696000,-0.082000000000
27.357749539000,-0.080000000000
27.365436392000,-0.075000000000
27.373123513000,-0.072000000000
27.380810634000,-0.070000000000
27.388497755000,-0.070000000000
27.396184876000,-0.070000000000
27.403871997000,-0.070000000000
27.411559118000,-0.065000000000
27.419246239000,-0.063000000000
27.426933360000,-0.060000000000
27.434620481000,-0.060000000000
27.442307602000,-0.060000000000
27.449994723000,-0.058000000000
27.457681844000,-0.055000000000
27.465368965000,-0.055000000000
27.473056086000,-0.053000000000
27.480743207000,-0.053000000000
27.488430328000,-0.053000000000
27.496117449000,-0.051000000000
27.503804570000,-0.053000000000
27.511491691000,-0.053000000000
27.519178812000,-0.051000000000
27.526865933000,-0.051000000000
27.534553054000,-0.051000000000
27.542240175000,-0.048000000000
27.549927296000,-0.048000000000
27.557614417000,-0.046000000000
27.565301538000,-0.048000000000
27.572988659000,-0.055000000000
27.580675780000,-0.063000000000
27.588362901000,-0.060000000000
27.596050022000,-0.058000000000
27.603737143000,-0.048000000000
27.611424264000,-0.036000000000
27.619111385000,-0.021000000000
27.626798506000,-0.004000000000
27.634485627000,-0.002000000000
27.642172748000,-0.026000000000
27.649859869000,-0.043000000000
27.657546990000,-0.038000000000
27.665234111000,-0.038000000000
27.672921232000,-0.041000000000
27.680608353000,-0.036000000000
27.688295474000,-0.036000000000
27.695982595000,-0.048000000000
27.703669716000,-0.090000000000
27.711356837000,-0.082000000000
27.719043958000,0.260000000000
27.726731079000,0.970000000000
27.734418200000,1.343000000000
27.742105321000,0.712000000000
27.749792442000,-0.352000000000
27.757479563000,-0.656000000000
27.765166684000,-0.306000000000
27.772853805000,-0.192000000000
27.780540926000,-0.221000000000
27.788228047000,-0.094000000000
27.795915168000,-0.046000000000
27.803602289000,-0.087000000000
27.811289410000,-0.063000000000
27.818976531000,-0.031000000000
27.826663652000,-0.036000000000
27.834350773000,-0.031000000000
27.842037894000,-0.017000000000
27.849725015000,-0.014000000000
27.857412136000,-0.009000000000
27.865099257000,0.000000000000
27.872786378000,0.009000000000
27.880473499000,0.014000000000
27.888160620000,0.021000000000
27.895847741000,0.031000000000
27.903534862000,0.041000000000
27.911221983000,0.051000000000
27.918909104000,0.063000000000
27.926596293000,0.072000000000
27.934282996000,0.080000000000
27.941969699000,0.092000000000
27.949656402000,0.107000000000
27.957343105000,0.121000000000
27.965029808000,0.133000000000
27.972716511000,0.143000000000
27.980403214000,0.148000000000
27.988089917000,0.150000000000
27.995776620000,0.153000000000
28.003463323000,0.153000000000
28.011150026000,0.153000000000
28.018836729000,0.145000000000
28.026523432000,0.126000000000
28.034210135000,0.097000000000
28.041896838000,0.058000000000
28.049583541000,0.014000000000
28.057270244000,-0.026000000000
28.064956947000,-0.060000000000
28.072643650000,-0.087000000000
28.080330353000,-0.107000000000
28.088017056000,-0.116000000000
28.095703759000,-0.119000000000
28.103390462000,-0.116000000000
28.111077165000,-0.116000000000
28.118763868000,-0.111000000000
28.126450571000,-0.107000000000
28.134137274000,-0.102000000000
28.141823977000,-0.097000000000
28.149510680000,-0.094000000000
28.157197383000,-0.092000000000
28.164884086000,-0.092000000000
28.172570789000,-0.092000000000
28.180257492000,-0.090000000000
28.187944195000,-0.090000000000
28.195630898000,-0.092000000000
28.203317601000,-0.094000000000
28.211004304000,-0.094000000000
28.218691007000,-0.097000000000
28.226377710000,-0.099000000000
28.234064413000,-0.099000000000
28.241751116000,-0.099000000000
28.249437819000,-0.099000000000
28.257124522000,-0.099000000000
28.264811225000,-0.097000000000
28.272497928000,-0.097000000000
28.280184631000,-0.094000000000
28.287871334000,-0.094000000000
28.295558037000,-0.092000000000
28.303244740000,-0.090000000000
28.310931443000,-0.090000000000
28.318618146000,-0.087000000000
28.326304849000,-0.087000000000
28.333991552000,-0.085000000000
28.341678255000,-0.082000000000
28.349364958000,-0.082000000000
28.357051661000,-0.080000000000
28.364738364000,-0.077000000000
28.372425067000,-0.075000000000
28.380111770000,-0.072000000000
28.387798473000,-0.070000000000
28.395485176000,-0.070000000000
28.403171879000,-0.070000000000
28.410858582000,-0.065000000000
28.418545285000,-0.065000000000
28.426231988000,-0.063000000000
28.433918691000,-0.060000000000
28.441605394000,-0.058000000000
28.449292097000,-0.058000000000
28.456978800000,-0.058000000000
28.464665503000,-0.055000000000
28.472352206000,-0.055000000000
28.480038909000,-0.053000000000
28.487725672000,-0.051000000000
28.495412793000,-0.051000000000
28.503099914000,-0.051000000000
28.510787035000,-0.051000000000
28.518474156000,-0.048000000000
28.526161277000,-0.048000000000
28.533848398000,-0.046000000000
28.541535519000,-0.051000000000
28.549222640000,-0.058000000000
28.556909761000,-0.063000000000
28.564596882000,-0.063000000000
28.572284003000,-0.058000000000
28.579971124000,-0.048000000000
28.587658245000,-0.036000000000
28.595345366000,-0.021000000000
28.603032487000,-0.004000000000
28.610719608000,0.000000000000
28.618406729000,-0.024000000000
28.626093850000,-0.043000000000
28.633780971000,-0.041000000000
28.641468092000,-0.043000000000
28.649155213000,-0.043000000000
28.656842334000,-0.041000000000
28.664529455000,-0.038000000000
28.672216576000,-0.048000000000
28.679903697000,-0.085000000000
28.687590818000,-0.077000000000
28.695277939000,0.260000000000
28.702965060000,0.966000000000
28.710652181000,1.321000000000
28.718339302000,0.674000000000
28.726026423000,-0.379000000000
28.733713544000,-0.664000000000
28.741400665000,-0.313000000000
28.749087786000,-0.199000000000
28.756774907000,-0.218000000000
28.764462028000,-0.087000000000
28.772149149000,-0.041000000000
28.779836270000,-0.082000000000
28.787523391000,-0.055000000000
28.795210512000,-0.021000000000
28.802897633000,-0.031000000000
28.810584754000,-0.026000000000
28.818271875000,-0.012000000000
28.825958996000,-0.009000000000
28.833646117000,-0.004000000000
28.841333238000,0.007000000000
28.849020359000,0.014000000000
28.856707480000,0.019000000000
28.864394601000,0.029000000000
28.872081722000,0.038000000000
28.879768843000,0.046000000000
28.887455964000,0.058000000000
28.895143085000,0.068000000000
28.902830206000,0.077000000000
28.910517327000,0.090000000000
28.918204448000,0.102000000000
28.925891569000,0.116000000000
28.933578690000,0.133000000000
28.941265811000,0.145000000000
28.948952932000,0.155000000000
28.956640053000,0.163000000000
28.964327174000,0.165000000000
28.972014295000,0.165000000000
28.979701416000,0.163000000000
28.987388537000,0.158000000000
28.995075658000,0.148000000000
29.002762779000,0.126000000000
29.010449900000,0.087000000000
29.018137021000,0.043000000000
29.025824142000,-0.002000000000
29.033511263000,-0.046000000000
29.041198384000,-0.082000000000
29.048885569000,-0.109000000000
29.056572481000,-0.124000000000
29.064259393000,-0.133000000000
29.071946305000,-0.133000000000
29.079633217000,-0.131000000000
29.087320129000,-0.126000000000
29.095007041000,-0.121000000000
29.102693953000,-0.116000000000
29.110380865000,-0.111000000000
29.118067777000,-0.109000000000
29.125754689000,-0.104000000000
29.133441601000,-0.099000000000
29.141128513000,-0.097000000000
29.148815425000,-0.097000000000
29.156502337000,-0.097000000000
29.164189249000,-0.099000000000
29.171876161000,-0.102000000000
29.179563073000,-0.104000000000
29.187249985000,-0.104000000000
29.194936897000,-0.107000000000
29.202623809000,-0.107000000000
29.210310721000,-0.107000000000
29.217997633000,-0.107000000000
29.225684545000,-0.107000000000
29.233371457000,-0.104000000000
29.241058369000,-0.104000000000
29.248745281000,-0.104000000000
29.256432193000,-0.104000000000
29.264119105000,-0.102000000000
29.271806017000,-0.099000000000
29.279492929000,-0.097000000000
29.287179841000,-0.094000000000
29.294866753000,-0.094000000000
29.302553665000,-0.092000000000
29.310240577000,-0.090000000000
29.317927489000,-0.087000000000
29.325614401000,-0.085000000000
29.333301313000,-0.082000000000
29.340988225000,-0.082000000000
29.348675137000,-0.080000000000
29.356362049000,-0.077000000000
29.364048961000,-0.077000000000
