time,LSB
0.000000000000,0.259000000000
0.007685449000,0.256000000000
0.015370898000,0.246000000000
0.023056347000,0.229000000000
0.030741796000,0.205000000000
0.038427245000,0.170000000000
0.046112694000,0.111000000000
0.053798143000,0.027000000000
0.061483592000,-0.066000000000
0.069169041000,-0.163000000000
0.076854490000,-0.249000000000
0.084539939000,-0.318000000000
0.092225388000,-0.358000000000
0.099910837000,-0.377000000000
0.107596286000,-0.387000000000
0.115281735000,-0.387000000000
0.122967184000,-0.380000000000
0.130652633000,-0.370000000000
0.138338082000,-0.360000000000
0.146023531000,-0.343000000000
0.153708980000,-0.328000000000
0.161394429000,-0.316000000000
0.169079878000,-0.301000000000
0.176765327000,-0.288000000000
0.184450776000,-0.281000000000
0.192136225000,-0.276000000000
0.199821674000,-0.269000000000
0.207507123000,-0.264000000000
0.215192572000,-0.259000000000
0.222878021000,-0.259000000000
0.230563470000,-0.256000000000
0.238248919000,-0.254000000000
0.245934368000,-0.254000000000
0.253619817000,-0.261000000000
0.261305266000,-0.266000000000
0.268990715000,-0.261000000000
0.276676164000,-0.251000000000
0.284361613000,-0.239000000000
0.292047062000,-0.229000000000
0.299732511000,-0.219000000000
0.307417960000,-0.197000000000
0.315103409000,-0.187000000000
0.322788858000,-0.222000000000
0.330474307000,-0.256000000000
0.338159756000,-0.251000000000
0.345845253000,-0.239000000000
0.353531538000,-0.237000000000
0.361217823000,-0.234000000000
0.368904108000,-0.229000000000
0.376590393000,-0.227000000000
0.384276678000,-0.227000000000
0.391962963000,-0.237000000000
0.399649248000,-0.271000000000
0.407335533000,-0.298000000000
0.415021818000,-0.083000000000
0.422708103000,0.548000000000
0.430394388000,1.217000000000
0.438080673000,1.373000000000
0.445766958000,0.615000000000
0.453453243000,-0.563000000000
0.461139528000,-0.745000000000
0.468825813000,-0.167000000000
0.476512098000,-0.103000000000
0.484198383000,-0.279000000000
0.491884668000,-0.182000000000
0.499570953000,-0.123000000000
0.507257238000,-0.175000000000
0.514943523000,-0.143000000000
0.522629808000,-0.093000000000
0.530316093000,-0.088000000000
0.538002378000,-0.066000000000
0.545688663000,-0.027000000000
0.553374948000,-0.002000000000
0.561061233000,0.027000000000
0.568747518000,0.066000000000
0.576433803000,0.106000000000
0.584120088000,0.140000000000
0.591806373000,0.177000000000
0.599492658000,0.212000000000
0.607178943000,0.234000000000
0.614865228000,0.244000000000
0.622551513000,0.242000000000
0.630237798000,0.229000000000
0.637924083000,0.209000000000
0.645610368000,0.182000000000
0.653296653000,0.143000000000
0.660982938000,0.081000000000
0.668669223000,-0.004000000000
0.676355508000,-0.101000000000
0.684041793000,-0.200000000000
0.691728078000,-0.284000000000
0.699414363000,-0.345000000000
0.707100648000,-0.380000000000
0.714786933000,-0.397000000000
0.722473218000,-0.402000000000
0.730159503000,-0.400000000000
0.737845788000,-0.390000000000
0.745532073000,-0.377000000000
0.753218358000,-0.360000000000
0.760904643000,-0.345000000000
0.768590928000,-0.333000000000
0.776277213000,-0.321000000000
0.783963498000,-0.311000000000
0.791649783000,-0.301000000000
0.799336068000,-0.291000000000
0.807022353000,-0.284000000000
0.814708638000,-0.279000000000
0.822394923000,-0.276000000000
0.830081208000,-0.274000000000
0.837767493000,-0.269000000000
0.845453778000,-0.266000000000
0.853140063000,-0.266000000000
0.860826348000,-0.264000000000
0.868512633000,-0.264000000000
0.876198918000,-0.269000000000
0.883885203000,-0.276000000000
0.891571488000,-0.271000000000
0.899257773000,-0.254000000000
0.906944118000,-0.237000000000
0.914629707000,-0.229000000000
0.922315296000,-0.217000000000
0.930000885000,-0.192000000000
0.937686474000,-0.192000000000
0.945372063000,-0.229000000000
0.953057652000,-0.256000000000
0.960743241000,-0.244000000000
0.968428830000,-0.237000000000
0.976114419000,-0.237000000000
0.983800008000,-0.232000000000
0.991485597000,-0.224000000000
0.999171186000,-0.219000000000
1.006856775000,-0.224000000000
1.014542364000,-0.239000000000
1.022227953000,-0.279000000000
1.029913542000,-0.286000000000
1.037599131000,0.000000000000
1.045284720000,0.681000000000
1.052970309000,1.365000000000
1.060655898000,1.489000000000
1.068341487000,0.568000000000
1.076027076000,-0.684000000000
1.083712665000,-0.718000000000
1.091398254000,-0.111000000000
1.099083843000,-0.138000000000
1.106769432000,-0.298000000000
1.114455021000,-0.170000000000
1.122140610000,-0.135000000000
1.129826199000,-0.187000000000
1.137511788000,-0.140000000000
1.145197377000,-0.096000000000
1.152882966000,-0.096000000000
1.160568555000,-0.069000000000
1.168254144000,-0.024000000000
1.175939733000,0.000000000000
1.183625322000,0.032000000000
1.191310911000,0.074000000000
1.198996500000,0.113000000000
1.206682089000,0.150000000000
1.214367678000,0.192000000000
1.222053267000,0.224000000000
1.229738856000,0.249000000000
1.237424445000,0.259000000000
1.245110034000,0.256000000000
1.252795623000,0.244000000000
1.260481212000,0.227000000000
1.268166801000,0.202000000000
1.275852390000,0.160000000000
1.283537979000,0.091000000000
1.291223568000,-0.002000000000
1.298909157000,-0.103000000000
1.306594746000,-0.205000000000
1.314280335000,-0.291000000000
1.321965924000,-0.353000000000
1.329651513000,-0.390000000000
1.337337102000,-0.407000000000
1.345022691000,-0.412000000000
1.352708280000,-0.407000000000
1.360393869000,-0.397000000000
1.368079458000,-0.385000000000
1.375765047000,-0.370000000000
1.383450636000,-0.355000000000
1.391136225000,-0.340000000000
1.398821814000,-0.328000000000
1.406507403000,-0.313000000000
1.414192992000,-0.303000000000
1.421878581000,-0.293000000000
1.429564170000,-0.288000000000
1.437249759000,-0.284000000000
1.444935348000,-0.279000000000
1.452620937000,-0.276000000000
1.460306526000,-0.276000000000
1.467992117000,-0.274000000000
1.475677845000,-0.269000000000
1.483363573000,-0.264000000000
1.491049301000,-0.266000000000
1.498735029000,-0.274000000000
1.506420757000,-0.276000000000
1.514106485000,-0.269000000000
1.521792213000,-0.251000000000
1.529477941000,-0.237000000000
1.537163669000,-0.227000000000
1.544849397000,-0.207000000000
1.552535125000,-0.187000000000
1.560220853000,-0.197000000000
1.567906581000,-0.237000000000
1.575592309000,-0.256000000000
1.583278037000,-0.242000000000
1.590963765000,-0.232000000000
1.598649493000,-0.229000000000
1.606335221000,-0.222000000000
1.614020949000,-0.217000000000
1.621706677000,-0.212000000000
1.629392405000,-0.219000000000
1.637078133000,-0.239000000000
1.644763861000,-0.288000000000
1.652449589000,-0.264000000000
1.660135317000,0.113000000000
1.667821045000,0.844000000000
1.675506773000,1.504000000000
1.683192501000,1.481000000000
1.690878229000,0.358000000000
1.698563957000,-0.797000000000
1.706249685000,-0.602000000000
1.713935413000,-0.056000000000
1.721621141000,-0.187000000000
1.729306869000,-0.281000000000
1.736992597000,-0.135000000000
1.744678325000,-0.140000000000
1.752364053000,-0.182000000000
1.760049781000,-0.121000000000
1.767735509000,-0.086000000000
1.775421237000,-0.086000000000
1.783106965000,-0.051000000000
1.790792693000,-0.012000000000
1.798478421000,0.014000000000
1.806164149000,0.051000000000
1.813849877000,0.091000000000
1.821535605000,0.130000000000
1.829221333000,0.170000000000
1.836907061000,0.209000000000
1.844592789000,0.239000000000
1.852278517000,0.264000000000
1.859964245000,0.276000000000
1.867649973000,0.269000000000
1.875335701000,0.249000000000
1.883021429000,0.232000000000
1.890707157000,0.205000000000
1.898392885000,0.158000000000
1.906078613000,0.086000000000
1.913764341000,-0.007000000000
1.921450069000,-0.111000000000
1.929135797000,-0.209000000000
1.936821525000,-0.291000000000
1.944507253000,-0.345000000000
1.952192981000,-0.377000000000
1.959878709000,-0.387000000000
1.967564437000,-0.392000000000
1.975250165000,-0.392000000000
1.982935893000,-0.380000000000
1.990621621000,-0.363000000000
1.998307349000,-0.350000000000
2.005993077000,-0.338000000000
2.013678805000,-0.321000000000
2.021364533000,-0.311000000000
2.029050286000,-0.301000000000
2.036736153000,-0.286000000000
2.044422020000,-0.274000000000
2.052107887000,-0.266000000000
2.059793754000,-0.264000000000
2.067479621000,-0.259000000000
2.075165488000,-0.259000000000
2.082851355000,-0.256000000000
2.090537222000,-0.251000000000
2.098223089000,-0.249000000000
2.105908956000,-0.251000000000
2.113594823000,-0.251000000000
2.121280690000,-0.254000000000
2.128966557000,-0.259000000000
2.136652424000,-0.251000000000
2.144338291000,-0.229000000000
2.152024158000,-0.212000000000
2.159710025000,-0.209000000000
2.167395892000,-0.192000000000
2.175081759000,-0.167000000000
2.182767626000,-0.175000000000
2.190453493000,-0.219000000000
2.198139360000,-0.239000000000
2.205825227000,-0.219000000000
2.213511094000,-0.212000000000
2.221196961000,-0.214000000000
2.228882828000,-0.205000000000
2.236568695000,-0.197000000000
2.244254562000,-0.195000000000
2.251940429000,-0.200000000000
2.259626296000,-0.222000000000
2.267312163000,-0.269000000000
2.274998030000,-0.222000000000
2.282683897000,0.190000000000
2.290369764000,0.921000000000
2.298055631000,1.467000000000
2.305741498000,1.269000000000
2.313427365000,0.133000000000
2.321113232000,-0.802000000000
2.328799099000,-0.493000000000
2.336484966000,-0.032000000000
2.344170833000,-0.175000000000
2.351856700000,-0.229000000000
2.359542567000,-0.106000000000
2.367228434000,-0.121000000000
2.374914301000,-0.143000000000
2.382600168000,-0.086000000000
2.390286035000,-0.059000000000
2.397971902000,-0.054000000000
2.405657769000,-0.022000000000
2.413343636000,0.014000000000
2.421029503000,0.041000000000
2.428715370000,0.074000000000
2.436401237000,0.111000000000
2.444087104000,0.153000000000
2.451772971000,0.197000000000
2.459458838000,0.229000000000
2.467144705000,0.261000000000
2.474830572000,0.286000000000
2.482516439000,0.293000000000
2.490202306000,0.279000000000
2.497888173000,0.261000000000
2.505574040000,0.244000000000
2.513259907000,0.214000000000
2.520945774000,0.163000000000
2.528631641000,0.086000000000
2.536317508000,-0.012000000000
2.544003375000,-0.113000000000
2.551689242000,-0.202000000000
2.559375109000,-0.281000000000
2.567060976000,-0.340000000000
2.574746843000,-0.363000000000
2.582432710000,-0.372000000000
2.590118629000,-0.385000000000
2.597804496000,-0.380000000000
2.605490363000,-0.365000000000
2.613176230000,-0.353000000000
2.620862097000,-0.340000000000
2.628547964000,-0.323000000000
2.636233831000,-0.308000000000
2.643919698000,-0.296000000000
2.651605565000,-0.284000000000
2.659291432000,-0.276000000000
2.666977299000,-0.269000000000
2.674663166000,-0.256000000000
2.682349033000,-0.246000000000
2.690034900000,-0.249000000000
2.697720767000,-0.246000000000
2.705406634000,-0.242000000000
2.713092501000,-0.239000000000
2.720778368000,-0.237000000000
2.728464235000,-0.234000000000
2.736150102000,-0.237000000000
2.743835969000,-0.244000000000
2.751521836000,-0.244000000000
2.759207703000,-0.234000000000
2.766893570000,-0.222000000000
2.774579437000,-0.207000000000
2.782265304000,-0.197000000000
2.789951171000,-0.177000000000
2.797637038000,-0.165000000000
2.805322905000,-0.192000000000
2.813008772000,-0.234000000000
2.820694639000,-0.234000000000
2.828380506000,-0.219000000000
2.836066373000,-0.217000000000
2.843752240000,-0.214000000000
2.851438107000,-0.207000000000
2.859123974000,-0.202000000000
2.866809841000,-0.202000000000
2.874495708000,-0.209000000000
2.882181575000,-0.237000000000
2.889867442000,-0.274000000000
2.897553309000,-0.140000000000
2.905239176000,0.410000000000
2.912925043000,1.108000000000
2.920610910000,1.388000000000
2.928296777000,0.824000000000
2.935982644000,-0.348000000000
2.943668511000,-0.797000000000
2.951354378000,-0.276000000000
2.959040245000,-0.064000000000
2.966726112000,-0.239000000000
2.974411979000,-0.192000000000
2.982097846000,-0.108000000000
2.989783713000,-0.153000000000
2.997469580000,-0.140000000000
3.005155447000,-0.086000000000
3.012841314000,-0.076000000000
3.020527181000,-0.064000000000
3.028213048000,-0.024000000000
3.035898915000,0.004000000000
3.043584782000,0.032000000000
3.051270649000,0.071000000000
3.058956516000,0.108000000000
3.066642383000,0.143000000000
3.074328250000,0.180000000000
3.082014117000,0.214000000000
3.089699984000,0.239000000000
3.097385851000,0.251000000000
3.105071718000,0.251000000000
3.112757585000,0.239000000000
3.120443452000,0.219000000000
3.128129319000,0.195000000000
3.135815186000,0.160000000000
3.143501053000,0.101000000000
3.151186972000,0.017000000000
3.158872839000,-0.079000000000
3.166558706000,-0.175000000000
3.174244573000,-0.264000000000
3.181930440000,-0.330000000000
3.189616307000,-0.370000000000
3.197302174000,-0.387000000000
3.204988041000,-0.395000000000
3.212673908000,-0.397000000000
3.220359775000,-0.390000000000
3.228045642000,-0.377000000000
3.235731509000,-0.363000000000
3.243417376000,-0.348000000000
3.251103243000,-0.335000000000
3.258789110000,-0.323000000000
3.266474977000,-0.306000000000
3.274160844000,-0.296000000000
3.281846711000,-0.286000000000
3.289532578000,-0.279000000000
3.297218445000,-0.271000000000
3.304904312000,-0.269000000000
3.312590179000,-0.266000000000
3.320276046000,-0.261000000000
3.327961913000,-0.259000000000
3.335647780000,-0.256000000000
3.343333647000,-0.256000000000
3.351019514000,-0.254000000000
3.358705381000,-0.254000000000
3.366391248000,-0.261000000000
3.374077115000,-0.264000000000
3.381762982000,-0.256000000000
3.389448849000,-0.239000000000
3.397134716000,-0.224000000000
3.404820583000,-0.217000000000
3.412506450000,-0.202000000000
3.420192317000,-0.182000000000
3.427878184000,-0.187000000000
3.435564051000,-0.227000000000
3.443249918000,-0.249000000000
3.450935785000,-0.237000000000
3.458621652000,-0.227000000000
3.466307519000,-0.224000000000
3.473993386000,-0.219000000000
3.481679253000,-0.212000000000
3.489365120000,-0.209000000000
3.497050987000,-0.214000000000
3.504736854000,-0.229000000000
3.512422721000,-0.261000000000
3.520108588000,-0.229000000000
3.527794455000,0.125000000000
3.535480322000,0.810000000000
3.543166189000,1.375000000000
3.550852056000,1.296000000000
3.558537923000,0.259000000000
3.566223790000,-0.768000000000
3.573909657000,-0.563000000000
3.581595524000,-0.051000000000
3.589281391000,-0.172000000000
3.596967258000,-0.269000000000
3.604653125000,-0.135000000000
3.612338992000,-0.130000000000
3.620024859000,-0.167000000000
3.627710726000,-0.113000000000
3.635396593000,-0.081000000000
3.643082460000,-0.076000000000
3.650768327000,-0.041000000000
3.658454194000,-0.004000000000
3.666140061000,0.017000000000
3.673825928000,0.054000000000
3.681511795000,0.093000000000
3.689197662000,0.128000000000
3.696883529000,0.165000000000
3.704569396000,0.205000000000
3.712255315000,0.237000000000
3.719940834000,0.254000000000
3.727626353000,0.261000000000
3.735311872000,0.254000000000
3.742997391000,0.239000000000
3.750682910000,0.219000000000
3.758368429000,0.192000000000
3.766053948000,0.145000000000
3.773739467000,0.071000000000
3.781424986000,-0.022000000000
3.789110505000,-0.123000000000
3.796796024000,-0.219000000000
3.804481543000,-0.301000000000
3.812167062000,-0.358000000000
3.819852581000,-0.387000000000
3.827538100000,-0.400000000000
3.835223619000,-0.400000000000
3.842909138000,-0.395000000000
3.850594657000,-0.387000000000
3.858280176000,-0.372000000000
3.865965695000,-0.358000000000
3.873651214000,-0.343000000000
3.881336733000,-0.328000000000
3.889022252000,-0.313000000000
3.896707771000,-0.301000000000
3.904393290000,-0.291000000000
3.912078809000,-0.284000000000
3.919764328000,-0.281000000000
3.927449847000,-0.276000000000
3.935135366000,-0.269000000000
3.942820885000,-0.266000000000
3.950506404000,-0.264000000000
3.958191923000,-0.261000000000
3.965877442000,-0.259000000000
3.973562961000,-0.256000000000
3.981248480000,-0.254000000000
3.988933999000,-0.259000000000
3.996619518000,-0.264000000000
4.004305037000,-0.261000000000
4.011990556000,-0.249000000000
4.019676075000,-0.232000000000
4.027361594000,-0.219000000000
4.035047113000,-0.207000000000
4.042732632000,-0.185000000000
4.050418151000,-0.172000000000
4.058103670000,-0.200000000000
4.065789189000,-0.237000000000
4.073474708000,-0.239000000000
4.081160227000,-0.224000000000
4.088845746000,-0.219000000000
4.096531265000,-0.217000000000
4.104216784000,-0.212000000000
4.111902303000,-0.207000000000
4.119587822000,-0.205000000000
4.127273341000,-0.212000000000
4.134958860000,-0.239000000000
4.142644379000,-0.269000000000
4.150329898000,-0.116000000000
4.158015417000,0.437000000000
4.165700936000,1.153000000000
4.173386455000,1.511000000000
4.181071974000,0.978000000000
4.188757493000,-0.306000000000
4.196443012000,-0.834000000000
4.204128531000,-0.274000000000
4.211814050000,-0.046000000000
4.219499569000,-0.261000000000
4.227185088000,-0.209000000000
4.234870607000,-0.108000000000
4.242556126000,-0.160000000000
4.250241645000,-0.150000000000
4.257927164000,-0.088000000000
4.265612683000,-0.079000000000
4.273298231000,-0.064000000000
4.280984307000,-0.019000000000
4.288670383000,0.007000000000
4.296356459000,0.034000000000
4.304042535000,0.076000000000
4.311728611000,0.116000000000
4.319414687000,0.150000000000
4.327100763000,0.190000000000
4.334786839000,0.227000000000
4.342472915000,0.251000000000
4.350158991000,0.264000000000
4.357845067000,0.269000000000
4.365531143000,0.256000000000
4.373217219000,0.239000000000
4.380903295000,0.214000000000
4.388589371000,0.180000000000
4.396275447000,0.123000000000
4.403961523000,0.039000000000
4.411647599000,-0.059000000000
4.419333675000,-0.163000000000
4.427019751000,-0.254000000000
4.434705827000,-0.326000000000
4.442391903000,-0.370000000000
4.450077979000,-0.392000000000
4.457764055000,-0.400000000000
4.465450131000,-0.400000000000
4.473136207000,-0.395000000000
4.480822283000,-0.382000000000
4.488508359000,-0.368000000000
4.496194435000,-0.350000000000
4.503880511000,-0.335000000000
4.511566587000,-0.321000000000
4.519252663000,-0.308000000000
4.526938739000,-0.296000000000
4.534624815000,-0.286000000000
4.542310891000,-0.279000000000
4.549996967000,-0.271000000000
4.557683043000,-0.266000000000
4.565369119000,-0.264000000000
4.573055195000,-0.259000000000
4.580741271000,-0.259000000000
4.588427347000,-0.254000000000
4.596113423000,-0.251000000000
4.603799499000,-0.251000000000
4.611485575000,-0.251000000000
4.619171651000,-0.256000000000
4.626857727000,-0.261000000000
4.634543803000,-0.254000000000
4.642229879000,-0.237000000000
4.649915955000,-0.219000000000
4.657602031000,-0.209000000000
4.665288107000,-0.192000000000
4.672974183000,-0.170000000000
4.680660259000,-0.172000000000
4.688346335000,-0.212000000000
4.696032411000,-0.237000000000
4.703718487000,-0.227000000000
4.711404563000,-0.217000000000
4.719090639000,-0.214000000000
4.726776715000,-0.212000000000
4.734462791000,-0.205000000000
4.742148867000,-0.202000000000
4.749834943000,-0.205000000000
4.757521019000,-0.214000000000
4.765207095000,-0.251000000000
4.772893171000,-0.264000000000
4.780579247000,-0.002000000000
4.788265323000,0.654000000000
4.795951399000,1.341000000000
4.803637475000,1.501000000000
4.811323551000,0.647000000000
4.819009627000,-0.610000000000
4.826695703000,-0.728000000000
4.834381833000,-0.125000000000
4.842067422000,-0.111000000000
4.849753011000,-0.276000000000
4.857438600000,-0.160000000000
4.865124189000,-0.113000000000
4.872809778000,-0.167000000000
4.880495367000,-0.128000000000
4.888180956000,-0.081000000000
4.895866545000,-0.079000000000
4.903552134000,-0.054000000000
4.911237723000,-0.012000000000
4.918923312000,0.014000000000
4.926608901000,0.044000000000
4.934294490000,0.081000000000
4.941980079000,0.121000000000
4.949665668000,0.158000000000
4.957351257000,0.200000000000
4.965036846000,0.234000000000
4.972722435000,0.256000000000
4.980408024000,0.266000000000
4.988093613000,0.261000000000
4.995779202000,0.249000000000
5.003464791000,0.229000000000
5.011150380000,0.202000000000
5.018835969000,0.165000000000
5.026521558000,0.101000000000
5.034207147000,0.012000000000
5.041892736000,-0.086000000000
5.049578325000,-0.185000000000
5.057263914000,-0.271000000000
5.064949503000,-0.335000000000
5.072635092000,-0.375000000000
5.080320681000,-0.392000000000
5.088006270000,-0.395000000000
5.095691859000,-0.392000000000
5.103377448000,-0.385000000000
5.111063037000,-0.370000000000
5.118748626000,-0.353000000000
5.126434215000,-0.335000000000
5.134119804000,-0.321000000000
5.141805393000,-0.306000000000
5.149490982000,-0.296000000000
5.157176571000,-0.288000000000
5.164862160000,-0.279000000000
5.172547749000,-0.269000000000
5.180233338000,-0.264000000000
5.187918927000,-0.261000000000
5.195604516000,-0.254000000000
5.203290105000,-0.251000000000
5.210975694000,-0.251000000000
5.218661283000,-0.251000000000
5.226346872000,-0.246000000000
5.234032461000,-0.242000000000
5.241718050000,-0.246000000000
5.249403639000,-0.259000000000
5.257089228000,-0.256000000000
5.264774817000,-0.242000000000
5.272460406000,-0.224000000000
5.280145995000,-0.209000000000
5.287831584000,-0.200000000000
5.295517173000,-0.182000000000
5.303202762000,-0.167000000000
5.310888351000,-0.187000000000
5.318573940000,-0.222000000000
5.326259529000,-0.227000000000
5.333945118000,-0.214000000000
5.341630707000,-0.214000000000
5.349316296000,-0.209000000000
5.357001885000,-0.197000000000
5.364687474000,-0.195000000000
5.372373063000,-0.195000000000
5.380058652000,-0.200000000000
5.387744241000,-0.222000000000
5.395429830000,-0.261000000000
5.403115697000,-0.180000000000
5.410801564000,0.288000000000
5.418487431000,1.010000000000
5.426173298000,1.474000000000
5.433859165000,1.148000000000
5.441545032000,-0.059000000000
5.449230899000,-0.839000000000
5.456916766000,-0.402000000000
5.464602633000,-0.032000000000
5.472288500000,-0.222000000000
5.479974367000,-0.232000000000
5.487660234000,-0.103000000000
5.495346101000,-0.133000000000
5.503031968000,-0.148000000000
5.510717835000,-0.091000000000
5.518403702000,-0.069000000000
5.526089569000,-0.051000000000
5.533775436000,-0.017000000000
5.541461303000,0.009000000000
5.549147170000,0.037000000000
5.556833037000,0.079000000000
5.564518904000,0.121000000000
5.572204771000,0.160000000000
5.579890638000,0.197000000000
5.587576505000,0.229000000000
5.595262372000,0.259000000000
5.602948239000,0.274000000000
5.610634106000,0.276000000000
5.618319973000,0.269000000000
5.626005840000,0.254000000000
5.633691707000,0.234000000000
5.641377574000,0.197000000000
5.649063441000,0.145000000000
5.656749308000,0.069000000000
5.664435175000,-0.027000000000
5.672121042000,-0.125000000000
5.679806909000,-0.217000000000
5.687492776000,-0.293000000000
5.695178643000,-0.343000000000
5.702864510000,-0.370000000000
5.710550377000,-0.385000000000
5.718236244000,-0.382000000000
5.725922111000,-0.377000000000
5.733607978000,-0.372000000000
5.741293845000,-0.358000000000
5.748979712000,-0.333000000000
5.756665579000,-0.318000000000
5.764351446000,-0.313000000000
5.772037313000,-0.301000000000
5.779723180000,-0.279000000000
5.787409047000,-0.264000000000
5.795094914000,-0.266000000000
5.802780781000,-0.264000000000
5.810466648000,-0.256000000000
5.818152515000,-0.251000000000
5.825838382000,-0.242000000000
5.833524249000,-0.237000000000
5.841210116000,-0.242000000000
5.848895983000,-0.242000000000
5.856581850000,-0.237000000000
5.864267717000,-0.239000000000
5.871953584000,-0.244000000000
5.879639451000,-0.242000000000
5.887325318000,-0.234000000000
5.895011185000,-0.219000000000
5.902697052000,-0.205000000000
5.910382919000,-0.195000000000
5.918068786000,-0.182000000000
5.925754653000,-0.163000000000
5.933440520000,-0.177000000000
5.941126387000,-0.219000000000
5.948812254000,-0.232000000000
5.956498173000,-0.219000000000
5.964184737000,-0.214000000000
5.971871301000,-0.214000000000
5.979557865000,-0.205000000000
5.987244429000,-0.200000000000
5.994930993000,-0.195000000000
6.002617557000,-0.200000000000
6.010304121000,-0.217000000000
6.017990685000,-0.256000000000
6.025677249000,-0.207000000000
6.033363813000,0.195000000000
6.041050377000,0.891000000000
6.048736941000,1.363000000000
6.056423505000,1.106000000000
6.064110069000,0.027000000000
6.071796633000,-0.792000000000
6.079483197000,-0.466000000000
6.087169761000,-0.044000000000
6.094856325000,-0.180000000000
6.102542889000,-0.217000000000
6.110229453000,-0.101000000000
6.117916017000,-0.118000000000
6.125602581000,-0.140000000000
6.133289145000,-0.086000000000
6.140975709000,-0.061000000000
6.148662273000,-0.051000000000
6.156348837000,-0.017000000000
6.164035401000,0.014000000000
6.171721965000,0.039000000000
6.179408529000,0.074000000000
6.187095093000,0.113000000000
6.194781657000,0.150000000000
6.202468221000,0.187000000000
6.210154785000,0.219000000000
6.217841349000,0.246000000000
6.225527913000,0.264000000000
6.233214477000,0.266000000000
6.240901041000,0.259000000000
6.248587605000,0.242000000000
6.256274169000,0.217000000000
6.263960733000,0.182000000000
6.271647297000,0.133000000000
6.279333861000,0.056000000000
6.287020425000,-0.034000000000
6.294706989000,-0.130000000000
6.302393553000,-0.222000000000
6.310080117000,-0.298000000000
6.317766681000,-0.353000000000
6.325453245000,-0.380000000000
6.333139809000,-0.390000000000
6.340826373000,-0.390000000000
6.348512937000,-0.385000000000
6.356199501000,-0.377000000000
6.363886065000,-0.365000000000
6.371572629000,-0.348000000000
6.379259193000,-0.333000000000
6.386945757000,-0.321000000000
6.394632321000,-0.306000000000
6.402318885000,-0.296000000000
6.410005449000,-0.286000000000
6.417692013000,-0.276000000000
6.425378577000,-0.269000000000
6.433065141000,-0.266000000000
6.440751705000,-0.264000000000
6.448438269000,-0.261000000000
6.456124833000,-0.259000000000
6.463811397000,-0.259000000000
6.471497961000,-0.256000000000
6.479184525000,-0.251000000000
6.486871089000,-0.256000000000
6.494557653000,-0.266000000000
6.502244217000,-0.264000000000
6.509930781000,-0.254000000000
6.517617381000,-0.239000000000
6.525302551000,-0.229000000000
6.532987721000,-0.217000000000
6.540672891000,-0.200000000000
6.548358061000,-0.185000000000
6.556043231000,-0.202000000000
6.563728401000,-0.242000000000
6.571413571000,-0.251000000000
6.579098741000,-0.237000000000
6.586783911000,-0.232000000000
6.594469081000,-0.229000000000
6.602154251000,-0.222000000000
6.609839421000,-0.217000000000
6.617524591000,-0.214000000000
6.625209761000,-0.222000000000
6.632894931000,-0.242000000000
6.640580101000,-0.281000000000
6.648265271000,-0.190000000000
6.655950441000,0.298000000000
6.663635611000,1.022000000000
6.671320781000,1.447000000000
6.679005951000,1.062000000000
6.686691121000,-0.143000000000
6.694376291000,-0.839000000000
6.702061461000,-0.377000000000
6.709746631000,-0.046000000000
6.717431801000,-0.242000000000
6.725116971000,-0.237000000000
6.732802141000,-0.121000000000
6.740487311000,-0.155000000000
6.748172481000,-0.163000000000
6.755857651000,-0.103000000000
6.763542821000,-0.086000000000
6.771227991000,-0.076000000000
6.778913161000,-0.037000000000
6.786598331000,-0.002000000000
6.794283501000,0.022000000000
6.801968671000,0.056000000000
6.809653841000,0.096000000000
6.817339011000,0.133000000000
6.825024181000,0.170000000000
6.832709351000,0.202000000000
6.840394521000,0.227000000000
6.848079691000,0.244000000000
6.855764861000,0.246000000000
6.863450031000,0.234000000000
6.871135201000,0.214000000000
6.878820371000,0.192000000000
6.886505541000,0.163000000000
6.894190711000,0.111000000000
6.901875881000,0.034000000000
6.909561051000,-0.059000000000
6.917246221000,-0.158000000000
6.924931391000,-0.246000000000
6.932616561000,-0.318000000000
6.940301731000,-0.370000000000
6.947986901000,-0.395000000000
6.955672071000,-0.402000000000
6.963357241000,-0.400000000000
6.971042411000,-0.395000000000
6.978727581000,-0.382000000000
6.986412751000,-0.368000000000
6.994097921000,-0.353000000000
7.001783091000,-0.338000000000
7.009468261000,-0.323000000000
7.017153431000,-0.308000000000
7.024838601000,-0.296000000000
7.032523771000,-0.286000000000
7.040208941000,-0.281000000000
7.047894111000,-0.274000000000
7.055579281000,-0.269000000000
7.063264451000,-0.264000000000
7.070949621000,-0.261000000000
7.078634859000,-0.259000000000
7.086320726000,-0.256000000000
7.094006593000,-0.254000000000
7.101692460000,-0.256000000000
7.109378327000,-0.261000000000
7.117064194000,-0.266000000000
7.124750061000,-0.261000000000
7.132435928000,-0.246000000000
7.140121795000,-0.232000000000
7.147807662000,-0.224000000000
7.155493529000,-0.209000000000
7.163179396000,-0.185000000000
7.170865263000,-0.180000000000
7.178551130000,-0.214000000000
7.186236997000,-0.246000000000
7.193922864000,-0.242000000000
7.201608731000,-0.229000000000
7.209294598000,-0.227000000000
7.216980465000,-0.222000000000
7.224666332000,-0.214000000000
7.232352199000,-0.209000000000
7.240038066000,-0.212000000000
7.247723933000,-0.224000000000
7.255409800000,-0.259000000000
7.263095667000,-0.279000000000
7.270781534000,-0.046000000000
7.278467401000,0.590000000000
7.286153268000,1.279000000000
7.293839135000,1.486000000000
7.301525002000,0.711000000000
7.309210869000,-0.555000000000
7.316896736000,-0.763000000000
7.324582603000,-0.158000000000
7.332268470000,-0.101000000000
7.339954337000,-0.284000000000
7.347640204000,-0.177000000000
7.355326071000,-0.116000000000
7.363011938000,-0.170000000000
7.370697805000,-0.138000000000
7.378383672000,-0.086000000000
7.386069539000,-0.083000000000
7.393755406000,-0.061000000000
7.401441273000,-0.017000000000
7.409127140000,0.009000000000
7.416813007000,0.039000000000
7.424498874000,0.076000000000
7.432184741000,0.113000000000
7.439870608000,0.150000000000
7.447556475000,0.187000000000
7.455242342000,0.219000000000
7.462928209000,0.242000000000
7.470614076000,0.251000000000
7.478299943000,0.244000000000
7.485985810000,0.232000000000
7.493671677000,0.212000000000
7.501357544000,0.187000000000
7.509043411000,0.150000000000
7.516729278000,0.091000000000
7.524415145000,0.004000000000
7.532101012000,-0.093000000000
7.539786879000,-0.190000000000
7.547472746000,-0.276000000000
7.555158613000,-0.340000000000
7.562844480000,-0.380000000000
7.570530347000,-0.397000000000
7.578216214000,-0.402000000000
7.585902081000,-0.397000000000
7.593587948000,-0.390000000000
7.601273815000,-0.380000000000
7.608959682000,-0.363000000000
7.616645549000,-0.345000000000
7.624331416000,-0.333000000000
7.632017283000,-0.316000000000
7.639703206000,-0.301000000000
7.647389073000,-0.293000000000
7.655074940000,-0.286000000000
7.662760807000,-0.276000000000
7.670446674000,-0.269000000000
7.678132541000,-0.266000000000
7.685818408000,-0.264000000000
7.693504275000,-0.261000000000
7.701190142000,-0.261000000000
7.708876009000,-0.259000000000
7.716561876000,-0.254000000000
7.724247743000,-0.261000000000
7.731933610000,-0.266000000000
7.739619477000,-0.261000000000
7.747305344000,-0.249000000000
7.754991211000,-0.237000000000
7.762677078000,-0.224000000000
7.770362945000,-0.212000000000
7.778048812000,-0.190000000000
7.785734679000,-0.177000000000
7.793420546000,-0.205000000000
7.801106413000,-0.242000000000
7.808792280000,-0.242000000000
7.816478147000,-0.227000000000
7.824164014000,-0.222000000000
7.831849881000,-0.217000000000
7.839535748000,-0.212000000000
7.847221615000,-0.207000000000
7.854907482000,-0.207000000000
7.862593349000,-0.217000000000
7.870279216000,-0.246000000000
7.877965083000,-0.293000000000
7.885650950000,-0.163000000000
7.893336817000,0.387000000000
7.901022684000,1.133000000000
7.908708551000,1.548000000000
7.916394418000,1.064000000000
7.924080285000,-0.242000000000
7.931766152000,-0.854000000000
7.939452019000,-0.308000000000
7.947137886000,-0.044000000000
7.954823753000,-0.261000000000
7.962509620000,-0.222000000000
7.970195487000,-0.113000000000
7.977881354000,-0.163000000000
7.985567221000,-0.155000000000
7.993253088000,-0.093000000000
8.000938955000,-0.081000000000
8.008624822000,-0.066000000000
8.016310689000,-0.022000000000
8.023996556000,0.007000000000
8.031682423000,0.032000000000
8.039368290000,0.074000000000
8.047054157000,0.111000000000
8.054740024000,0.148000000000
8.062425891000,0.187000000000
8.070111758000,0.222000000000
8.077797625000,0.249000000000
8.085483492000,0.264000000000
8.093169359000,0.264000000000
8.100855226000,0.246000000000
8.108541093000,0.227000000000
8.116226960000,0.205000000000
8.123912827000,0.172000000000
8.131598694000,0.121000000000
8.139284561000,0.041000000000
8.146970428000,-0.056000000000
8.154656295000,-0.153000000000
8.162342162000,-0.239000000000
8.170028029000,-0.311000000000
8.177713896000,-0.360000000000
8.185399763000,-0.380000000000
8.193085630000,-0.382000000000
8.200771549000,-0.385000000000
8.208457416000,-0.385000000000
8.216143283000,-0.370000000000
8.223829150000,-0.348000000000
8.231515017000,-0.333000000000
8.239200884000,-0.318000000000
8.246886751000,-0.306000000000
8.254572618000,-0.298000000000
8.262258485000,-0.284000000000
8.269944352000,-0.271000000000
8.277630219000,-0.266000000000
8.285316086000,-0.259000000000
8.293001953000,-0.251000000000
8.300687820000,-0.254000000000
8.308373687000,-0.251000000000
8.316059554000,-0.246000000000
8.323745421000,-0.242000000000
8.331431288000,-0.239000000000
8.339117155000,-0.244000000000
8.346803022000,-0.254000000000
8.354488889000,-0.251000000000
8.362174756000,-0.237000000000
8.369860623000,-0.222000000000
8.377546490000,-0.209000000000
8.385232357000,-0.197000000000
8.392918224000,-0.175000000000
8.400604091000,-0.165000000000
8.408289958000,-0.192000000000
8.415975825000,-0.227000000000
8.423661692000,-0.229000000000
8.431347559000,-0.217000000000
8.439033426000,-0.212000000000
8.446719293000,-0.205000000000
8.454405160000,-0.197000000000
8.462091027000,-0.195000000000
8.469776894000,-0.200000000000
8.477462761000,-0.207000000000
8.485148628000,-0.232000000000
8.492834495000,-0.276000000000
8.500520362000,-0.143000000000
8.508206229000,0.410000000000
8.515892096000,1.133000000000
8.523577963000,1.472000000000
8.531263830000,0.918000000000
8.538949697000,-0.326000000000
8.546635564000,-0.810000000000
8.554321431000,-0.254000000000
8.562007298000,-0.037000000000
8.569693165000,-0.237000000000
8.577379032000,-0.185000000000
8.585064899000,-0.091000000000
8.592750766000,-0.133000000000
8.600436633000,-0.125000000000
8.608122500000,-0.074000000000
8.615808367000,-0.059000000000
8.623494234000,-0.037000000000
8.631180101000,0.004000000000
8.638865968000,0.024000000000
8.646551835000,0.051000000000
8.654237702000,0.098000000000
8.661923569000,0.138000000000
8.669609436000,0.167000000000
8.677295303000,0.207000000000
8.684981170000,0.246000000000
8.692667037000,0.269000000000
8.700352904000,0.276000000000
8.708038771000,0.276000000000
8.715724638000,0.264000000000
8.723410505000,0.246000000000
8.731096372000,0.217000000000
8.738782239000,0.175000000000
8.746468106000,0.125000000000
8.754153973000,0.046000000000
8.761839892000,-0.054000000000
8.769525759000,-0.153000000000
8.777211626000,-0.237000000000
8.784897493000,-0.306000000000
8.792583360000,-0.350000000000
8.800269227000,-0.370000000000
8.807955094000,-0.377000000000
8.815640961000,-0.375000000000
8.823326828000,-0.365000000000
8.831012695000,-0.358000000000
8.838698562000,-0.350000000000
8.846384429000,-0.330000000000
8.854070296000,-0.308000000000
8.861756163000,-0.301000000000
8.869442030000,-0.288000000000
8.877127897000,-0.276000000000
8.884813764000,-0.269000000000
8.892499631000,-0.259000000000
8.900185498000,-0.246000000000
8.907871365000,-0.244000000000
8.915557232000,-0.244000000000
8.923243099000,-0.239000000000
8.930928966000,-0.234000000000
8.938614833000,-0.234000000000
8.946300700000,-0.234000000000
8.953986567000,-0.239000000000
8.961672434000,-0.244000000000
8.969358301000,-0.239000000000
8.977044168000,-0.232000000000
8.984730035000,-0.222000000000
8.992415902000,-0.209000000000
9.000101769000,-0.195000000000
9.007787636000,-0.175000000000
9.015473503000,-0.167000000000
9.023159370000,-0.200000000000
9.030845237000,-0.234000000000
9.038531104000,-0.234000000000
9.046216971000,-0.219000000000
9.053902838000,-0.214000000000
9.061588705000,-0.214000000000
9.069274572000,-0.209000000000
9.076960439000,-0.202000000000
9.084646306000,-0.202000000000
9.092332173000,-0.209000000000
9.100018040000,-0.239000000000
9.107703907000,-0.279000000000
9.115389774000,-0.108000000000
9.123075641000,0.489000000000
9.130761508000,1.175000000000
9.138447375000,1.383000000000
9.146133242000,0.703000000000
9.153819109000,-0.471000000000
9.161504976000,-0.758000000000
9.169190843000,-0.202000000000
9.176876710000,-0.076000000000
9.184562577000,-0.242000000000
9.192248444000,-0.165000000000
9.199934311000,-0.101000000000
9.207620178000,-0.148000000000
9.215306045000,-0.121000000000
9.222991912000,-0.071000000000
9.230677779000,-0.069000000000
9.238363646000,-0.046000000000
9.246049513000,-0.004000000000
9.253735380000,0.019000000000
9.261421247000,0.046000000000
9.269107114000,0.086000000000
9.276792981000,0.123000000000
9.284478848000,0.160000000000
9.292164715000,0.197000000000
9.299850582000,0.227000000000
9.307536449000,0.249000000000
9.315222316000,0.259000000000
9.322908235000,0.254000000000
9.330594102000,0.239000000000
9.338279969000,0.217000000000
9.345965836000,0.190000000000
9.353651703000,0.150000000000
9.361337570000,0.088000000000
9.369023437000,0.007000000000
9.376709304000,-0.086000000000
9.384395171000,-0.182000000000
9.392081038000,-0.266000000000
9.399766905000,-0.328000000000
9.407452772000,-0.368000000000
9.415138639000,-0.385000000000
9.422824506000,-0.387000000000
9.430510373000,-0.387000000000
9.438196240000,-0.380000000000
9.445882107000,-0.368000000000
9.453567974000,-0.353000000000
9.461253841000,-0.338000000000
9.468939708000,-0.326000000000
9.476625575000,-0.313000000000
9.484311442000,-0.301000000000
9.491997309000,-0.286000000000
9.499683176000,-0.276000000000
9.507369043000,-0.271000000000
9.515054910000,-0.266000000000
9.522740777000,-0.259000000000
9.530426644000,-0.256000000000
9.538112511000,-0.254000000000
9.545798378000,-0.251000000000
9.553484245000,-0.249000000000
9.561170112000,-0.246000000000
9.568855979000,-0.254000000000
9.576541846000,-0.261000000000
9.584227713000,-0.259000000000
9.591913580000,-0.246000000000
9.599599447000,-0.234000000000
9.607285314000,-0.222000000000
9.614971181000,-0.209000000000
9.622657048000,-0.190000000000
9.630342915000,-0.177000000000
9.638028782000,-0.205000000000
9.645714649000,-0.244000000000
9.653400516000,-0.244000000000
9.661086383000,-0.229000000000
9.668772250000,-0.227000000000
9.676458117000,-0.224000000000
9.684143984000,-0.214000000000
9.691829851000,-0.212000000000
9.699515718000,-0.214000000000
9.707201585000,-0.222000000000
9.714887452000,-0.254000000000
9.722573319000,-0.286000000000
9.730259186000,-0.096000000000
9.737945053000,0.506000000000
9.745630920000,1.207000000000
9.753316787000,1.469000000000
9.761002654000,0.802000000000
9.768688521000,-0.447000000000
9.776374388000,-0.785000000000
9.784060255000,-0.205000000000
9.791746122000,-0.076000000000
9.799431989000,-0.271000000000
9.807117856000,-0.190000000000
9.814803723000,-0.113000000000
9.822489590000,-0.165000000000
9.830175457000,-0.143000000000
9.837861324000,-0.088000000000
9.845547191000,-0.081000000000
9.853233058000,-0.061000000000
9.860918925000,-0.019000000000
9.868604792000,0.007000000000
9.876290659000,0.034000000000
9.883976578000,0.074000000000
9.891662445000,0.111000000000
9.899348312000,0.145000000000
9.907034179000,0.180000000000
9.914720046000,0.214000000000
9.922405913000,0.239000000000
9.930091780000,0.249000000000
9.937777647000,0.244000000000
9.945463514000,0.229000000000
9.953149381000,0.209000000000
9.960835248000,0.185000000000
9.968521115000,0.148000000000
9.976206982000,0.088000000000
9.983892849000,0.002000000000
9.991578716000,-0.096000000000
9.999264583000,-0.192000000000
10.006950450000,-0.274000000000
10.014636317000,-0.338000000000
10.022322184000,-0.375000000000
10.030008051000,-0.395000000000
10.037693918000,-0.400000000000
10.045379785000,-0.395000000000
10.053065652000,-0.385000000000
10.060751519000,-0.375000000000
10.068437386000,-0.358000000000
10.076123253000,-0.340000000000
10.083809120000,-0.328000000000
10.091494987000,-0.316000000000
10.099180854000,-0.301000000000
10.106866721000,-0.288000000000
10.114552588000,-0.281000000000
10.122238455000,-0.274000000000
10.129924322000,-0.266000000000
10.137610189000,-0.264000000000
10.145296056000,-0.261000000000
10.152981923000,-0.256000000000
10.160667790000,-0.254000000000
10.168353657000,-0.251000000000
10.176039524000,-0.251000000000
10.183725391000,-0.254000000000
10.191411258000,-0.261000000000
10.199097125000,-0.261000000000
10.206782992000,-0.249000000000
10.214468859000,-0.234000000000
10.222154726000,-0.222000000000
10.229840593000,-0.212000000000
10.237526460000,-0.192000000000
10.245212327000,-0.172000000000
10.252898194000,-0.187000000000
10.260584061000,-0.227000000000
10.268269928000,-0.239000000000
10.275955795000,-0.227000000000
10.283641662000,-0.219000000000
10.291327529000,-0.217000000000
10.299013396000,-0.212000000000
10.306699263000,-0.205000000000
10.314385130000,-0.202000000000
10.322070997000,-0.209000000000
10.329756864000,-0.232000000000
10.337442731000,-0.274000000000
10.345128598000,-0.214000000000
10.352814465000,0.224000000000
10.360500332000,0.958000000000
10.368186199000,1.494000000000
10.375872066000,1.274000000000
10.383557933000,0.088000000000
10.391243800000,-0.832000000000
10.398929667000,-0.471000000000
10.406615534000,-0.032000000000
10.414301401000,-0.212000000000
10.421987268000,-0.254000000000
10.429673135000,-0.118000000000
10.437359002000,-0.143000000000
10.445044921000,-0.167000000000
10.452730788000,-0.106000000000
10.460416655000,-0.081000000000
10.468102522000,-0.074000000000
10.475788389000,-0.037000000000
10.483474256000,-0.002000000000
10.491160123000,0.022000000000
10.498845990000,0.056000000000
10.506531857000,0.096000000000
10.514217724000,0.133000000000
10.521903591000,0.170000000000
10.529589458000,0.207000000000
10.537275325000,0.234000000000
10.544961192000,0.254000000000
10.552647059000,0.256000000000
10.560332926000,0.246000000000
10.568018793000,0.229000000000
10.575704660000,0.207000000000
10.583390527000,0.177000000000
10.591076394000,0.128000000000
10.598762261000,0.054000000000
10.606448128000,-0.039000000000
10.614133995000,-0.140000000000
10.621819862000,-0.234000000000
10.629505729000,-0.308000000000
10.637191596000,-0.360000000000
10.644877463000,-0.390000000000
10.652563330000,-0.400000000000
10.660249197000,-0.397000000000
10.667935064000,-0.392000000000
10.675620931000,-0.380000000000
10.683306798000,-0.368000000000
10.690992665000,-0.350000000000
10.698678532000,-0.335000000000
10.706364399000,-0.321000000000
10.714050266000,-0.308000000000
10.721736133000,-0.296000000000
10.729422000000,-0.286000000000
10.737107867000,-0.276000000000
10.744793734000,-0.271000000000
10.752479601000,-0.266000000000
10.760165468000,-0.264000000000
10.767851335000,-0.261000000000
10.775537202000,-0.256000000000
10.783223069000,-0.254000000000
10.790908936000,-0.251000000000
10.798594803000,-0.249000000000
10.806280670000,-0.254000000000
10.813966537000,-0.261000000000
10.821652404000,-0.259000000000
10.829338271000,-0.246000000000
10.837024138000,-0.227000000000
10.844710005000,-0.217000000000
10.852395872000,-0.207000000000
10.860081739000,-0.182000000000
10.867767606000,-0.167000000000
10.875453473000,-0.200000000000
10.883139340000,-0.239000000000
10.890825207000,-0.237000000000
10.898511074000,-0.222000000000
10.906196941000,-0.222000000000
10.913882808000,-0.217000000000
10.921568675000,-0.207000000000
10.929254542000,-0.205000000000
10.936940409000,-0.205000000000
10.944626276000,-0.214000000000
10.952312143000,-0.244000000000
10.959998010000,-0.288000000000
10.967683877000,-0.155000000000
10.975369744000,0.390000000000
10.983055611000,1.133000000000
10.990741478000,1.553000000000
10.998427345000,1.079000000000
11.006113268000,-0.229000000000
11.013799135000,-0.859000000000
11.021485002000,-0.316000000000
11.029170869000,-0.041000000000
11.036856736000,-0.256000000000
11.044542603000,-0.222000000000
11.052228470000,-0.113000000000
11.059914337000,-0.160000000000
11.067600204000,-0.158000000000
11.075286071000,-0.096000000000
11.082971938000,-0.083000000000
11.090657805000,-0.074000000000
11.098343672000,-0.032000000000
11.106029539000,0.000000000000
11.113715406000,0.024000000000
11.121401273000,0.066000000000
11.129087140000,0.106000000000
11.136773007000,0.140000000000
11.144458874000,0.177000000000
11.152144741000,0.214000000000
11.159830608000,0.242000000000
11.167516475000,0.254000000000
11.175202342000,0.256000000000
11.182888209000,0.244000000000
11.190574076000,0.227000000000
11.198259943000,0.202000000000
11.205945810000,0.170000000000
11.213631677000,0.116000000000
11.221317544000,0.034000000000
11.229003411000,-0.064000000000
11.236689278000,-0.165000000000
11.244375145000,-0.251000000000
11.252061012000,-0.323000000000
11.259746879000,-0.368000000000
11.267432746000,-0.390000000000
11.275118613000,-0.400000000000
11.282804480000,-0.400000000000
11.290490347000,-0.392000000000
11.298176214000,-0.382000000000
11.305862081000,-0.365000000000
11.313547948000,-0.348000000000
11.321233815000,-0.333000000000
11.328919682000,-0.318000000000
11.336605549000,-0.303000000000
11.344291416000,-0.291000000000
11.351977283000,-0.284000000000
11.359663150000,-0.276000000000
11.367349017000,-0.269000000000
11.375034884000,-0.266000000000
11.382720751000,-0.269000000000
11.390406618000,-0.261000000000
11.398092485000,-0.256000000000
11.405778352000,-0.256000000000
11.413464219000,-0.251000000000
11.421150086000,-0.249000000000
11.428835953000,-0.251000000000
11.436521820000,-0.259000000000
11.444207687000,-0.261000000000
11.451893554000,-0.251000000000
11.459579421000,-0.237000000000
11.467265288000,-0.222000000000
11.474951155000,-0.209000000000
11.482637022000,-0.195000000000
11.490322889000,-0.172000000000
11.498008756000,-0.175000000000
11.505694623000,-0.209000000000
11.513380490000,-0.239000000000
11.521066357000,-0.232000000000
11.528752224000,-0.219000000000
11.536438091000,-0.217000000000
11.544123958000,-0.209000000000
11.551809825000,-0.202000000000
11.559495692000,-0.200000000000
11.567181611000,-0.202000000000
11.574867478000,-0.212000000000
11.582553345000,-0.249000000000
11.590239212000,-0.254000000000
11.597925079000,0.019000000000
11.605610946000,0.686000000000
11.613296813000,1.358000000000
11.620982680000,1.481000000000
11.628668547000,0.595000000000
11.636354414000,-0.637000000000
11.644040281000,-0.703000000000
11.651726148000,-0.106000000000
11.659412015000,-0.113000000000
11.667097882000,-0.276000000000
11.674783749000,-0.153000000000
11.682469616000,-0.111000000000
11.690155483000,-0.158000000000
11.697841350000,-0.113000000000
11.705527217000,-0.071000000000
11.713213084000,-0.076000000000
11.720898951000,-0.044000000000
11.728584818000,0.004000000000
11.736270685000,0.032000000000
11.743956552000,0.059000000000
11.751642419000,0.098000000000
11.759328286000,0.138000000000
11.767014153000,0.175000000000
11.774700020000,0.214000000000
11.782385887000,0.251000000000
11.790071754000,0.266000000000
11.797757621000,0.274000000000
11.805443488000,0.276000000000
11.813129355000,0.259000000000
11.820815222000,0.239000000000
11.828501089000,0.212000000000
11.836186956000,0.170000000000
11.843872823000,0.106000000000
11.851558690000,0.019000000000
11.859244557000,-0.079000000000
11.866930424000,-0.177000000000
11.874616291000,-0.269000000000
11.882302158000,-0.335000000000
11.889988025000,-0.368000000000
11.897673892000,-0.380000000000
11.905359759000,-0.390000000000
11.913045626000,-0.387000000000
11.920731493000,-0.377000000000
11.928417360000,-0.363000000000
11.936103227000,-0.343000000000
11.943789094000,-0.330000000000
11.951474961000,-0.321000000000
11.959160828000,-0.298000000000
11.966846695000,-0.281000000000
11.974532562000,-0.279000000000
11.982218429000,-0.274000000000
11.989904296000,-0.264000000000
11.997590163000,-0.256000000000
12.005276030000,-0.254000000000
12.012961897000,-0.254000000000
12.020647764000,-0.249000000000
12.028333631000,-0.244000000000
12.036019498000,-0.242000000000
12.043705365000,-0.239000000000
12.051391232000,-0.234000000000
12.059077099000,-0.239000000000
12.066762966000,-0.249000000000
12.074448833000,-0.246000000000
12.082134700000,-0.237000000000
12.089820567000,-0.222000000000
12.097506434000,-0.207000000000
12.105192301000,-0.192000000000
12.112878168000,-0.175000000000
12.120564035000,-0.163000000000
12.128249954000,-0.182000000000
12.135935821000,-0.222000000000
12.143621688000,-0.229000000000
12.151307555000,-0.214000000000
12.158993422000,-0.205000000000
12.166679289000,-0.205000000000
12.174365156000,-0.200000000000
12.182051023000,-0.192000000000
12.189736890000,-0.197000000000
12.197422757000,-0.207000000000
12.205108624000,-0.219000000000
12.212794491000,-0.259000000000
12.220480358000,-0.180000000000
12.228166225000,0.301000000000
12.235852092000,1.010000000000
12.243537959000,1.385000000000
12.251223826000,0.975000000000
12.258909693000,-0.165000000000
12.266595560000,-0.802000000000
12.274281427000,-0.355000000000
12.281967294000,-0.034000000000
12.289653161000,-0.209000000000
12.297339028000,-0.200000000000
12.305024895000,-0.091000000000
12.312710762000,-0.125000000000
12.320396629000,-0.133000000000
12.328082496000,-0.076000000000
12.335768363000,-0.056000000000
12.343454230000,-0.046000000000
12.351140097000,-0.012000000000
12.358825964000,0.019000000000
12.366511831000,0.046000000000
12.374197698000,0.086000000000
12.381883565000,0.123000000000
12.389569432000,0.160000000000
12.397255299000,0.200000000000
12.404941166000,0.234000000000
12.412627033000,0.261000000000
12.420312900000,0.279000000000
12.427998767000,0.284000000000
12.435684634000,0.274000000000
12.443370501000,0.244000000000
12.451056368000,0.219000000000
12.458742235000,0.190000000000
12.466428102000,0.135000000000
12.474113969000,0.056000000000
12.481799836000,-0.041000000000
12.489485703000,-0.143000000000
12.497171570000,-0.239000000000
12.504857437000,-0.313000000000
12.512543304000,-0.355000000000
12.520229171000,-0.380000000000
12.527915038000,-0.392000000000
12.535600905000,-0.390000000000
12.543286772000,-0.382000000000
12.550972639000,-0.372000000000
12.558658506000,-0.360000000000
12.566344373000,-0.345000000000
12.574030240000,-0.328000000000
12.581716107000,-0.313000000000
12.589401974000,-0.301000000000
12.597087841000,-0.288000000000
12.604773708000,-0.279000000000
12.612459575000,-0.271000000000
12.620145442000,-0.266000000000
12.627831309000,-0.261000000000
12.635517176000,-0.256000000000
12.643203043000,-0.249000000000
12.650888910000,-0.244000000000
12.658574777000,-0.246000000000
12.666260644000,-0.242000000000
12.673946511000,-0.237000000000
12.681632378000,-0.237000000000
12.689318297000,-0.244000000000
12.697003746000,-0.249000000000
12.704689195000,-0.246000000000
12.712374644000,-0.234000000000
12.720060093000,-0.219000000000
12.727745542000,-0.207000000000
12.735430991000,-0.197000000000
12.743116440000,-0.180000000000
12.750801889000,-0.170000000000
12.758487338000,-0.200000000000
12.766172787000,-0.237000000000
12.773858236000,-0.234000000000
12.781543685000,-0.219000000000
12.789229134000,-0.217000000000
12.796914583000,-0.214000000000
12.804600032000,-0.207000000000
12.812285481000,-0.202000000000
12.819970930000,-0.205000000000
12.827656379000,-0.209000000000
12.835341828000,-0.239000000000
12.843027277000,-0.269000000000
12.850712726000,-0.081000000000
12.858398175000,0.526000000000
12.866083624000,1.205000000000
12.873769073000,1.395000000000
12.881454522000,0.698000000000
12.889139971000,-0.474000000000
12.896825420000,-0.755000000000
12.904510869000,-0.207000000000
12.912196318000,-0.088000000000
12.919881767000,-0.254000000000
12.927567216000,-0.177000000000
12.935252665000,-0.113000000000
12.942938114000,-0.155000000000
12.950623563000,-0.133000000000
12.958309012000,-0.086000000000
12.965994461000,-0.079000000000
12.973679910000,-0.056000000000
12.981365359000,-0.017000000000
12.989050808000,0.012000000000
12.996736257000,0.039000000000
13.004421706000,0.076000000000
13.012107155000,0.113000000000
13.019792604000,0.148000000000
13.027478053000,0.185000000000
13.035163502000,0.222000000000
13.042848951000,0.244000000000
13.050534400000,0.254000000000
13.058219849000,0.251000000000
13.065905298000,0.239000000000
13.073590747000,0.219000000000
13.081276196000,0.192000000000
13.088961645000,0.153000000000
13.096647094000,0.088000000000
13.104332543000,0.002000000000
13.112017992000,-0.096000000000
13.119703441000,-0.190000000000
13.127388890000,-0.276000000000
13.135074339000,-0.340000000000
13.142759788000,-0.377000000000
13.150445237000,-0.392000000000
13.158130686000,-0.397000000000
13.165816135000,-0.395000000000
13.173501584000,-0.387000000000
13.181187033000,-0.377000000000
13.188872482000,-0.363000000000
13.196557931000,-0.345000000000
13.204243380000,-0.333000000000
13.211928829000,-0.318000000000
13.219614278000,-0.303000000000
13.227299727000,-0.291000000000
13.234985176000,-0.284000000000
13.242670625000,-0.276000000000
13.250356122000,-0.269000000000
13.258041989000,-0.264000000000
13.265727856000,-0.261000000000
13.273413723000,-0.259000000000
13.281099590000,-0.256000000000
13.288785457000,-0.254000000000
13.296471324000,-0.254000000000
13.304157191000,-0.251000000000
13.311843058000,-0.249000000000
13.319528925000,-0.251000000000
13.327214792000,-0.259000000000
13.334900659000,-0.256000000000
13.342586526000,-0.246000000000
13.350272393000,-0.234000000000
13.357958260000,-0.222000000000
13.365644127000,-0.212000000000
13.373329994000,-0.192000000000
13.381015861000,-0.175000000000
13.388701728000,-0.187000000000
13.396387595000,-0.229000000000
13.404073462000,-0.242000000000
13.411759329000,-0.227000000000
13.419445196000,-0.222000000000
13.427131063000,-0.219000000000
13.434816930000,-0.214000000000
13.442502797000,-0.207000000000
13.450188664000,-0.207000000000
13.457874531000,-0.212000000000
13.465560398000,-0.227000000000
13.473246265000,-0.261000000000
13.480932132000,-0.182000000000
13.488617999000,0.279000000000
13.496303866000,1.000000000000
13.503989733000,1.486000000000
13.511675600000,1.197000000000
13.519361467000,-0.004000000000
13.527047334000,-0.844000000000
13.534733201000,-0.434000000000
13.542419068000,-0.037000000000
13.550104935000,-0.227000000000
13.557790802000,-0.254000000000
13.565476669000,-0.123000000000
13.573162536000,-0.153000000000
13.580848403000,-0.170000000000
13.588534270000,-0.108000000000
13.596220137000,-0.086000000000
13.603906004000,-0.081000000000
13.611591871000,-0.041000000000
13.619277738000,-0.004000000000
13.626963605000,0.017000000000
13.634649472000,0.056000000000
13.642335339000,0.098000000000
13.650021206000,0.133000000000
13.657707073000,0.172000000000
13.665392940000,0.214000000000
13.673078807000,0.242000000000
13.680764674000,0.259000000000
13.688450541000,0.264000000000
13.696136408000,0.256000000000
13.703822275000,0.239000000000
13.711508142000,0.219000000000
13.719194009000,0.187000000000
13.726879876000,0.135000000000
13.734565743000,0.059000000000
13.742251610000,-0.041000000000
13.749937477000,-0.145000000000
13.757623344000,-0.244000000000
13.765309211000,-0.323000000000
13.772995078000,-0.375000000000
13.780680945000,-0.402000000000
13.788366812000,-0.414000000000
13.796052679000,-0.417000000000
13.803738546000,-0.407000000000
13.811424465000,-0.395000000000
13.819110332000,-0.385000000000
13.826796199000,-0.370000000000
13.834482066000,-0.353000000000
13.842167933000,-0.340000000000
13.849853800000,-0.326000000000
13.857539667000,-0.313000000000
13.865225534000,-0.303000000000
13.872911401000,-0.296000000000
13.880597268000,-0.288000000000
13.888283135000,-0.281000000000
13.895969002000,-0.279000000000
13.903654869000,-0.274000000000
13.911340736000,-0.269000000000
13.919026603000,-0.266000000000
13.926712470000,-0.266000000000
13.934398337000,-0.264000000000
13.942084204000,-0.259000000000
13.949770071000,-0.259000000000
13.957455938000,-0.264000000000
13.965141805000,-0.266000000000
13.972827672000,-0.261000000000
13.980513539000,-0.246000000000
13.988199406000,-0.229000000000
13.995885273000,-0.217000000000
14.003571140000,-0.200000000000
14.011257007000,-0.175000000000
14.018942874000,-0.175000000000
14.026628741000,-0.217000000000
14.034314608000,-0.244000000000
14.042000475000,-0.232000000000
14.049686342000,-0.219000000000
14.057372209000,-0.219000000000
14.065058076000,-0.212000000000
14.072743943000,-0.205000000000
14.080429810000,-0.197000000000
14.088115677000,-0.200000000000
14.095801544000,-0.214000000000
14.103487411000,-0.256000000000
14.111173278000,-0.264000000000
14.118859145000,0.012000000000
14.126545012000,0.694000000000
14.134230879000,1.412000000000
14.141916746000,1.600000000000
14.149602613000,0.723000000000
14.157288480000,-0.595000000000
14.164974347000,-0.743000000000
14.172660214000,-0.130000000000
14.180346081000,-0.113000000000
14.188031948000,-0.288000000000
14.195717815000,-0.167000000000
14.203403682000,-0.118000000000
14.211089549000,-0.167000000000
14.218775416000,-0.121000000000
14.226461283000,-0.074000000000
14.234147150000,-0.076000000000
14.241833017000,-0.046000000000
14.249518884000,-0.002000000000
14.257204751000,0.019000000000
14.264890618000,0.054000000000
14.272576485000,0.098000000000
14.280262352000,0.133000000000
14.287948219000,0.172000000000
14.295634086000,0.217000000000
14.303319953000,0.256000000000
14.311005820000,0.281000000000
14.318691687000,0.291000000000
14.326377554000,0.291000000000
14.334063421000,0.279000000000
14.341749288000,0.259000000000
14.349435155000,0.229000000000
14.357121022000,0.190000000000
14.364806889000,0.128000000000
14.372492812000,0.034000000000
14.380178679000,-0.071000000000
14.387864546000,-0.170000000000
14.395550413000,-0.259000000000
14.403236280000,-0.328000000000
14.410922147000,-0.365000000000
14.418608014000,-0.385000000000
14.426293881000,-0.395000000000
14.433979748000,-0.390000000000
14.441665615000,-0.377000000000
14.449351482000,-0.368000000000
14.457037349000,-0.355000000000
14.464723216000,-0.335000000000
14.472409083000,-0.321000000000
14.480094950000,-0.313000000000
14.487780817000,-0.293000000000
14.495466684000,-0.274000000000
14.503152551000,-0.271000000000
14.510838418000,-0.269000000000
14.518524285000,-0.259000000000
14.526210152000,-0.256000000000
14.533896019000,-0.251000000000
14.541581886000,-0.249000000000
14.549267753000,-0.246000000000
14.556953620000,-0.239000000000
14.564639487000,-0.234000000000
14.572325354000,-0.239000000000
14.580011221000,-0.239000000000
14.587697088000,-0.244000000000
14.595382955000,-0.251000000000
14.603068822000,-0.244000000000
14.610754689000,-0.229000000000
14.618440556000,-0.217000000000
14.626126423000,-0.202000000000
14.633812290000,-0.180000000000
14.641498157000,-0.160000000000
14.649184024000,-0.160000000000
14.656869891000,-0.195000000000
14.664555758000,-0.224000000000
14.672241625000,-0.217000000000
14.679927492000,-0.205000000000
14.687613359000,-0.207000000000
14.695299226000,-0.200000000000
14.702985093000,-0.185000000000
14.710670960000,-0.182000000000
14.718356827000,-0.192000000000
14.726042694000,-0.197000000000
14.733728561000,-0.219000000000
14.741414428000,-0.244000000000
14.749100295000,-0.049000000000
14.756786162000,0.558000000000
14.764472029000,1.222000000000
14.772157896000,1.393000000000
14.779843763000,0.691000000000
14.787529630000,-0.469000000000
14.795215497000,-0.726000000000
14.802901364000,-0.177000000000
14.810587231000,-0.071000000000
14.818273098000,-0.234000000000
14.825958965000,-0.148000000000
14.833644832000,-0.086000000000
14.841330699000,-0.135000000000
14.849016566000,-0.113000000000
14.856702433000,-0.061000000000
14.864388300000,-0.054000000000
14.872074167000,-0.032000000000
14.879760034000,0.009000000000
14.887445901000,0.039000000000
14.895131768000,0.071000000000
14.902817635000,0.111000000000
14.910503502000,0.143000000000
14.918189369000,0.177000000000
14.925875236000,0.217000000000
14.933561155000,0.256000000000
14.941247022000,0.281000000000
14.948932889000,0.296000000000
14.956618756000,0.303000000000
14.964304623000,0.291000000000
14.971990490000,0.266000000000
14.979676357000,0.239000000000
14.987362224000,0.195000000000
14.995048091000,0.130000000000
15.002733958000,0.044000000000
15.010419825000,-0.064000000000
15.018105692000,-0.172000000000
15.025791559000,-0.259000000000
15.033477426000,-0.318000000000
15.041163293000,-0.358000000000
15.048849160000,-0.385000000000
15.056535027000,-0.395000000000
15.064220894000,-0.390000000000
15.071906761000,-0.382000000000
15.079592628000,-0.370000000000
15.087278495000,-0.353000000000
15.094964362000,-0.338000000000
15.102650229000,-0.323000000000
15.110336096000,-0.311000000000
15.118021963000,-0.301000000000
15.125707830000,-0.286000000000
15.133393697000,-0.276000000000
15.141079564000,-0.271000000000
15.148765431000,-0.264000000000
15.156451298000,-0.254000000000
15.164137165000,-0.249000000000
15.171823032000,-0.246000000000
15.179508899000,-0.242000000000
15.187194766000,-0.239000000000
15.194880633000,-0.237000000000
15.202566500000,-0.237000000000
15.210252367000,-0.244000000000
15.217938234000,-0.249000000000
15.225624101000,-0.244000000000
15.233309968000,-0.234000000000
15.240995835000,-0.222000000000
15.248681702000,-0.207000000000
15.256367569000,-0.197000000000
15.264053436000,-0.177000000000
15.271739303000,-0.167000000000
15.279425170000,-0.197000000000
15.287111037000,-0.232000000000
15.294796904000,-0.232000000000
15.302482771000,-0.222000000000
15.310168638000,-0.219000000000
15.317854505000,-0.214000000000
15.325540372000,-0.207000000000
15.333226239000,-0.205000000000
15.340912106000,-0.205000000000
15.348597973000,-0.212000000000
15.356283840000,-0.239000000000
15.363969707000,-0.269000000000
15.371655574000,-0.098000000000
15.379341441000,0.493000000000
15.387027308000,1.158000000000
15.394713175000,1.331000000000
15.402399042000,0.674000000000
15.410084909000,-0.442000000000
15.417770776000,-0.750000000000
15.425456643000,-0.237000000000
15.433142510000,-0.091000000000
15.440828377000,-0.244000000000
15.448514244000,-0.175000000000
15.456200111000,-0.111000000000
15.463885978000,-0.153000000000
15.471571845000,-0.130000000000
15.479257712000,-0.083000000000
15.486943579000,-0.074000000000
15.494629498000,-0.056000000000
15.502315365000,-0.017000000000
15.510001232000,0.009000000000
15.517687099000,0.039000000000
15.525372966000,0.076000000000
15.533058833000,0.113000000000
15.540744700000,0.148000000000
15.548430567000,0.182000000000
15.556116434000,0.214000000000
15.563802301000,0.242000000000
15.571488168000,0.251000000000
15.579174035000,0.246000000000
15.586859902000,0.232000000000
15.594545769000,0.214000000000
15.602231636000,0.190000000000
15.609917503000,0.148000000000
15.617603370000,0.083000000000
15.625289237000,-0.002000000000
15.632975104000,-0.103000000000
15.640660971000,-0.200000000000
15.648346838000,-0.284000000000
15.656032705000,-0.348000000000
15.663718572000,-0.387000000000
15.671404439000,-0.402000000000
15.679090306000,-0.407000000000
15.686776173000,-0.405000000000
15.694462040000,-0.397000000000
15.702147907000,-0.387000000000
15.709833774000,-0.375000000000
15.717519641000,-0.358000000000
15.725205508000,-0.343000000000
15.732891375000,-0.330000000000
15.740577242000,-0.316000000000
15.748263109000,-0.303000000000
15.755948976000,-0.293000000000
15.763634843000,-0.286000000000
15.771320710000,-0.279000000000
15.779006577000,-0.271000000000
15.786692444000,-0.266000000000
15.794378311000,-0.266000000000
15.802064178000,-0.261000000000
15.809750045000,-0.259000000000
15.817435912000,-0.256000000000
15.825121779000,-0.256000000000
15.832807646000,-0.261000000000
15.840493513000,-0.269000000000
15.848179380000,-0.266000000000
15.855865247000,-0.256000000000
15.863551114000,-0.242000000000
15.871236981000,-0.229000000000
15.878922848000,-0.219000000000
15.886608715000,-0.200000000000
15.894294582000,-0.182000000000
15.901980449000,-0.200000000000
15.909666316000,-0.239000000000
15.917352183000,-0.246000000000
15.925038050000,-0.232000000000
15.932723917000,-0.227000000000
15.940409784000,-0.224000000000
15.948095651000,-0.217000000000
15.955781518000,-0.212000000000
15.963467385000,-0.209000000000
15.971153252000,-0.214000000000
15.978839119000,-0.234000000000
15.986524986000,-0.264000000000
15.994210853000,-0.153000000000
16.001896720000,0.343000000000
16.009582587000,1.062000000000
16.017268454000,1.499000000000
16.024954321000,1.111000000000
16.032640188000,-0.133000000000
16.040326055000,-0.847000000000
16.048011922000,-0.365000000000
16.055697841000,-0.041000000000
16.063383708000,-0.254000000000
16.071069575000,-0.246000000000
16.078755442000,-0.123000000000
16.086441309000,-0.160000000000
16.094127176000,-0.170000000000
16.101813043000,-0.111000000000
16.109498910000,-0.091000000000
16.117184777000,-0.079000000000
16.124870644000,-0.039000000000
16.132556511000,-0.007000000000
16.140242378000,0.022000000000
16.147928245000,0.059000000000
16.155614112000,0.098000000000
16.163299979000,0.138000000000
16.170985846000,0.180000000000
16.178671713000,0.214000000000
16.186357580000,0.246000000000
16.194043447000,0.264000000000
16.201729314000,0.266000000000
16.209415181000,0.259000000000
16.217101048000,0.244000000000
16.224786915000,0.224000000000
16.232472782000,0.190000000000
16.240158649000,0.133000000000
16.247844516000,0.049000000000
16.255530383000,-0.054000000000
16.263216250000,-0.160000000000
16.270902117000,-0.254000000000
16.278587984000,-0.330000000000
16.286273851000,-0.380000000000
16.293959718000,-0.402000000000
16.301645585000,-0.414000000000
16.309331452000,-0.414000000000
16.317017319000,-0.407000000000
16.324703186000,-0.392000000000
16.332389053000,-0.380000000000
16.340074920000,-0.365000000000
16.347760787000,-0.348000000000
16.355446654000,-0.335000000000
16.363132521000,-0.323000000000
16.370818388000,-0.311000000000
16.378504255000,-0.301000000000
16.386190122000,-0.291000000000
16.393875989000,-0.284000000000
16.401561856000,-0.279000000000
16.409247723000,-0.274000000000
16.416933590000,-0.271000000000
16.424619457000,-0.266000000000
16.432305324000,-0.264000000000
16.439991191000,-0.261000000000
16.447677058000,-0.259000000000
16.455362925000,-0.259000000000
16.463048792000,-0.266000000000
16.470734659000,-0.269000000000
16.478420526000,-0.261000000000
16.486106393000,-0.246000000000
16.493792260000,-0.229000000000
16.501478127000,-0.214000000000
16.509163994000,-0.200000000000
16.516849861000,-0.177000000000
16.524535728000,-0.177000000000
16.532221595000,-0.214000000000
16.539907462000,-0.242000000000
16.547593329000,-0.234000000000
16.555279196000,-0.224000000000
16.562965063000,-0.224000000000
16.570650930000,-0.217000000000
16.578336797000,-0.209000000000
16.586022664000,-0.205000000000
16.593708531000,-0.207000000000
16.601394398000,-0.219000000000
16.609080265000,-0.259000000000
16.616766184000,-0.261000000000
16.624452051000,0.014000000000
16.632137918000,0.686000000000
16.639823785000,1.388000000000
16.647509652000,1.565000000000
16.655195519000,0.689000000000
16.662881386000,-0.612000000000
16.670567253000,-0.738000000000
16.678253120000,-0.128000000000
16.685938987000,-0.123000000000
16.693624854000,-0.293000000000
16.701310721000,-0.170000000000
16.708996588000,-0.123000000000
16.716682455000,-0.177000000000
16.724368322000,-0.135000000000
16.732054189000,-0.088000000000
16.739740056000,-0.086000000000
16.747425923000,-0.056000000000
16.755111790000,-0.012000000000
16.762797657000,0.012000000000
16.770483524000,0.044000000000
16.778169391000,0.086000000000
16.785855258000,0.125000000000
16.793541125000,0.165000000000
16.801226992000,0.207000000000
16.808912859000,0.242000000000
16.816598726000,0.269000000000
16.824284593000,0.284000000000
16.831970460000,0.284000000000
16.839656327000,0.269000000000
16.847342194000,0.251000000000
16.855028061000,0.227000000000
16.862713928000,0.185000000000
16.870399795000,0.113000000000
16.878085662000,0.017000000000
16.885771529000,-0.091000000000
16.893457396000,-0.197000000000
16.901143263000,-0.288000000000
16.908829130000,-0.353000000000
16.916514997000,-0.392000000000
16.924200864000,-0.410000000000
16.931886731000,-0.412000000000
16.939572598000,-0.410000000000
16.947258465000,-0.400000000000
16.954944332000,-0.387000000000
16.962630199000,-0.370000000000
16.970316066000,-0.355000000000
16.978001933000,-0.340000000000
16.985687800000,-0.326000000000
16.993373667000,-0.313000000000
17.001059534000,-0.301000000000
17.008745401000,-0.291000000000
17.016431268000,-0.284000000000
17.024117135000,-0.276000000000
17.031803002000,-0.271000000000
17.039488869000,-0.266000000000
17.047174736000,-0.266000000000
17.054860603000,-0.266000000000
17.062546470000,-0.264000000000
17.070232337000,-0.259000000000
17.077918204000,-0.256000000000
17.085604071000,-0.261000000000
17.093289938000,-0.266000000000
17.100975805000,-0.264000000000
17.108661672000,-0.249000000000
17.116347539000,-0.232000000000
17.124033406000,-0.219000000000
17.131719273000,-0.205000000000
17.139405140000,-0.177000000000
17.147091007000,-0.172000000000
17.154776874000,-0.209000000000
17.162462741000,-0.239000000000
17.170148608000,-0.232000000000
17.177834527000,-0.219000000000
17.185520394000,-0.217000000000
17.193206261000,-0.212000000000
17.200892128000,-0.207000000000
17.208577995000,-0.202000000000
17.216263862000,-0.205000000000
17.223949729000,-0.217000000000
17.231635596000,-0.251000000000
17.239321463000,-0.279000000000
17.247007330000,-0.079000000000
17.254693197000,0.543000000000
17.262379064000,1.291000000000
17.270064931000,1.625000000000
17.277750798000,0.955000000000
17.285436665000,-0.407000000000
17.293122532000,-0.820000000000
17.300808399000,-0.217000000000
17.308494266000,-0.074000000000
17.316180133000,-0.281000000000
17.323866000000,-0.200000000000
17.331551867000,-0.116000000000
17.339237734000,-0.170000000000
17.346923601000,-0.148000000000
17.354609468000,-0.088000000000
17.362295335000,-0.083000000000
17.369981202000,-0.061000000000
17.377667069000,-0.019000000000
17.385352936000,0.009000000000
17.393038803000,0.039000000000
17.400724670000,0.081000000000
17.408410537000,0.121000000000
17.416096404000,0.160000000000
17.423782271000,0.202000000000
17.431468138000,0.239000000000
17.439154005000,0.269000000000
17.446839872000,0.284000000000
17.454525739000,0.284000000000
17.462211606000,0.274000000000
17.469897473000,0.256000000000
17.477583340000,0.232000000000
17.485269207000,0.192000000000
17.492955074000,0.128000000000
17.500640941000,0.037000000000
17.508326808000,-0.069000000000
17.516012675000,-0.177000000000
17.523698542000,-0.269000000000
17.531384409000,-0.335000000000
17.539070276000,-0.380000000000
17.546756143000,-0.400000000000
17.554442010000,-0.410000000000
17.562127877000,-0.410000000000
17.569813744000,-0.400000000000
17.577499611000,-0.387000000000
17.585185478000,-0.372000000000
17.592871345000,-0.355000000000
17.600557212000,-0.340000000000
17.608243079000,-0.326000000000
17.615928946000,-0.313000000000
17.623614813000,-0.298000000000
17.631300680000,-0.286000000000
17.638986547000,-0.279000000000
17.646672414000,-0.271000000000
17.654358281000,-0.264000000000
17.662044148000,-0.261000000000
17.669730015000,-0.256000000000
17.677415882000,-0.254000000000
17.685101749000,-0.251000000000
17.692787616000,-0.249000000000
17.700473483000,-0.244000000000
17.708159350000,-0.244000000000
17.715845217000,-0.246000000000
17.723531084000,-0.254000000000
17.731216951000,-0.249000000000
17.738902874000,-0.234000000000
17.746588741000,-0.214000000000
17.754274608000,-0.205000000000
17.761960475000,-0.187000000000
17.769646342000,-0.163000000000
17.777332209000,-0.160000000000
17.785018076000,-0.197000000000
17.792703943000,-0.224000000000
17.800389810000,-0.217000000000
17.808075677000,-0.207000000000
17.815761544000,-0.205000000000
17.823447411000,-0.195000000000
17.831133278000,-0.190000000000
17.838819145000,-0.187000000000
17.846505012000,-0.185000000000
17.854190879000,-0.195000000000
17.861876746000,-0.232000000000
17.869562613000,-0.256000000000
17.877248480000,-0.051000000000
17.884934347000,0.570000000000
17.892620214000,1.311000000000
17.900306081000,1.620000000000
17.907991948000,0.928000000000
17.915677815000,-0.414000000000
17.923363682000,-0.785000000000
17.931049549000,-0.185000000000
17.938735416000,-0.056000000000
17.946421283000,-0.261000000000
17.954107150000,-0.177000000000
17.961793017000,-0.096000000000
17.969478884000,-0.148000000000
17.977164751000,-0.121000000000
17.984850618000,-0.066000000000
17.992536485000,-0.059000000000
18.000222352000,-0.037000000000
18.007908219000,0.004000000000
18.015594086000,0.037000000000
18.023279953000,0.064000000000
18.030965820000,0.098000000000
18.038651687000,0.138000000000
18.046337554000,0.177000000000
18.054023421000,0.219000000000
18.061709288000,0.259000000000
18.069395155000,0.288000000000
18.077081022000,0.301000000000
18.084766889000,0.301000000000
18.092452756000,0.288000000000
18.100138623000,0.271000000000
18.107824490000,0.251000000000
18.115510357000,0.214000000000
18.123196224000,0.143000000000
18.130882091000,0.049000000000
18.138567958000,-0.049000000000
18.146253825000,-0.150000000000
18.153939692000,-0.246000000000
18.161625559000,-0.316000000000
18.169311426000,-0.358000000000
18.176997293000,-0.372000000000
18.184683160000,-0.380000000000
18.192369027000,-0.382000000000
18.200054894000,-0.377000000000
18.207740761000,-0.368000000000
18.215426628000,-0.353000000000
18.223112495000,-0.333000000000
18.230798362000,-0.321000000000
18.238484229000,-0.308000000000
18.246170096000,-0.291000000000
18.253855963000,-0.274000000000
18.261541830000,-0.266000000000
18.269227697000,-0.259000000000
18.276913564000,-0.251000000000
18.284599431000,-0.244000000000
18.292285298000,-0.244000000000
18.299971217000,-0.244000000000
18.307657084000,-0.239000000000
18.315342951000,-0.229000000000
18.323028818000,-0.227000000000
18.330714685000,-0.224000000000
18.338400552000,-0.227000000000
18.346086419000,-0.237000000000
18.353772286000,-0.234000000000
18.361458153000,-0.224000000000
18.369144020000,-0.217000000000
18.376829887000,-0.202000000000
18.384515754000,-0.190000000000
18.392201621000,-0.172000000000
18.399887488000,-0.148000000000
18.407573355000,-0.160000000000
18.415259222000,-0.202000000000
18.422945089000,-0.214000000000
18.430630956000,-0.200000000000
18.438316823000,-0.197000000000
18.446002690000,-0.195000000000
18.453688557000,-0.180000000000
18.461374424000,-0.180000000000
18.469060291000,-0.185000000000
18.476746158000,-0.187000000000
18.484432025000,-0.192000000000
18.492117892000,-0.222000000000
18.499803759000,-0.214000000000
18.507489626000,0.088000000000
18.515175493000,0.770000000000
18.522861360000,1.351000000000
18.530547227000,1.291000000000
18.538233094000,0.358000000000
18.545918961000,-0.666000000000
18.553604828000,-0.595000000000
18.561290695000,-0.079000000000
18.568976562000,-0.121000000000
18.576662429000,-0.229000000000
18.584348296000,-0.111000000000
18.592034163000,-0.088000000000
18.599720030000,-0.133000000000
18.607405897000,-0.093000000000
18.615091764000,-0.046000000000
18.622777631000,-0.037000000000
18.630463498000,-0.014000000000
18.638149365000,0.019000000000
18.645835232000,0.051000000000
18.653521099000,0.086000000000
18.661206966000,0.123000000000
18.668892833000,0.165000000000
18.676578700000,0.207000000000
18.684264567000,0.239000000000
18.691950434000,0.266000000000
18.699636301000,0.296000000000
18.707322168000,0.308000000000
18.715008035000,0.301000000000
18.722693902000,0.288000000000
18.730379769000,0.269000000000
18.738065636000,0.244000000000
18.745751503000,0.200000000000
18.753437370000,0.118000000000
18.761123237000,0.017000000000
18.768809104000,-0.086000000000
18.776494971000,-0.185000000000
18.784180838000,-0.269000000000
18.791866705000,-0.326000000000
18.799552572000,-0.355000000000
18.807238439000,-0.370000000000
18.814924306000,-0.370000000000
18.822610173000,-0.368000000000
18.830296040000,-0.368000000000
18.837981907000,-0.355000000000
18.845667774000,-0.333000000000
18.853353641000,-0.321000000000
18.861039560000,-0.313000000000
18.868725427000,-0.293000000000
18.876411294000,-0.281000000000
18.884097161000,-0.269000000000
18.891783028000,-0.259000000000
18.899468895000,-0.254000000000
18.907154762000,-0.254000000000
18.914840629000,-0.244000000000
18.922526496000,-0.232000000000
18.930212363000,-0.234000000000
18.937898230000,-0.242000000000
18.945584097000,-0.234000000000
18.953269964000,-0.219000000000
18.960955831000,-0.222000000000
18.968641698000,-0.237000000000
18.976327565000,-0.242000000000
18.984013432000,-0.237000000000
18.991699299000,-0.227000000000
18.999385166000,-0.214000000000
19.007071033000,-0.200000000000
19.014756900000,-0.182000000000
19.022442767000,-0.163000000000
19.030128634000,-0.165000000000
19.037814501000,-0.197000000000
19.045500368000,-0.219000000000
19.053186235000,-0.219000000000
19.060872102000,-0.217000000000
19.068557969000,-0.212000000000
19.076243836000,-0.209000000000
19.083929703000,-0.202000000000
19.091615570000,-0.187000000000
19.099301437000,-0.190000000000
19.106987304000,-0.202000000000
19.114673171000,-0.214000000000
19.122359038000,-0.244000000000
19.130044905000,-0.113000000000
19.137730772000,0.427000000000
19.145416639000,1.034000000000
19.153102506000,1.126000000000
19.160788373000,0.548000000000
19.168474240000,-0.370000000000
19.176160107000,-0.684000000000
19.183845974000,-0.259000000000
19.191531841000,-0.069000000000
19.199217708000,-0.190000000000
19.206903575000,-0.150000000000
19.214589442000,-0.088000000000
19.222275309000,-0.116000000000
19.229961176000,-0.098000000000
19.237647043000,-0.056000000000
19.245332910000,-0.044000000000
19.253018777000,-0.022000000000
19.260704644000,0.012000000000
19.268390511000,0.039000000000
19.276076378000,0.064000000000
19.283762245000,0.103000000000
19.291448112000,0.140000000000
19.299133979000,0.172000000000
19.306819846000,0.209000000000
19.314505713000,0.249000000000
19.322191580000,0.274000000000
19.329877447000,0.288000000000
19.337563314000,0.288000000000
19.345249181000,0.276000000000
19.352935048000,0.254000000000
19.360620915000,0.227000000000
19.368306782000,0.187000000000
19.375992649000,0.125000000000
19.383678516000,0.037000000000
19.391364383000,-0.064000000000
19.399050250000,-0.167000000000
19.406736117000,-0.256000000000
19.414421984000,-0.321000000000
19.422107903000,-0.360000000000
19.429793770000,-0.377000000000
19.437479637000,-0.382000000000
19.445165504000,-0.382000000000
19.452851371000,-0.377000000000
19.460537238000,-0.365000000000
19.468223105000,-0.355000000000
19.475908972000,-0.345000000000
19.483594839000,-0.330000000000
19.491280706000,-0.313000000000
19.498966573000,-0.301000000000
19.506652440000,-0.291000000000
19.514338307000,-0.281000000000
19.522024174000,-0.274000000000
19.529710041000,-0.264000000000
19.537395908000,-0.259000000000
19.545081775000,-0.254000000000
19.552767642000,-0.244000000000
19.560453509000,-0.239000000000
19.568139376000,-0.246000000000
19.575825243000,-0.249000000000
19.583511110000,-0.239000000000
19.591196977000,-0.242000000000
19.598882844000,-0.251000000000
19.606568711000,-0.254000000000
19.614254578000,-0.246000000000
19.621940445000,-0.237000000000
19.629626312000,-0.222000000000
19.637312179000,-0.212000000000
19.644998046000,-0.197000000000
19.652683913000,-0.177000000000
19.660369780000,-0.180000000000
19.668055647000,-0.219000000000
19.675741514000,-0.244000000000
19.683427381000,-0.232000000000
19.691113248000,-0.224000000000
19.698799115000,-0.227000000000
19.706484982000,-0.219000000000
19.714170849000,-0.209000000000
19.721856716000,-0.209000000000
19.729542583000,-0.212000000000
19.737228450000,-0.222000000000
19.744914317000,-0.254000000000
19.752600184000,-0.219000000000
19.760286051000,0.150000000000
19.767971918000,0.827000000000
19.775657785000,1.299000000000
19.783343652000,1.126000000000
19.791029519000,0.167000000000
19.798715386000,-0.731000000000
19.806401253000,-0.545000000000
19.814087120000,-0.081000000000
19.821772987000,-0.170000000000
19.829458854000,-0.254000000000
19.837144721000,-0.138000000000
19.844830588000,-0.133000000000
19.852516455000,-0.163000000000
19.860202322000,-0.116000000000
19.867888189000,-0.083000000000
19.875574056000,-0.079000000000
19.883259923000,-0.046000000000
19.890945790000,-0.009000000000
19.898631657000,0.014000000000
19.906317524000,0.046000000000
19.914003391000,0.086000000000
19.921689258000,0.125000000000
19.929375125000,0.163000000000
19.937060992000,0.200000000000
19.944746859000,0.234000000000
19.952432726000,0.254000000000
19.960118593000,0.261000000000
19.967804460000,0.251000000000
19.975490327000,0.237000000000
19.983176246000,0.217000000000
19.990862113000,0.187000000000
19.998547980000,0.135000000000
20.006233847000,0.059000000000
20.013919714000,-0.037000000000
20.021605581000,-0.140000000000
20.029291448000,-0.237000000000
20.036977315000,-0.316000000000
20.044663182000,-0.370000000000
20.052349049000,-0.397000000000
20.060034916000,-0.410000000000
20.067720783000,-0.410000000000
20.075406650000,-0.407000000000
20.083092517000,-0.400000000000
20.090778384000,-0.385000000000
20.098464251000,-0.370000000000
20.106150118000,-0.355000000000
20.113835985000,-0.340000000000
20.121521852000,-0.326000000000
20.129207719000,-0.313000000000
20.136893586000,-0.301000000000
20.144579453000,-0.291000000000
20.152265320000,-0.284000000000
20.159951187000,-0.276000000000
20.167637054000,-0.271000000000
20.175322921000,-0.266000000000
20.183008788000,-0.261000000000
20.190694655000,-0.259000000000
20.198380522000,-0.259000000000
20.206066389000,-0.256000000000
20.213752256000,-0.254000000000
20.221438123000,-0.256000000000
20.229123990000,-0.264000000000
20.236809857000,-0.264000000000
20.244495724000,-0.256000000000
20.252181591000,-0.242000000000
20.259867458000,-0.227000000000
20.267553325000,-0.214000000000
20.275239192000,-0.197000000000
20.282925059000,-0.177000000000
20.290610926000,-0.185000000000
20.298296793000,-0.224000000000
20.305982660000,-0.244000000000
20.313668527000,-0.229000000000
20.321354394000,-0.222000000000
20.329040261000,-0.219000000000
20.336726128000,-0.214000000000
20.344411995000,-0.207000000000
20.352097862000,-0.205000000000
20.359783729000,-0.207000000000
20.367469596000,-0.219000000000
20.375155463000,-0.254000000000
20.382841330000,-0.202000000000
20.390527197000,0.200000000000
20.398213064000,0.903000000000
20.405898931000,1.425000000000
20.413584798000,1.259000000000
20.421270665000,0.170000000000
20.428956532000,-0.787000000000
20.436642399000,-0.513000000000
20.444328266000,-0.044000000000
20.452014133000,-0.190000000000
20.459700000000,-0.261000000000
20.467385867000,-0.128000000000
20.475071734000,-0.138000000000
20.482757601000,-0.167000000000
20.490443468000,-0.111000000000
20.498129335000,-0.081000000000
20.505815202000,-0.076000000000
20.513501069000,-0.041000000000
20.521186936000,-0.002000000000
20.528872803000,0.024000000000
20.536558670000,0.059000000000
20.544244589000,0.098000000000
20.551930108000,0.138000000000
20.559615627000,0.177000000000
20.567301146000,0.217000000000
20.574986665000,0.251000000000
20.582672184000,0.271000000000
20.590357703000,0.276000000000
20.598043222000,0.271000000000
20.605728741000,0.259000000000
20.613414260000,0.237000000000
20.621099779000,0.205000000000
20.628785298000,0.158000000000
20.636470817000,0.079000000000
20.644156336000,-0.027000000000
20.651841855000,-0.133000000000
20.659527374000,-0.234000000000
20.667212893000,-0.318000000000
20.674898412000,-0.372000000000
20.682583931000,-0.402000000000
20.690269450000,-0.414000000000
20.697954969000,-0.417000000000
20.705640488000,-0.410000000000
20.713326007000,-0.400000000000
20.721011526000,-0.385000000000
20.728697045000,-0.368000000000
20.736382564000,-0.353000000000
20.744068083000,-0.340000000000
20.751753602000,-0.326000000000
20.759439121000,-0.308000000000
20.767124640000,-0.296000000000
20.774810159000,-0.288000000000
20.782495678000,-0.279000000000
20.790181197000,-0.271000000000
20.797866716000,-0.269000000000
20.805552235000,-0.264000000000
20.813237754000,-0.261000000000
20.820923273000,-0.259000000000
20.828608792000,-0.254000000000
20.836294311000,-0.251000000000
20.843979830000,-0.256000000000
20.851665349000,-0.261000000000
20.859350868000,-0.256000000000
20.867036387000,-0.244000000000
20.874721906000,-0.227000000000
20.882407425000,-0.217000000000
20.890092944000,-0.202000000000
20.897778463000,-0.180000000000
20.905463982000,-0.167000000000
20.913149501000,-0.195000000000
20.920835020000,-0.229000000000
20.928520539000,-0.229000000000
20.936206058000,-0.214000000000
20.943891577000,-0.212000000000
20.951577096000,-0.205000000000
20.959262615000,-0.200000000000
20.966948134000,-0.195000000000
20.974633653000,-0.195000000000
20.982319172000,-0.207000000000
20.990004691000,-0.242000000000
20.997690210000,-0.274000000000
21.005375729000,-0.086000000000
21.013061248000,0.513000000000
21.020746767000,1.230000000000
21.028432286000,1.521000000000
21.036117805000,0.889000000000
21.043803324000,-0.385000000000
21.051488843000,-0.790000000000
21.059174362000,-0.214000000000
21.066859881000,-0.051000000000
21.074545400000,-0.256000000000
21.082230919000,-0.190000000000
21.089916438000,-0.103000000000
21.097601957000,-0.153000000000
21.105287505000,-0.135000000000
21.112973303000,-0.079000000000
21.120659101000,-0.071000000000
21.128344899000,-0.051000000000
21.136030697000,-0.012000000000
21.143716495000,0.017000000000
21.151402293000,0.049000000000
21.159088091000,0.088000000000
21.166773889000,0.125000000000
21.174459687000,0.165000000000
21.182145485000,0.207000000000
21.189831283000,0.244000000000
21.197517081000,0.271000000000
21.205202879000,0.286000000000
21.212888677000,0.286000000000
21.220574475000,0.274000000000
21.228260273000,0.254000000000
21.235946071000,0.227000000000
21.243631869000,0.187000000000
21.251317667000,0.123000000000
21.259003465000,0.032000000000
21.266689263000,-0.074000000000
21.274375061000,-0.180000000000
21.282060859000,-0.269000000000
21.289746657000,-0.335000000000
21.297432455000,-0.377000000000
21.305118253000,-0.400000000000
21.312804051000,-0.405000000000
21.320489849000,-0.400000000000
21.328175647000,-0.392000000000
21.335861445000,-0.382000000000
21.343547243000,-0.368000000000
21.351233041000,-0.353000000000
21.358918839000,-0.335000000000
21.366604637000,-0.321000000000
21.374290435000,-0.308000000000
21.381976233000,-0.296000000000
21.389662031000,-0.286000000000
21.397347829000,-0.279000000000
21.405033627000,-0.271000000000
21.412719425000,-0.261000000000
21.420405223000,-0.256000000000
21.428091021000,-0.256000000000
21.435776819000,-0.254000000000
21.443462617000,-0.251000000000
21.451148415000,-0.251000000000
21.458834213000,-0.256000000000
21.466520011000,-0.266000000000
21.474205809000,-0.264000000000
21.481891607000,-0.244000000000
21.489577405000,-0.227000000000
21.497263203000,-0.217000000000
21.504949001000,-0.205000000000
21.512634799000,-0.180000000000
21.520320597000,-0.177000000000
21.528006395000,-0.212000000000
21.535692193000,-0.242000000000
21.543377991000,-0.232000000000
21.551063789000,-0.222000000000
21.558749587000,-0.219000000000
21.566435385000,-0.212000000000
21.574121183000,-0.205000000000
21.581806981000,-0.205000000000
21.589492779000,-0.212000000000
21.597178577000,-0.227000000000
21.604864375000,-0.271000000000
21.612550173000,-0.281000000000
21.620235971000,0.012000000000
21.627921769000,0.701000000000
21.635607567000,1.360000000000
21.643293365000,1.435000000000
21.650979163000,0.513000000000
21.658664961000,-0.666000000000
21.666350761000,-0.671000000000
21.674036628000,-0.093000000000
21.681722495000,-0.130000000000
21.689408362000,-0.274000000000
21.697094229000,-0.148000000000
21.704780096000,-0.118000000000
21.712465963000,-0.167000000000
21.720151830000,-0.123000000000
21.727837697000,-0.079000000000
21.735523564000,-0.074000000000
21.743209431000,-0.049000000000
21.750895298000,-0.009000000000
21.758581165000,0.017000000000
21.766267032000,0.049000000000
21.773952899000,0.088000000000
21.781638766000,0.128000000000
21.789324633000,0.167000000000
21.797010500000,0.207000000000
21.804696367000,0.239000000000
21.812382234000,0.261000000000
21.820068101000,0.271000000000
21.827753968000,0.266000000000
21.835439835000,0.254000000000
21.843125702000,0.232000000000
21.850811569000,0.202000000000
21.858497436000,0.158000000000
21.866183303000,0.086000000000
21.873869170000,-0.007000000000
21.881555037000,-0.111000000000
21.889240904000,-0.212000000000
21.896926771000,-0.296000000000
21.904612638000,-0.355000000000
21.912298505000,-0.387000000000
21.919984372000,-0.402000000000
21.927670239000,-0.405000000000
21.935356106000,-0.400000000000
21.943041973000,-0.390000000000
21.950727840000,-0.377000000000
21.958413707000,-0.365000000000
21.966099574000,-0.350000000000
21.973785441000,-0.335000000000
21.981471308000,-0.321000000000
21.989157175000,-0.308000000000
21.996843042000,-0.296000000000
22.004528909000,-0.286000000000
22.012214776000,-0.279000000000
22.019900643000,-0.269000000000
22.027586510000,-0.264000000000
22.035272377000,-0.261000000000
22.042958244000,-0.256000000000
22.050644111000,-0.254000000000
22.058329978000,-0.259000000000
22.066015845000,-0.266000000000
22.073701712000,-0.266000000000
22.081387579000,-0.259000000000
22.089073446000,-0.246000000000
22.096759313000,-0.234000000000
22.104445180000,-0.227000000000
22.112131047000,-0.207000000000
22.119816914000,-0.185000000000
22.127502781000,-0.195000000000
22.135188648000,-0.234000000000
22.142874515000,-0.251000000000
22.150560382000,-0.237000000000
22.158246249000,-0.229000000000
22.165932116000,-0.227000000000
22.173617983000,-0.219000000000
22.181303850000,-0.209000000000
22.188989717000,-0.207000000000
22.196675584000,-0.214000000000
22.204361451000,-0.244000000000
22.212047318000,-0.298000000000
22.219733185000,-0.244000000000
22.227419104000,0.197000000000
22.235104971000,0.928000000000
22.242790838000,1.449000000000
22.250476705000,1.210000000000
22.258162572000,0.029000000000
22.265848439000,-0.834000000000
22.273534306000,-0.437000000000
22.281220173000,-0.017000000000
22.288906040000,-0.209000000000
22.296591907000,-0.244000000000
22.304277774000,-0.111000000000
22.311963641000,-0.138000000000
22.319649508000,-0.160000000000
22.327335375000,-0.098000000000
22.335021242000,-0.076000000000
22.342707109000,-0.071000000000
22.350392976000,-0.032000000000
22.358078843000,0.007000000000
22.365764710000,0.034000000000
22.373450577000,0.066000000000
22.381136444000,0.103000000000
22.388822311000,0.143000000000
22.396508178000,0.182000000000
22.404194045000,0.219000000000
22.411879912000,0.251000000000
22.419565779000,0.271000000000
22.427251646000,0.274000000000
22.434937513000,0.264000000000
22.442623380000,0.249000000000
22.450309247000,0.229000000000
22.457995114000,0.192000000000
22.465680981000,0.133000000000
22.473366848000,0.054000000000
22.481052715000,-0.041000000000
22.488738582000,-0.145000000000
22.496424449000,-0.242000000000
22.504110316000,-0.318000000000
22.511796183000,-0.360000000000
22.519482050000,-0.385000000000
22.527167917000,-0.405000000000
22.534853784000,-0.405000000000
22.542539651000,-0.387000000000
22.550225518000,-0.380000000000
22.557911385000,-0.370000000000
22.565597252000,-0.348000000000
22.573283119000,-0.333000000000
22.580968986000,-0.323000000000
22.588654853000,-0.308000000000
22.596340720000,-0.293000000000
22.604026587000,-0.279000000000
22.611712454000,-0.269000000000
22.619398321000,-0.266000000000
22.627084188000,-0.261000000000
22.634770055000,-0.254000000000
22.642455922000,-0.249000000000
22.650141789000,-0.244000000000
22.657827656000,-0.244000000000
22.665513523000,-0.249000000000
22.673199390000,-0.246000000000
22.680885257000,-0.234000000000
22.688571124000,-0.219000000000
22.696256991000,-0.209000000000
22.703942858000,-0.205000000000
22.711628725000,-0.182000000000
22.719314592000,-0.163000000000
22.727000459000,-0.182000000000
22.734686326000,-0.219000000000
22.742372193000,-0.224000000000
22.750058060000,-0.217000000000
22.757743927000,-0.214000000000
22.765429794000,-0.202000000000
22.773115661000,-0.192000000000
22.780801528000,-0.192000000000
22.788487447000,-0.190000000000
22.796173314000,-0.195000000000
22.803859181000,-0.229000000000
22.811545048000,-0.286000000000
22.819230915000,-0.165000000000
22.826916782000,0.387000000000
22.834602649000,1.062000000000
22.842288516000,1.281000000000
22.849974383000,0.718000000000
22.857660250000,-0.345000000000
22.865346117000,-0.728000000000
22.873031984000,-0.237000000000
22.880717851000,-0.034000000000
22.888403718000,-0.192000000000
22.896089585000,-0.138000000000
22.903775452000,-0.054000000000
22.911461319000,-0.103000000000
22.919147186000,-0.093000000000
22.926833053000,-0.032000000000
22.934518920000,-0.017000000000
22.942204787000,-0.012000000000
22.949890654000,0.017000000000
22.957576521000,0.056000000000
22.965262388000,0.096000000000
22.972948255000,0.128000000000
22.980634122000,0.160000000000
22.988319989000,0.202000000000
22.996005856000,0.242000000000
23.003691723000,0.279000000000
23.011377590000,0.303000000000
23.019063457000,0.318000000000
23.026749324000,0.318000000000
23.034435191000,0.296000000000
23.042121058000,0.279000000000
23.049806925000,0.264000000000
23.057492792000,0.227000000000
23.065178659000,0.158000000000
23.072864526000,0.069000000000
23.080550393000,-0.029000000000
23.088236260000,-0.138000000000
23.095922127000,-0.242000000000
23.103607994000,-0.308000000000
23.111293861000,-0.338000000000
23.118979728000,-0.350000000000
23.126665595000,-0.363000000000
23.134351462000,-0.370000000000
23.142037329000,-0.355000000000
23.149723196000,-0.335000000000
23.157409063000,-0.326000000000
23.165094930000,-0.318000000000
23.172780797000,-0.306000000000
23.180466664000,-0.296000000000
23.188152531000,-0.281000000000
23.195838398000,-0.266000000000
23.203524265000,-0.259000000000
23.211210132000,-0.254000000000
23.218895999000,-0.237000000000
23.226581866000,-0.227000000000
23.234267733000,-0.227000000000
23.241953600000,-0.234000000000
23.249639467000,-0.234000000000
23.257325334000,-0.222000000000
23.265011201000,-0.217000000000
23.272697068000,-0.217000000000
23.280382935000,-0.209000000000
23.288068802000,-0.197000000000
23.295754669000,-0.185000000000
23.303440536000,-0.163000000000
23.311126403000,-0.172000000000
23.318812270000,-0.219000000000
23.326498137000,-0.237000000000
23.334184004000,-0.224000000000
23.341869871000,-0.222000000000
23.349555790000,-0.222000000000
23.357241657000,-0.214000000000
23.364927524000,-0.207000000000
23.372613391000,-0.212000000000
23.380299258000,-0.219000000000
23.387985125000,-0.242000000000
23.395670992000,-0.303000000000
23.403356859000,-0.256000000000
23.411042726000,0.197000000000
23.418728593000,0.834000000000
23.426414460000,1.037000000000
23.434100327000,0.602000000000
23.441786194000,-0.234000000000
23.449472061000,-0.706000000000
23.457157928000,-0.382000000000
23.464843795000,-0.079000000000
23.472529662000,-0.160000000000
23.480215529000,-0.167000000000
23.487901396000,-0.093000000000
23.495587263000,-0.108000000000
23.503273130000,-0.111000000000
23.510958997000,-0.071000000000
23.518644864000,-0.056000000000
23.526330731000,-0.039000000000
23.534016598000,-0.002000000000
23.541702465000,0.022000000000
23.549388332000,0.041000000000
23.557074199000,0.074000000000
23.564760066000,0.111000000000
23.572445933000,0.145000000000
23.580131800000,0.182000000000
23.587817667000,0.212000000000
23.595503534000,0.232000000000
23.603189401000,0.242000000000
23.610875268000,0.237000000000
23.618561135000,0.222000000000
23.626247002000,0.205000000000
23.633932869000,0.177000000000
23.641618736000,0.138000000000
23.649304603000,0.086000000000
23.656990470000,0.009000000000
23.664676337000,-0.081000000000
23.672362204000,-0.170000000000
23.680048071000,-0.249000000000
23.687733938000,-0.311000000000
23.695419805000,-0.345000000000
23.703105672000,-0.365000000000
23.710791539000,-0.372000000000
23.718477406000,-0.370000000000
23.726163273000,-0.363000000000
23.733849140000,-0.353000000000
23.741535007000,-0.340000000000
23.749220874000,-0.326000000000
23.756906741000,-0.313000000000
23.764592608000,-0.298000000000
23.772278475000,-0.286000000000
23.779964342000,-0.274000000000
23.787650209000,-0.266000000000
23.795336076000,-0.259000000000
23.803021943000,-0.251000000000
23.810707810000,-0.244000000000
23.818393677000,-0.239000000000
23.826079544000,-0.234000000000
23.833765411000,-0.234000000000
23.841451278000,-0.244000000000
23.849137145000,-0.249000000000
23.856823012000,-0.239000000000
23.864508879000,-0.227000000000
23.872194746000,-0.222000000000
23.879880613000,-0.217000000000
23.887566480000,-0.202000000000
23.895252347000,-0.180000000000
23.902938214000,-0.177000000000
23.910624133000,-0.214000000000
23.918310000000,-0.242000000000
23.925995867000,-0.234000000000
23.933681734000,-0.227000000000
23.941367601000,-0.227000000000
23.949053468000,-0.222000000000
23.956739335000,-0.214000000000
23.964425202000,-0.212000000000
23.972111069000,-0.219000000000
23.979796936000,-0.239000000000
23.987482803000,-0.276000000000
23.995168670000,-0.227000000000
24.002854537000,0.175000000000
24.010540404000,0.829000000000
24.018226271000,1.232000000000
24.025912138000,0.997000000000
24.033598005000,0.027000000000
24.041283872000,-0.743000000000
24.048969739000,-0.442000000000
24.056655606000,-0.034000000000
24.064341473000,-0.180000000000
24.072027340000,-0.237000000000
24.079713207000,-0.116000000000
24.087399074000,-0.125000000000
24.095084941000,-0.148000000000
24.102770808000,-0.093000000000
24.110456675000,-0.069000000000
24.118142542000,-0.066000000000
24.125828409000,-0.029000000000
24.133514276000,0.007000000000
24.141200143000,0.032000000000
24.148886010000,0.064000000000
24.156571877000,0.101000000000
24.164257744000,0.133000000000
24.171943611000,0.167000000000
24.179629478000,0.202000000000
24.187315345000,0.227000000000
24.195001212000,0.239000000000
24.202687079000,0.242000000000
24.210372946000,0.232000000000
24.218058813000,0.212000000000
24.225744680000,0.190000000000
24.233430547000,0.160000000000
24.241116414000,0.111000000000
24.248802281000,0.032000000000
24.256488148000,-0.061000000000
24.264174015000,-0.158000000000
24.271859882000,-0.246000000000
24.279545749000,-0.318000000000
24.287231616000,-0.365000000000
24.294917483000,-0.390000000000
24.302603350000,-0.400000000000
24.310289217000,-0.397000000000
24.317975084000,-0.390000000000
24.325660951000,-0.377000000000
24.333346818000,-0.363000000000
24.341032685000,-0.345000000000
24.348718552000,-0.330000000000
24.356404419000,-0.318000000000
24.364090286000,-0.303000000000
24.371776153000,-0.291000000000
24.379462020000,-0.281000000000
24.387147887000,-0.274000000000
24.394833754000,-0.269000000000
24.402519621000,-0.261000000000
24.410205488000,-0.256000000000
24.417891355000,-0.254000000000
24.425577222000,-0.251000000000
24.433263089000,-0.256000000000
24.440948956000,-0.264000000000
24.448634823000,-0.259000000000
24.456320690000,-0.246000000000
24.464006557000,-0.234000000000
24.471692480000,-0.224000000000
24.479378347000,-0.214000000000
24.487064214000,-0.192000000000
24.494750081000,-0.175000000000
24.502435948000,-0.202000000000
24.510121815000,-0.239000000000
24.517807682000,-0.242000000000
24.525493549000,-0.227000000000
24.533179416000,-0.224000000000
24.540865283000,-0.219000000000
24.548551150000,-0.212000000000
24.556237017000,-0.207000000000
24.563922884000,-0.209000000000
24.571608751000,-0.219000000000
24.579294618000,-0.259000000000
24.586980485000,-0.303000000000
24.594666352000,-0.125000000000
24.602352219000,0.474000000000
24.610038086000,1.155000000000
24.617723953000,1.378000000000
24.625409820000,0.726000000000
24.633095687000,-0.447000000000
24.640781554000,-0.755000000000
24.648467421000,-0.195000000000
24.656153288000,-0.061000000000
24.663839155000,-0.251000000000
24.671525022000,-0.180000000000
24.679210889000,-0.103000000000
24.686896756000,-0.150000000000
24.694582623000,-0.130000000000
24.702268490000,-0.076000000000
24.709954357000,-0.069000000000
24.717640224000,-0.049000000000
24.725326091000,-0.007000000000
24.733011958000,0.019000000000
24.740697825000,0.046000000000
24.748383692000,0.086000000000
24.756069559000,0.123000000000
24.763755426000,0.155000000000
24.771441293000,0.195000000000
24.779127160000,0.227000000000
24.786813027000,0.246000000000
24.794498894000,0.254000000000
24.802184761000,0.251000000000
24.809870628000,0.234000000000
24.817556495000,0.214000000000
24.825242362000,0.187000000000
24.832928229000,0.150000000000
24.840614096000,0.086000000000
24.848299963000,-0.002000000000
24.855985830000,-0.101000000000
24.863671697000,-0.197000000000
24.871357564000,-0.284000000000
24.879043431000,-0.348000000000
24.886729298000,-0.385000000000
24.894415165000,-0.402000000000
24.902101032000,-0.407000000000
24.909786899000,-0.402000000000
24.917472766000,-0.392000000000
24.925158633000,-0.380000000000
24.932844500000,-0.365000000000
24.940530367000,-0.348000000000
24.948216234000,-0.333000000000
24.955902101000,-0.321000000000
24.963587968000,-0.306000000000
24.971273835000,-0.293000000000
24.978959702000,-0.286000000000
24.986645569000,-0.279000000000
24.994331436000,-0.271000000000
25.002017303000,-0.269000000000
25.009703170000,-0.264000000000
25.017389037000,-0.259000000000
25.025074904000,-0.256000000000
25.032760823000,-0.259000000000
25.040446690000,-0.264000000000
25.048132557000,-0.266000000000
25.055818424000,-0.256000000000
25.063504291000,-0.239000000000
25.071190158000,-0.227000000000
25.078876025000,-0.217000000000
25.086561892000,-0.202000000000
25.094247759000,-0.180000000000
25.101933626000,-0.187000000000
25.109619493000,-0.229000000000
25.117305360000,-0.249000000000
25.124991227000,-0.237000000000
25.132677094000,-0.229000000000
25.140362961000,-0.224000000000
25.148048828000,-0.217000000000
25.155734695000,-0.209000000000
25.163420562000,-0.209000000000
25.171106429000,-0.217000000000
25.178792296000,-0.242000000000
25.186478163000,-0.296000000000
25.194164030000,-0.244000000000
25.201849897000,0.192000000000
25.209535764000,0.918000000000
25.217221631000,1.417000000000
25.224907498000,1.178000000000
25.232593365000,0.037000000000
25.240279232000,-0.817000000000
25.247965099000,-0.437000000000
25.255650966000,-0.014000000000
25.263336833000,-0.197000000000
25.271022700000,-0.237000000000
25.278708567000,-0.103000000000
25.286394434000,-0.125000000000
25.294080301000,-0.148000000000
25.301766168000,-0.088000000000
25.309452035000,-0.064000000000
25.317137902000,-0.059000000000
25.324823769000,-0.019000000000
25.332509636000,0.017000000000
25.340195503000,0.044000000000
25.347881370000,0.079000000000
25.355567237000,0.116000000000
25.363253104000,0.150000000000
25.370938971000,0.185000000000
25.378624838000,0.222000000000
25.386310705000,0.246000000000
25.393996572000,0.259000000000
25.401682439000,0.259000000000
25.409368306000,0.249000000000
25.417054173000,0.229000000000
25.424740040000,0.205000000000
25.432425907000,0.175000000000
25.440111774000,0.128000000000
25.447797641000,0.051000000000
25.455483508000,-0.041000000000
25.463169375000,-0.140000000000
25.470855242000,-0.232000000000
25.478541109000,-0.303000000000
25.486226976000,-0.353000000000
25.493912843000,-0.377000000000
25.501598710000,-0.390000000000
25.509284577000,-0.387000000000
25.516970444000,-0.382000000000
25.524656311000,-0.370000000000
25.532342178000,-0.353000000000
25.540028045000,-0.335000000000
25.547713912000,-0.321000000000
25.555399779000,-0.306000000000
25.563085646000,-0.291000000000
25.570771513000,-0.279000000000
25.578457380000,-0.271000000000
25.586143247000,-0.261000000000
25.593829166000,-0.256000000000
25.601515033000,-0.251000000000
25.609200900000,-0.249000000000
25.616886767000,-0.246000000000
25.624572634000,-0.244000000000
25.632258501000,-0.242000000000
25.639944368000,-0.242000000000
25.647630235000,-0.249000000000
25.655316102000,-0.249000000000
25.663001969000,-0.237000000000
25.670687836000,-0.222000000000
25.678373703000,-0.209000000000
25.686059570000,-0.200000000000
25.693745437000,-0.180000000000
25.701431304000,-0.160000000000
25.709117171000,-0.172000000000
25.716803038000,-0.214000000000
25.724488905000,-0.229000000000
25.732174772000,-0.212000000000
25.739860639000,-0.205000000000
25.747546506000,-0.200000000000
25.755232373000,-0.192000000000
25.762918240000,-0.185000000000
25.770604107000,-0.185000000000
25.778289974000,-0.192000000000
25.785975841000,-0.224000000000
25.793661708000,-0.281000000000
25.801347575000,-0.200000000000
25.809033442000,0.288000000000
25.816719309000,1.022000000000
25.824405176000,1.496000000000
25.832091043000,1.163000000000
25.839776910000,-0.069000000000
25.847462777000,-0.829000000000
25.855148644000,-0.353000000000
25.862834511000,0.002000000000
25.870520378000,-0.207000000000
25.878206245000,-0.207000000000
25.885892112000,-0.081000000000
25.893577979000,-0.121000000000
25.901263846000,-0.133000000000
25.908949713000,-0.069000000000
25.916635580000,-0.051000000000
25.924321447000,-0.044000000000
25.932007314000,0.000000000000
25.939693181000,0.032000000000
25.947379048000,0.054000000000
25.955064915000,0.091000000000
25.962750782000,0.130000000000
25.970436649000,0.163000000000
25.978122516000,0.200000000000
25.985808383000,0.234000000000
25.993494250000,0.256000000000
26.001180117000,0.266000000000
26.008865984000,0.264000000000
26.016551851000,0.249000000000
26.024237718000,0.229000000000
26.031923585000,0.207000000000
26.039609452000,0.177000000000
26.047295319000,0.128000000000
26.054981186000,0.049000000000
26.062667053000,-0.046000000000
26.070352920000,-0.140000000000
26.078038787000,-0.227000000000
26.085724654000,-0.298000000000
26.093410521000,-0.348000000000
26.101096388000,-0.372000000000
26.108782255000,-0.377000000000
26.116468122000,-0.380000000000
26.124153989000,-0.377000000000
26.131839856000,-0.365000000000
26.139525723000,-0.345000000000
26.147211590000,-0.328000000000
26.154897509000,-0.313000000000
26.162583376000,-0.301000000000
26.170269243000,-0.288000000000
26.177955110000,-0.279000000000
26.185640977000,-0.269000000000
26.193326844000,-0.259000000000
26.201012711000,-0.254000000000
26.208698578000,-0.249000000000
26.216384445000,-0.242000000000
26.224070312000,-0.237000000000
26.231756179000,-0.237000000000
26.239442046000,-0.234000000000
26.247127913000,-0.229000000000
26.254813780000,-0.234000000000
26.262499647000,-0.246000000000
26.270185514000,-0.242000000000
26.277871381000,-0.229000000000
26.285557248000,-0.214000000000
26.293243115000,-0.197000000000
26.300928982000,-0.180000000000
26.308614849000,-0.167000000000
26.316300716000,-0.155000000000
26.323986583000,-0.175000000000
26.331672450000,-0.212000000000
26.339358317000,-0.212000000000
26.347044184000,-0.197000000000
26.354730051000,-0.197000000000
26.362415918000,-0.192000000000
26.370101785000,-0.182000000000
26.377787652000,-0.180000000000
26.385473519000,-0.180000000000
26.393159386000,-0.195000000000
26.400845253000,-0.229000000000
26.408531120000,-0.256000000000
26.416216987000,-0.059000000000
26.423902854000,0.545000000000
26.431588721000,1.210000000000
26.439274588000,1.400000000000
26.446960455000,0.698000000000
26.454646322000,-0.486000000000
26.462332189000,-0.731000000000
26.470018056000,-0.155000000000
26.477703923000,-0.054000000000
26.485389790000,-0.227000000000
26.493075657000,-0.135000000000
26.500761524000,-0.074000000000
26.508447391000,-0.123000000000
26.516133258000,-0.096000000000
26.523819125000,-0.039000000000
26.531504992000,-0.037000000000
26.539190859000,-0.019000000000
26.546876726000,0.024000000000
26.554562593000,0.051000000000
26.562248460000,0.079000000000
26.569934327000,0.118000000000
26.577620194000,0.153000000000
26.585306061000,0.187000000000
26.592991928000,0.222000000000
26.600677795000,0.254000000000
26.608363662000,0.271000000000
26.616049529000,0.274000000000
26.623735396000,0.269000000000
26.631421263000,0.259000000000
26.639107130000,0.234000000000
26.646792997000,0.200000000000
26.654478864000,0.163000000000
26.662164731000,0.113000000000
26.669850598000,0.032000000000
26.677536465000,-0.066000000000
26.685222332000,-0.163000000000
26.692908199000,-0.242000000000
26.700594066000,-0.303000000000
26.708279933000,-0.340000000000
26.715965852000,-0.355000000000
26.723651719000,-0.368000000000
26.731337586000,-0.368000000000
26.739023453000,-0.355000000000
26.746709320000,-0.340000000000
26.754395187000,-0.328000000000
26.762081054000,-0.311000000000
26.769766921000,-0.296000000000
26.777452788000,-0.284000000000
26.785138655000,-0.271000000000
26.792824522000,-0.259000000000
26.800510389000,-0.249000000000
26.808196256000,-0.244000000000
26.815882123000,-0.234000000000
26.823567990000,-0.227000000000
26.831253857000,-0.232000000000
26.838939724000,-0.229000000000
26.846625591000,-0.219000000000
26.854311458000,-0.212000000000
26.861997325000,-0.217000000000
26.869683192000,-0.229000000000
26.877369059000,-0.229000000000
26.885054926000,-0.214000000000
26.892740793000,-0.202000000000
26.900426660000,-0.195000000000
26.908112527000,-0.182000000000
26.915798394000,-0.167000000000
26.923484261000,-0.155000000000
26.931170128000,-0.170000000000
26.938855995000,-0.205000000000
26.946541862000,-0.214000000000
26.954227729000,-0.207000000000
26.961913596000,-0.207000000000
26.969599463000,-0.197000000000
26.977285330000,-0.185000000000
26.984971197000,-0.182000000000
26.992657064000,-0.190000000000
27.000342931000,-0.195000000000
27.008028798000,-0.214000000000
27.015714665000,-0.251000000000
27.023400532000,-0.116000000000
27.031086399000,0.419000000000
27.038772266000,1.020000000000
27.046458133000,1.123000000000
27.054144000000,0.523000000000
27.061829867000,-0.417000000000
27.069515734000,-0.684000000000
27.077201601000,-0.224000000000
27.084887468000,-0.054000000000
27.092573335000,-0.177000000000
27.100259202000,-0.128000000000
27.107945069000,-0.074000000000
27.115630936000,-0.108000000000
27.123316803000,-0.093000000000
27.131002670000,-0.046000000000
27.138688537000,-0.034000000000
27.146374404000,-0.019000000000
27.154060271000,0.014000000000
27.161746138000,0.044000000000
27.169432005000,0.074000000000
27.177117872000,0.111000000000
27.184803739000,0.145000000000
27.192489606000,0.175000000000
27.200175473000,0.205000000000
27.207861340000,0.239000000000
27.215547207000,0.261000000000
27.223233074000,0.264000000000
27.230918941000,0.259000000000
27.238604808000,0.246000000000
27.246290675000,0.219000000000
27.253976542000,0.187000000000
27.261662409000,0.153000000000
27.269348276000,0.096000000000
27.277034195000,0.009000000000
27.284720062000,-0.083000000000
27.292405929000,-0.172000000000
27.300091796000,-0.254000000000
27.307777663000,-0.318000000000
27.315463530000,-0.358000000000
27.323149397000,-0.372000000000
27.330835264000,-0.380000000000
27.338521131000,-0.385000000000
27.346206998000,-0.377000000000
27.353892865000,-0.365000000000
27.361578732000,-0.353000000000
27.369264599000,-0.338000000000
27.376950466000,-0.321000000000
27.384636333000,-0.311000000000
27.392322200000,-0.301000000000
27.400008067000,-0.288000000000
27.407693934000,-0.279000000000
27.415379801000,-0.271000000000
27.423065668000,-0.264000000000
27.430751535000,-0.256000000000
27.438437402000,-0.249000000000
27.446123269000,-0.244000000000
27.453809136000,-0.244000000000
27.461495003000,-0.242000000000
27.469180870000,-0.244000000000
27.476866737000,-0.249000000000
27.484552604000,-0.251000000000
27.492238471000,-0.246000000000
27.499924338000,-0.234000000000
27.507610205000,-0.222000000000
27.515296072000,-0.212000000000
27.522981939000,-0.200000000000
27.530667806000,-0.180000000000
27.538353673000,-0.190000000000
27.546039540000,-0.232000000000
27.553725407000,-0.246000000000
27.561411274000,-0.229000000000
27.569097141000,-0.227000000000
27.576783008000,-0.224000000000
27.584468875000,-0.214000000000
27.592154742000,-0.209000000000
27.599840609000,-0.214000000000
27.607526476000,-0.222000000000
27.615212343000,-0.246000000000
27.622898210000,-0.284000000000
27.630584077000,-0.128000000000
27.638269944000,0.439000000000
27.645955811000,1.074000000000
27.653641678000,1.247000000000
27.661327545000,0.656000000000
27.669013412000,-0.417000000000
27.676699279000,-0.745000000000
27.684385146000,-0.229000000000
27.692071013000,-0.066000000000
27.699756880000,-0.242000000000
27.707442747000,-0.185000000000
27.715128614000,-0.108000000000
27.722814481000,-0.150000000000
27.730500348000,-0.135000000000
27.738186215000,-0.083000000000
27.745872082000,-0.071000000000
27.753557949000,-0.054000000000
27.761243816000,-0.017000000000
27.768929683000,0.009000000000
27.776615550000,0.034000000000
27.784301417000,0.071000000000
27.791987284000,0.103000000000
27.799673151000,0.135000000000
27.807359018000,0.167000000000
27.815044885000,0.197000000000
27.822730752000,0.217000000000
27.830416619000,0.224000000000
27.838102542000,0.217000000000
27.845788409000,0.202000000000
27.853474276000,0.177000000000
27.861160143000,0.148000000000
27.868846010000,0.113000000000
27.876531877000,0.059000000000
27.884217744000,-0.019000000000
27.891903611000,-0.116000000000
27.899589478000,-0.205000000000
27.907275345000,-0.281000000000
27.914961212000,-0.345000000000
27.922647079000,-0.382000000000
27.930332946000,-0.397000000000
27.938018813000,-0.402000000000
27.945704680000,-0.400000000000
27.953390547000,-0.390000000000
27.961076414000,-0.377000000000
27.968762281000,-0.363000000000
27.976448148000,-0.345000000000
27.984134015000,-0.330000000000
27.991819882000,-0.321000000000
27.999505749000,-0.306000000000
28.007191616000,-0.293000000000
28.014877483000,-0.286000000000
28.022563350000,-0.279000000000
28.030249217000,-0.274000000000
28.037935084000,-0.269000000000
28.045620951000,-0.264000000000
28.053306818000,-0.261000000000
28.060992685000,-0.256000000000
28.068678552000,-0.254000000000
28.076364419000,-0.254000000000
28.084050286000,-0.261000000000
28.091736153000,-0.266000000000
28.099422020000,-0.259000000000
28.107107887000,-0.244000000000
28.114793754000,-0.232000000000
28.122479621000,-0.224000000000
28.130165488000,-0.212000000000
28.137851355000,-0.187000000000
28.145537222000,-0.180000000000
28.153223089000,-0.214000000000
28.160908956000,-0.244000000000
28.168594823000,-0.237000000000
28.176280690000,-0.227000000000
28.183966557000,-0.227000000000
28.191652424000,-0.219000000000
28.199338291000,-0.209000000000
28.207024158000,-0.209000000000
28.214710025000,-0.217000000000
28.222395892000,-0.234000000000
28.230081759000,-0.276000000000
28.237767626000,-0.224000000000
28.245453493000,0.195000000000
28.253139360000,0.896000000000
28.260825227000,1.400000000000
28.268511094000,1.197000000000
28.276196961000,0.076000000000
28.283882828000,-0.820000000000
28.291568695000,-0.469000000000
28.299254562000,-0.024000000000
28.306940429000,-0.200000000000
28.314626296000,-0.251000000000
28.322312163000,-0.113000000000
28.329998030000,-0.133000000000
28.337683897000,-0.160000000000
28.345369764000,-0.098000000000
28.353055631000,-0.074000000000
28.360741498000,-0.071000000000
28.368427365000,-0.034000000000
28.376113232000,0.000000000000
28.383799099000,0.024000000000
28.391484966000,0.059000000000
28.399170885000,0.096000000000
28.406856752000,0.133000000000
28.414542619000,0.167000000000
28.422228486000,0.202000000000
28.429914353000,0.232000000000
28.437600220000,0.246000000000
28.445286087000,0.246000000000
28.452971954000,0.234000000000
28.460657821000,0.217000000000
28.468343688000,0.192000000000
28.476029555000,0.160000000000
28.483715422000,0.113000000000
28.491401289000,0.039000000000
28.499087156000,-0.054000000000
28.506773023000,-0.150000000000
28.514458890000,-0.242000000000
28.522144757000,-0.316000000000
28.529830624000,-0.365000000000
28.537516491000,-0.392000000000
28.545202358000,-0.405000000000
28.552888225000,-0.402000000000
28.560574092000,-0.397000000000
28.568259959000,-0.385000000000
28.575945826000,-0.370000000000
28.583631693000,-0.353000000000
28.591317560000,-0.338000000000
28.599003427000,-0.323000000000
28.606689294000,-0.308000000000
28.614375161000,-0.298000000000
28.622061028000,-0.288000000000
28.629746895000,-0.279000000000
28.637432762000,-0.274000000000
28.645118629000,-0.269000000000
28.652804496000,-0.261000000000
28.660490363000,-0.259000000000
28.668176230000,-0.256000000000
28.675862097000,-0.251000000000
28.683547964000,-0.249000000000
28.691233831000,-0.251000000000
28.698919698000,-0.256000000000
28.706605565000,-0.256000000000
28.714291432000,-0.246000000000
28.721977299000,-0.232000000000
28.729663166000,-0.219000000000
28.737349033000,-0.205000000000
28.745034900000,-0.185000000000
28.752720767000,-0.165000000000
28.760406634000,-0.182000000000
28.768092501000,-0.222000000000
28.775778368000,-0.232000000000
28.783464235000,-0.217000000000
28.791150102000,-0.209000000000
28.798835969000,-0.205000000000
28.806521836000,-0.197000000000
28.814207703000,-0.192000000000
28.821893570000,-0.195000000000
28.829579437000,-0.205000000000
28.837265304000,-0.239000000000
28.844951171000,-0.276000000000
28.852637038000,-0.091000000000
28.860322905000,0.508000000000
28.868008772000,1.220000000000
28.875694639000,1.514000000000
28.883380506000,0.866000000000
28.891066373000,-0.427000000000
28.898752240000,-0.797000000000
28.906438107000,-0.190000000000
28.914123974000,-0.046000000000
28.921809841000,-0.254000000000
28.929495708000,-0.172000000000
28.937181575000,-0.088000000000
28.944867442000,-0.143000000000
28.952553309000,-0.123000000000
28.960239228000,-0.066000000000
28.967925095000,-0.061000000000
28.975610962000,-0.041000000000
28.983296829000,-0.002000000000
28.990982696000,0.027000000000
28.998668563000,0.054000000000
29.006354430000,0.093000000000
29.014040297000,0.130000000000
29.021726164000,0.165000000000
29.029412031000,0.202000000000
29.037097898000,0.237000000000
29.044783765000,0.259000000000
29.052469632000,0.266000000000
29.060155499000,0.261000000000
29.067841366000,0.246000000000
29.075527233000,0.224000000000
29.083213100000,0.200000000000
29.090898967000,0.163000000000
29.098584834000,0.103000000000
29.106270701000,0.019000000000
29.113956568000,-0.079000000000
29.121642435000,-0.175000000000
29.129328302000,-0.261000000000
29.137014169000,-0.328000000000
29.144700036000,-0.370000000000
29.152385903000,-0.387000000000
29.160071770000,-0.390000000000
29.167757637000,-0.390000000000
29.175443504000,-0.382000000000
29.183129371000,-0.368000000000
29.190815238000,-0.353000000000
29.198501105000,-0.338000000000
29.206186972000,-0.321000000000
29.213872839000,-0.306000000000
29.221558706000,-0.293000000000
29.229244573000,-0.284000000000
29.236930440000,-0.274000000000
29.244616307000,-0.266000000000
29.252302174000,-0.259000000000
29.259988041000,-0.254000000000
29.267673908000,-0.249000000000
29.275359775000,-0.249000000000
29.283045642000,-0.246000000000
29.290731509000,-0.244000000000
29.298417376000,-0.244000000000
29.306103243000,-0.251000000000
29.313789110000,-0.251000000000
29.321474977000,-0.244000000000
29.329160844000,-0.232000000000
29.336846711000,-0.217000000000
29.344532578000,-0.205000000000
29.352218445000,-0.190000000000
