time,LSB
0.000000000000,0.041000000000
0.007688236000,0.039000000000
0.015376472000,0.051000000000
0.023064708000,0.064000000000
0.030752944000,0.076000000000
0.038441180000,0.093000000000
0.046129416000,0.108000000000
0.053817652000,0.118000000000
0.061505888000,0.128000000000
0.069194124000,0.138000000000
0.076882360000,0.143000000000
0.084570596000,0.150000000000
0.092258832000,0.157000000000
0.099947068000,0.150000000000
0.107635304000,0.133000000000
0.115323540000,0.110000000000
0.123011776000,0.071000000000
0.130700012000,0.022000000000
0.138388248000,-0.019000000000
0.146076484000,-0.059000000000
0.153764769000,-0.098000000000
0.161452726000,-0.120000000000
0.169140683000,-0.133000000000
0.176828640000,-0.140000000000
0.184516597000,-0.140000000000
0.192204554000,-0.143000000000
0.199892511000,-0.143000000000
0.207580468000,-0.135000000000
0.215268425000,-0.125000000000
0.222956382000,-0.115000000000
0.230644339000,-0.108000000000
0.238332296000,-0.110000000000
0.246020253000,-0.106000000000
0.253708210000,-0.093000000000
0.261396167000,-0.093000000000
0.269084124000,-0.096000000000
0.276772081000,-0.091000000000
0.284460038000,-0.093000000000
0.292147995000,-0.101000000000
0.299835952000,-0.096000000000
0.307523909000,-0.091000000000
0.315211866000,-0.093000000000
0.322899823000,-0.093000000000
0.330587780000,-0.093000000000
0.338275737000,-0.096000000000
0.345963694000,-0.098000000000
0.353651651000,-0.098000000000
0.361339608000,-0.098000000000
0.369027565000,-0.098000000000
0.376715522000,-0.098000000000
0.384403479000,-0.096000000000
0.392091436000,-0.096000000000
0.399779393000,-0.093000000000
0.407467350000,-0.088000000000
0.415155307000,-0.088000000000
0.422843264000,-0.088000000000
0.430531221000,-0.081000000000
0.438219178000,-0.078000000000
0.445907135000,-0.088000000000
0.453595092000,-0.086000000000
0.461283049000,-0.076000000000
0.468971006000,-0.081000000000
0.476658963000,-0.096000000000
0.484346920000,-0.096000000000
0.492034877000,-0.091000000000
0.499722834000,-0.086000000000
0.507410791000,-0.076000000000
0.515098748000,-0.061000000000
0.522786705000,-0.054000000000
0.530474662000,-0.046000000000
0.538162619000,-0.046000000000
0.545850576000,-0.061000000000
0.553538533000,-0.069000000000
0.561226490000,-0.071000000000
0.568914447000,-0.076000000000
0.576602404000,-0.076000000000
0.584290361000,-0.073000000000
0.591978318000,-0.071000000000
0.599666275000,-0.071000000000
0.607354232000,-0.088000000000
0.615042189000,-0.118000000000
0.622730146000,-0.002000000000
0.630418103000,0.404000000000
0.638106060000,0.798000000000
0.645794017000,0.621000000000
0.653481974000,-0.041000000000
0.661169931000,-0.429000000000
0.668857888000,-0.303000000000
0.676545845000,-0.187000000000
0.684233802000,-0.207000000000
0.691921759000,-0.143000000000
0.699609716000,-0.078000000000
0.707297673000,-0.098000000000
0.714985702000,-0.101000000000
0.722673659000,-0.069000000000
0.730361616000,-0.064000000000
0.738049573000,-0.069000000000
0.745737530000,-0.064000000000
0.753425487000,-0.054000000000
0.761113444000,-0.044000000000
0.768801401000,-0.044000000000
0.776489358000,-0.044000000000
0.784177315000,-0.032000000000
0.791865272000,-0.019000000000
0.799553229000,-0.022000000000
0.807241186000,-0.024000000000
0.814929143000,-0.012000000000
0.822617100000,0.000000000000
0.830305057000,0.009000000000
0.837993014000,0.019000000000
0.845680971000,0.036000000000
0.853368928000,0.054000000000
0.861056885000,0.066000000000
0.868744842000,0.083000000000
0.876432799000,0.093000000000
0.884120756000,0.093000000000
0.891808713000,0.093000000000
0.899496670000,0.103000000000
0.907184627000,0.101000000000
0.914872584000,0.083000000000
0.922560541000,0.051000000000
0.930248498000,0.012000000000
0.937936455000,-0.027000000000
0.945624412000,-0.064000000000
0.953312369000,-0.096000000000
0.961000326000,-0.123000000000
0.968688283000,-0.143000000000
0.976376240000,-0.152000000000
0.984064197000,-0.155000000000
0.991752154000,-0.152000000000
0.999440111000,-0.152000000000
1.007128068000,-0.150000000000
1.014816025000,-0.145000000000
1.022503982000,-0.140000000000
1.030191939000,-0.135000000000
1.037879896000,-0.130000000000
1.045567853000,-0.130000000000
1.053255810000,-0.125000000000
1.060943767000,-0.120000000000
1.068631724000,-0.120000000000
1.076319681000,-0.120000000000
1.084007638000,-0.113000000000
1.091695595000,-0.115000000000
1.099383552000,-0.118000000000
1.107071509000,-0.113000000000
1.114759466000,-0.115000000000
1.122447423000,-0.123000000000
1.130135380000,-0.120000000000
1.137823337000,-0.115000000000
1.145511294000,-0.118000000000
1.153199251000,-0.123000000000
1.160887208000,-0.120000000000
1.168575165000,-0.108000000000
1.176263122000,-0.108000000000
1.183951079000,-0.110000000000
1.191639036000,-0.110000000000
1.199326993000,-0.108000000000
1.207014950000,-0.108000000000
1.214702907000,-0.103000000000
1.222390864000,-0.098000000000
1.230078821000,-0.103000000000
1.237766778000,-0.106000000000
1.245454735000,-0.101000000000
1.253142692000,-0.096000000000
1.260830649000,-0.093000000000
1.268518606000,-0.101000000000
1.276206635000,-0.106000000000
1.283895011000,-0.103000000000
1.291583387000,-0.098000000000
1.299271763000,-0.091000000000
1.306960139000,-0.078000000000
1.314648515000,-0.069000000000
1.322336891000,-0.059000000000
1.330025267000,-0.054000000000
1.337713643000,-0.064000000000
1.345402019000,-0.081000000000
1.353090395000,-0.083000000000
1.360778771000,-0.078000000000
1.368467147000,-0.086000000000
1.376155523000,-0.091000000000
1.383843899000,-0.083000000000
1.391532275000,-0.078000000000
1.399220651000,-0.086000000000
1.406909027000,-0.110000000000
1.414597403000,-0.081000000000
1.422285779000,0.180000000000
1.429974155000,0.638000000000
1.437662531000,0.761000000000
1.445350907000,0.226000000000
1.453039283000,-0.369000000000
1.460727659000,-0.421000000000
1.468416035000,-0.236000000000
1.476104411000,-0.216000000000
1.483792787000,-0.182000000000
1.491481163000,-0.086000000000
1.499169539000,-0.076000000000
1.506857915000,-0.093000000000
1.514546291000,-0.071000000000
1.522234667000,-0.061000000000
1.529923043000,-0.066000000000
1.537611419000,-0.059000000000
1.545299795000,-0.049000000000
1.552988171000,-0.044000000000
1.560676547000,-0.034000000000
1.568364923000,-0.029000000000
1.576053299000,-0.029000000000
1.583741675000,-0.027000000000
1.591430051000,-0.019000000000
1.599118427000,-0.004000000000
1.606806803000,0.004000000000
1.614495179000,0.007000000000
1.622183555000,0.012000000000
1.629871931000,0.029000000000
1.637560307000,0.051000000000
1.645248683000,0.059000000000
1.652937059000,0.066000000000
1.660625435000,0.083000000000
1.668313811000,0.098000000000
1.676002187000,0.106000000000
1.683690563000,0.113000000000
1.691378939000,0.115000000000
1.699067315000,0.110000000000
1.706755691000,0.103000000000
1.714444067000,0.086000000000
1.722132443000,0.044000000000
1.729820819000,-0.009000000000
1.737509195000,-0.051000000000
1.745197571000,-0.083000000000
1.752885947000,-0.115000000000
1.760574323000,-0.138000000000
1.768262699000,-0.143000000000
1.775951075000,-0.145000000000
1.783639451000,-0.152000000000
1.791327827000,-0.145000000000
1.799016203000,-0.138000000000
1.806704579000,-0.140000000000
1.814392955000,-0.140000000000
1.822081331000,-0.130000000000
1.829769707000,-0.118000000000
1.837458090000,-0.113000000000
1.845146047000,-0.110000000000
1.852834004000,-0.110000000000
1.860521961000,-0.113000000000
1.868209918000,-0.110000000000
1.875897875000,-0.103000000000
1.883585832000,-0.098000000000
1.891273789000,-0.101000000000
1.898961746000,-0.106000000000
1.906649703000,-0.106000000000
1.914337660000,-0.101000000000
1.922025617000,-0.101000000000
1.929713574000,-0.103000000000
1.937401531000,-0.093000000000
1.945089488000,-0.088000000000
1.952777445000,-0.091000000000
1.960465402000,-0.093000000000
1.968153359000,-0.096000000000
1.975841316000,-0.093000000000
1.983529273000,-0.091000000000
1.991217230000,-0.088000000000
1.998905187000,-0.081000000000
2.006593144000,-0.073000000000
2.014281101000,-0.076000000000
2.021969058000,-0.078000000000
2.029657015000,-0.069000000000
2.037344972000,-0.066000000000
2.045032929000,-0.078000000000
2.052720886000,-0.083000000000
2.060408843000,-0.071000000000
2.068096800000,-0.059000000000
2.075784757000,-0.059000000000
2.083472714000,-0.059000000000
2.091160671000,-0.044000000000
2.098848628000,-0.027000000000
2.106536585000,-0.014000000000
2.114224542000,-0.017000000000
2.121912499000,-0.036000000000
2.129600456000,-0.044000000000
2.137288413000,-0.044000000000
2.144976370000,-0.046000000000
2.152664327000,-0.046000000000
2.160352284000,-0.046000000000
2.168040241000,-0.046000000000
2.175728198000,-0.046000000000
2.183416155000,-0.059000000000
2.191104112000,-0.064000000000
2.198792069000,0.091000000000
2.206480026000,0.530000000000
2.214167983000,0.823000000000
2.221855940000,0.416000000000
2.229543897000,-0.298000000000
2.237231854000,-0.493000000000
2.244919811000,-0.271000000000
2.252607768000,-0.202000000000
2.260295725000,-0.207000000000
2.267983682000,-0.086000000000
2.275671639000,-0.009000000000
2.283359596000,-0.029000000000
2.291047553000,-0.027000000000
2.298735510000,-0.004000000000
2.306423467000,0.000000000000
2.314111424000,0.007000000000
2.321799381000,0.017000000000
2.329487338000,0.022000000000
2.337175295000,0.024000000000
2.344863252000,0.032000000000
2.352551209000,0.036000000000
2.360239166000,0.046000000000
2.367927123000,0.056000000000
2.375615080000,0.061000000000
2.383303037000,0.069000000000
2.390990994000,0.081000000000
2.398679023000,0.091000000000
2.406366980000,0.101000000000
2.414054937000,0.115000000000
2.421742894000,0.130000000000
2.429430851000,0.143000000000
2.437118808000,0.160000000000
2.444806765000,0.177000000000
2.452494722000,0.182000000000
2.460182679000,0.180000000000
2.467870636000,0.182000000000
2.475558593000,0.184000000000
2.483246550000,0.175000000000
2.490934507000,0.145000000000
2.498622464000,0.101000000000
2.506310421000,0.051000000000
2.513998378000,0.007000000000
2.521686335000,-0.034000000000
2.529374292000,-0.073000000000
2.537062249000,-0.098000000000
2.544750206000,-0.110000000000
2.552438163000,-0.118000000000
2.560126120000,-0.118000000000
2.567814077000,-0.118000000000
2.575502034000,-0.118000000000
2.583189991000,-0.110000000000
2.590877948000,-0.098000000000
2.598565905000,-0.096000000000
2.606253862000,-0.093000000000
2.613941819000,-0.081000000000
2.621629776000,-0.073000000000
2.629317733000,-0.076000000000
2.637005690000,-0.073000000000
2.644693647000,-0.069000000000
2.652381604000,-0.066000000000
2.660069561000,-0.066000000000
2.667757518000,-0.061000000000
2.675445475000,-0.061000000000
2.683133432000,-0.073000000000
2.690821389000,-0.076000000000
2.698509346000,-0.069000000000
2.706197303000,-0.069000000000
2.713885260000,-0.076000000000
2.721573217000,-0.076000000000
2.729261174000,-0.073000000000
2.736949131000,-0.076000000000
2.744637088000,-0.076000000000
2.752325045000,-0.073000000000
2.760013002000,-0.073000000000
2.767700959000,-0.071000000000
2.775388916000,-0.073000000000
2.783076873000,-0.073000000000
2.790764830000,-0.066000000000
2.798452787000,-0.066000000000
2.806140744000,-0.069000000000
2.813828701000,-0.069000000000
2.821516658000,-0.073000000000
2.829204615000,-0.083000000000
2.836892572000,-0.076000000000
2.844580529000,-0.061000000000
2.852268486000,-0.051000000000
2.859956443000,-0.041000000000
2.867644400000,-0.032000000000
2.875332357000,-0.027000000000
2.883020314000,-0.029000000000
2.890708271000,-0.041000000000
2.898396228000,-0.054000000000
2.906084185000,-0.056000000000
2.913772142000,-0.056000000000
2.921460099000,-0.056000000000
2.929148056000,-0.051000000000
2.936836013000,-0.046000000000
2.944523970000,-0.051000000000
2.952211927000,-0.071000000000
2.959899956000,-0.098000000000
2.967587913000,0.007000000000
2.975275870000,0.404000000000
2.982963827000,0.811000000000
2.990651784000,0.626000000000
2.998339741000,-0.066000000000
3.006027698000,-0.451000000000
3.013715655000,-0.305000000000
3.021403612000,-0.182000000000
3.029091569000,-0.199000000000
3.036779526000,-0.118000000000
3.044467483000,-0.039000000000
3.052155440000,-0.061000000000
3.059843397000,-0.066000000000
3.067531354000,-0.039000000000
3.075219311000,-0.036000000000
3.082907268000,-0.039000000000
3.090595225000,-0.032000000000
3.098283182000,-0.024000000000
3.105971139000,-0.019000000000
3.113659096000,-0.014000000000
3.121347053000,-0.009000000000
3.129035010000,-0.007000000000
3.136722967000,-0.002000000000
3.144410924000,0.000000000000
3.152098881000,0.007000000000
3.159786838000,0.014000000000
3.167474795000,0.027000000000
3.175162752000,0.036000000000
3.182850709000,0.044000000000
3.190538666000,0.056000000000
3.198226623000,0.073000000000
3.205914580000,0.086000000000
3.213602537000,0.098000000000
3.221290494000,0.110000000000
3.228978451000,0.113000000000
3.236666408000,0.115000000000
3.244354365000,0.118000000000
3.252042322000,0.118000000000
3.259730279000,0.101000000000
3.267418236000,0.066000000000
3.275106193000,0.022000000000
3.282794150000,-0.019000000000
3.290482107000,-0.056000000000
3.298170064000,-0.088000000000
3.305858021000,-0.113000000000
3.313545978000,-0.128000000000
3.321233935000,-0.138000000000
3.328921892000,-0.145000000000
3.336609849000,-0.143000000000
3.344297806000,-0.135000000000
3.351985763000,-0.130000000000
3.359673720000,-0.125000000000
3.367361677000,-0.120000000000
3.375049634000,-0.123000000000
3.382737591000,-0.118000000000
3.390425548000,-0.110000000000
3.398113505000,-0.113000000000
3.405801462000,-0.110000000000
3.413489419000,-0.103000000000
3.421177376000,-0.108000000000
3.428865333000,-0.115000000000
3.436553290000,-0.108000000000
3.444241247000,-0.103000000000
3.451929204000,-0.110000000000
3.459617161000,-0.113000000000
3.467305118000,-0.108000000000
3.474993075000,-0.110000000000
3.482681032000,-0.115000000000
3.490368989000,-0.108000000000
3.498056946000,-0.103000000000
3.505744903000,-0.110000000000
3.513432860000,-0.108000000000
3.521120889000,-0.098000000000
3.528809125000,-0.103000000000
3.536497361000,-0.108000000000
3.544185597000,-0.103000000000
3.551873833000,-0.098000000000
3.559562069000,-0.091000000000
3.567250305000,-0.091000000000
3.574938541000,-0.096000000000
3.582626777000,-0.101000000000
3.590315013000,-0.106000000000
3.598003249000,-0.110000000000
3.605691485000,-0.106000000000
3.613379721000,-0.101000000000
3.621067957000,-0.098000000000
3.628756193000,-0.083000000000
3.636444429000,-0.064000000000
3.644132665000,-0.061000000000
3.651820901000,-0.061000000000
3.659509137000,-0.056000000000
3.667197373000,-0.071000000000
3.674885609000,-0.088000000000
3.682573845000,-0.086000000000
3.690262081000,-0.078000000000
3.697950317000,-0.083000000000
3.705638553000,-0.091000000000
3.713326789000,-0.088000000000
3.721015025000,-0.083000000000
3.728703261000,-0.101000000000
3.736391497000,-0.115000000000
3.744079733000,0.014000000000
3.751767969000,0.424000000000
3.759456205000,0.793000000000
3.767144441000,0.547000000000
3.774832677000,-0.147000000000
3.782520913000,-0.475000000000
3.790209149000,-0.315000000000
3.797897385000,-0.212000000000
3.805585621000,-0.221000000000
3.813273857000,-0.130000000000
3.820962093000,-0.066000000000
3.828650329000,-0.096000000000
3.836338565000,-0.093000000000
3.844026801000,-0.059000000000
3.851715037000,-0.056000000000
3.859403273000,-0.059000000000
3.867091509000,-0.049000000000
3.874779745000,-0.039000000000
3.882467981000,-0.032000000000
3.890156217000,-0.034000000000
3.897844453000,-0.029000000000
3.905532689000,-0.019000000000
3.913220925000,-0.022000000000
3.920909161000,-0.022000000000
3.928597397000,-0.004000000000
3.936285633000,0.009000000000
3.943973869000,0.012000000000
3.951662105000,0.022000000000
3.959350341000,0.039000000000
3.967038577000,0.054000000000
3.974726813000,0.066000000000
3.982415049000,0.076000000000
3.990103285000,0.088000000000
3.997791521000,0.103000000000
4.005479757000,0.110000000000
4.013167993000,0.108000000000
4.020856229000,0.106000000000
4.028544465000,0.101000000000
4.036232701000,0.086000000000
4.043920937000,0.056000000000
4.051609173000,0.009000000000
4.059297409000,-0.036000000000
4.066985645000,-0.071000000000
4.074673881000,-0.103000000000
4.082362170000,-0.130000000000
4.090050197000,-0.145000000000
4.097738224000,-0.147000000000
4.105426251000,-0.152000000000
4.113114278000,-0.155000000000
4.120802305000,-0.147000000000
4.128490332000,-0.135000000000
4.136178359000,-0.133000000000
4.143866386000,-0.130000000000
4.151554413000,-0.125000000000
4.159242440000,-0.120000000000
4.166930467000,-0.120000000000
4.174618494000,-0.123000000000
4.182306521000,-0.120000000000
4.189994548000,-0.118000000000
4.197682575000,-0.118000000000
4.205370602000,-0.115000000000
4.213058629000,-0.113000000000
4.220746656000,-0.118000000000
4.228434683000,-0.120000000000
4.236122710000,-0.115000000000
4.243810737000,-0.110000000000
4.251498764000,-0.110000000000
4.259186791000,-0.115000000000
4.266874818000,-0.118000000000
4.274562845000,-0.118000000000
4.282250872000,-0.118000000000
4.289938899000,-0.113000000000
4.297626926000,-0.113000000000
4.305314953000,-0.110000000000
4.313002980000,-0.103000000000
4.320691007000,-0.101000000000
4.328379034000,-0.103000000000
4.336067061000,-0.103000000000
4.343755088000,-0.098000000000
4.351443115000,-0.093000000000
4.359131142000,-0.093000000000
4.366819169000,-0.093000000000
4.374507196000,-0.096000000000
4.382195223000,-0.096000000000
4.389883250000,-0.091000000000
4.397571277000,-0.096000000000
4.405259304000,-0.103000000000
4.412947331000,-0.096000000000
4.420635358000,-0.083000000000
4.428323385000,-0.073000000000
4.436011412000,-0.061000000000
4.443699439000,-0.051000000000
4.451387466000,-0.046000000000
4.459075493000,-0.056000000000
4.466763520000,-0.069000000000
4.474451547000,-0.076000000000
4.482139574000,-0.073000000000
4.489827601000,-0.073000000000
4.497515628000,-0.073000000000
4.505203655000,-0.071000000000
4.512891682000,-0.076000000000
4.520579709000,-0.076000000000
4.528267736000,-0.091000000000
4.535955763000,-0.096000000000
4.543643790000,0.083000000000
4.551331817000,0.532000000000
4.559019844000,0.806000000000
4.566707871000,0.414000000000
4.574395898000,-0.253000000000
4.582083925000,-0.448000000000
4.589771952000,-0.258000000000
4.597459979000,-0.197000000000
4.605148006000,-0.197000000000
4.612836033000,-0.103000000000
4.620524060000,-0.061000000000
4.628212087000,-0.083000000000
4.635900114000,-0.066000000000
4.643588190000,-0.044000000000
4.651276217000,-0.049000000000
4.658964244000,-0.049000000000
4.666652271000,-0.039000000000
4.674340298000,-0.039000000000
4.682028325000,-0.034000000000
4.689716352000,-0.022000000000
4.697404379000,-0.012000000000
4.705092406000,-0.012000000000
4.712780433000,-0.012000000000
4.720468460000,-0.007000000000
4.728156487000,0.000000000000
4.735844514000,0.009000000000
4.743532541000,0.019000000000
4.751220568000,0.027000000000
4.758908595000,0.044000000000
4.766596622000,0.059000000000
4.774284649000,0.069000000000
4.781972676000,0.081000000000
4.789660703000,0.096000000000
4.797348730000,0.106000000000
4.805036757000,0.113000000000
4.812724784000,0.115000000000
4.820412811000,0.110000000000
4.828100838000,0.106000000000
4.835788865000,0.091000000000
4.843476892000,0.059000000000
4.851164919000,0.014000000000
4.858852946000,-0.032000000000
4.866540973000,-0.073000000000
4.874229000000,-0.103000000000
4.881917027000,-0.118000000000
4.889605054000,-0.130000000000
4.897293081000,-0.143000000000
4.904981108000,-0.150000000000
4.912669135000,-0.145000000000
4.920357162000,-0.135000000000
4.928045189000,-0.128000000000
4.935733216000,-0.123000000000
4.943421243000,-0.118000000000
4.951109270000,-0.120000000000
4.958797297000,-0.118000000000
4.966485324000,-0.110000000000
4.974173351000,-0.103000000000
4.981861378000,-0.106000000000
4.989549405000,-0.106000000000
4.997237432000,-0.101000000000
5.004925459000,-0.103000000000
5.012613486000,-0.108000000000
5.020301513000,-0.101000000000
5.027989540000,-0.101000000000
5.035677567000,-0.103000000000
5.043365594000,-0.098000000000
5.051053621000,-0.098000000000
5.058741648000,-0.103000000000
5.066429675000,-0.103000000000
5.074117702000,-0.101000000000
5.081805729000,-0.101000000000
5.089493756000,-0.098000000000
5.097181783000,-0.096000000000
5.104869810000,-0.096000000000
5.112557837000,-0.093000000000
5.120245864000,-0.093000000000
5.127933891000,-0.093000000000
5.135621918000,-0.088000000000
5.143309945000,-0.083000000000
5.150997972000,-0.086000000000
5.158685999000,-0.086000000000
5.166374026000,-0.083000000000
5.174062053000,-0.081000000000
5.181750080000,-0.083000000000
5.189438107000,-0.083000000000
5.197126134000,-0.088000000000
5.204814210000,-0.088000000000
5.212502864000,-0.088000000000
5.220191518000,-0.083000000000
5.227880172000,-0.071000000000
5.235568826000,-0.059000000000
5.243257480000,-0.051000000000
5.250946134000,-0.041000000000
5.258634788000,-0.041000000000
5.266323442000,-0.056000000000
5.274012096000,-0.071000000000
5.281700750000,-0.071000000000
5.289389404000,-0.071000000000
5.297078058000,-0.076000000000
5.304766712000,-0.069000000000
5.312455366000,-0.064000000000
5.320144020000,-0.069000000000
5.327832674000,-0.081000000000
5.335521328000,-0.098000000000
5.343209982000,0.012000000000
5.350898636000,0.404000000000
5.358587290000,0.784000000000
5.366275944000,0.579000000000
5.373964598000,-0.093000000000
5.381653252000,-0.453000000000
5.389341906000,-0.318000000000
5.397030560000,-0.202000000000
5.404719214000,-0.207000000000
5.412407868000,-0.125000000000
5.420096522000,-0.059000000000
5.427785176000,-0.076000000000
5.435473830000,-0.071000000000
5.443162484000,-0.041000000000
5.450851138000,-0.039000000000
5.458539792000,-0.041000000000
5.466228446000,-0.034000000000
5.473917100000,-0.027000000000
5.481605754000,-0.024000000000
5.489294408000,-0.022000000000
5.496983062000,-0.014000000000
5.504671716000,-0.002000000000
5.512360370000,0.002000000000
5.520049024000,0.002000000000
5.527737678000,0.007000000000
5.535426332000,0.019000000000
5.543114986000,0.027000000000
5.550803640000,0.036000000000
5.558492294000,0.051000000000
5.566180948000,0.064000000000
5.573869602000,0.071000000000
5.581558256000,0.083000000000
5.589246910000,0.098000000000
5.596935564000,0.110000000000
5.604624218000,0.115000000000
5.612312872000,0.120000000000
5.620001526000,0.125000000000
5.627690180000,0.123000000000
5.635378834000,0.106000000000
5.643067488000,0.069000000000
5.650756142000,0.027000000000
5.658444796000,-0.009000000000
5.666133450000,-0.049000000000
5.673822104000,-0.088000000000
5.681510758000,-0.118000000000
5.689199412000,-0.130000000000
5.696888066000,-0.138000000000
5.704576720000,-0.140000000000
5.712265374000,-0.138000000000
5.719954028000,-0.130000000000
5.727642682000,-0.135000000000
5.735331336000,-0.135000000000
5.743019990000,-0.123000000000
5.750708644000,-0.113000000000
5.758397298000,-0.110000000000
5.766086007000,-0.113000000000
5.773773268000,-0.106000000000
5.781460529000,-0.093000000000
5.789147790000,-0.096000000000
5.796835051000,-0.103000000000
5.804522312000,-0.098000000000
5.812209573000,-0.096000000000
5.819896834000,-0.101000000000
5.827584095000,-0.103000000000
5.835271356000,-0.101000000000
5.842958617000,-0.098000000000
5.850645878000,-0.101000000000
5.858333139000,-0.106000000000
5.866020400000,-0.106000000000
5.873707661000,-0.098000000000
5.881394922000,-0.093000000000
5.889082183000,-0.098000000000
5.896769444000,-0.103000000000
5.904456705000,-0.096000000000
5.912143966000,-0.091000000000
5.919831227000,-0.091000000000
5.927518488000,-0.088000000000
5.935205749000,-0.083000000000
5.942893010000,-0.086000000000
5.950580271000,-0.091000000000
5.958267532000,-0.091000000000
5.965954793000,-0.086000000000
5.973642054000,-0.076000000000
5.981329315000,-0.073000000000
5.989016576000,-0.073000000000
5.996703837000,-0.073000000000
6.004391098000,-0.076000000000
6.012078359000,-0.083000000000
6.019765620000,-0.083000000000
6.027452881000,-0.073000000000
6.035140142000,-0.073000000000
6.042827403000,-0.073000000000
6.050514664000,-0.059000000000
6.058201925000,-0.046000000000
6.065889186000,-0.039000000000
6.073576447000,-0.029000000000
6.081263708000,-0.029000000000
6.088950969000,-0.051000000000
6.096638230000,-0.069000000000
6.104325491000,-0.069000000000
6.112012752000,-0.066000000000
6.119700013000,-0.064000000000
6.127387274000,-0.061000000000
6.135074535000,-0.061000000000
6.142761796000,-0.066000000000
6.150449057000,-0.078000000000
6.158136318000,-0.088000000000
6.165823579000,0.041000000000
6.173510840000,0.451000000000
6.181198101000,0.798000000000
6.188885362000,0.525000000000
6.196572623000,-0.152000000000
6.204259884000,-0.451000000000
6.211947145000,-0.286000000000
6.219634406000,-0.192000000000
6.227321667000,-0.202000000000
6.235008928000,-0.115000000000
6.242696189000,-0.056000000000
6.250383450000,-0.071000000000
6.258070711000,-0.061000000000
6.265757972000,-0.041000000000
6.273445233000,-0.041000000000
6.281132494000,-0.036000000000
6.288819755000,-0.027000000000
6.296507016000,-0.029000000000
6.304194277000,-0.027000000000
6.311881538000,-0.014000000000
6.319568799000,-0.007000000000
6.327256076000,-0.009000000000
6.334944243000,-0.004000000000
6.342632410000,0.004000000000
6.350320577000,0.012000000000
6.358008744000,0.017000000000
6.365696911000,0.027000000000
6.373385078000,0.036000000000
6.381073245000,0.049000000000
6.388761412000,0.061000000000
6.396449579000,0.071000000000
6.404137746000,0.086000000000
6.411825913000,0.096000000000
6.419514080000,0.106000000000
6.427202247000,0.113000000000
6.434890414000,0.118000000000
6.442578581000,0.115000000000
6.450266748000,0.110000000000
6.457954915000,0.101000000000
6.465643082000,0.073000000000
6.473331249000,0.032000000000
6.481019416000,-0.014000000000
6.488707583000,-0.056000000000
6.496395750000,-0.091000000000
6.504083917000,-0.118000000000
6.511772084000,-0.130000000000
6.519460251000,-0.135000000000
6.527148418000,-0.140000000000
6.534836585000,-0.147000000000
6.542524752000,-0.145000000000
6.550212919000,-0.133000000000
6.557901086000,-0.128000000000
6.565589253000,-0.125000000000
6.573277420000,-0.110000000000
6.580965587000,-0.108000000000
6.588653754000,-0.113000000000
6.596341921000,-0.110000000000
6.604030088000,-0.103000000000
6.611718255000,-0.103000000000
6.619406422000,-0.103000000000
6.627094589000,-0.098000000000
6.634782756000,-0.101000000000
6.642470923000,-0.110000000000
6.650159090000,-0.110000000000
6.657847257000,-0.103000000000
6.665535424000,-0.101000000000
6.673223591000,-0.098000000000
6.680911758000,-0.106000000000
6.688599925000,-0.113000000000
6.696288092000,-0.108000000000
6.703976259000,-0.103000000000
6.711664426000,-0.106000000000
6.719352593000,-0.113000000000
6.727040760000,-0.108000000000
6.734728927000,-0.096000000000
6.742417094000,-0.096000000000
6.750105261000,-0.103000000000
6.757793428000,-0.098000000000
6.765481595000,-0.093000000000
6.773169762000,-0.096000000000
6.780857929000,-0.091000000000
6.788546096000,-0.083000000000
6.796234263000,-0.088000000000
6.803922430000,-0.088000000000
6.811610597000,-0.078000000000
6.819298764000,-0.078000000000
6.826986931000,-0.083000000000
6.834675098000,-0.078000000000
6.842363265000,-0.076000000000
6.850051432000,-0.083000000000
6.857739599000,-0.091000000000
6.865427766000,-0.086000000000
6.873115933000,-0.078000000000
6.880804100000,-0.071000000000
6.888492270000,-0.064000000000
6.896180297000,-0.056000000000
6.903868324000,-0.044000000000
6.911556351000,-0.032000000000
6.919244378000,-0.039000000000
6.926932405000,-0.061000000000
6.934620432000,-0.069000000000
6.942308459000,-0.071000000000
6.949996486000,-0.076000000000
6.957684513000,-0.066000000000
6.965372540000,-0.056000000000
6.973060567000,-0.069000000000
6.980748594000,-0.076000000000
6.988436621000,-0.078000000000
6.996124648000,-0.036000000000
7.003812675000,0.214000000000
7.011500702000,0.658000000000
7.019188729000,0.734000000000
7.026876756000,0.125000000000
7.034564783000,-0.461000000000
7.042252810000,-0.438000000000
7.049940837000,-0.246000000000
7.057628864000,-0.246000000000
7.065316891000,-0.199000000000
7.073004918000,-0.076000000000
7.080692945000,-0.059000000000
7.088380972000,-0.073000000000
7.096068999000,-0.044000000000
7.103757026000,-0.027000000000
7.111445053000,-0.034000000000
7.119133080000,-0.027000000000
7.126821107000,-0.019000000000
7.134509134000,-0.017000000000
7.142197161000,-0.009000000000
7.149885188000,-0.007000000000
7.157573215000,-0.009000000000
7.165261242000,0.004000000000
7.172949269000,0.017000000000
7.180637296000,0.019000000000
7.188325323000,0.032000000000
7.196013350000,0.049000000000
7.203701377000,0.051000000000
7.211389404000,0.064000000000
7.219077431000,0.086000000000
7.226765458000,0.098000000000
7.234453485000,0.110000000000
7.242141512000,0.123000000000
7.249829539000,0.133000000000
7.257517566000,0.147000000000
7.265205593000,0.150000000000
7.272893620000,0.143000000000
7.280581647000,0.143000000000
7.288269674000,0.130000000000
7.295957701000,0.101000000000
7.303645728000,0.066000000000
7.311333755000,0.022000000000
7.319021782000,-0.032000000000
7.326709809000,-0.083000000000
7.334397836000,-0.115000000000
7.342085863000,-0.130000000000
7.349773890000,-0.143000000000
7.357461917000,-0.155000000000
7.365149944000,-0.162000000000
7.372837971000,-0.162000000000
7.380525998000,-0.155000000000
7.388214025000,-0.145000000000
7.395902052000,-0.133000000000
7.403590079000,-0.128000000000
7.411278106000,-0.130000000000
7.418966133000,-0.120000000000
7.426654160000,-0.108000000000
7.434342187000,-0.106000000000
7.442030214000,-0.110000000000
7.449718290000,-0.103000000000
7.457406317000,-0.088000000000
7.465094344000,-0.091000000000
7.472782371000,-0.101000000000
7.480470398000,-0.098000000000
7.488158425000,-0.098000000000
7.495846452000,-0.103000000000
7.503534479000,-0.101000000000
7.511222506000,-0.098000000000
7.518910533000,-0.103000000000
7.526598560000,-0.103000000000
7.534286587000,-0.101000000000
7.541974614000,-0.106000000000
7.549662641000,-0.106000000000
7.557350668000,-0.098000000000
7.565038695000,-0.098000000000
7.572726722000,-0.098000000000
7.580414749000,-0.093000000000
7.588102776000,-0.091000000000
7.595790803000,-0.093000000000
7.603478830000,-0.096000000000
7.611166857000,-0.096000000000
7.618854884000,-0.093000000000
7.626542911000,-0.093000000000
7.634230938000,-0.096000000000
7.641918965000,-0.093000000000
7.649606992000,-0.078000000000
7.657295019000,-0.064000000000
7.664983046000,-0.059000000000
7.672671073000,-0.054000000000
7.680359100000,-0.041000000000
7.688047127000,-0.051000000000
7.695735154000,-0.073000000000
7.703423181000,-0.071000000000
7.711111208000,-0.064000000000
7.718799235000,-0.073000000000
7.726487262000,-0.076000000000
7.734175289000,-0.064000000000
7.741863316000,-0.064000000000
7.749551343000,-0.078000000000
7.757239370000,-0.103000000000
7.764927397000,-0.046000000000
7.772615424000,0.273000000000
7.780303451000,0.727000000000
7.787991478000,0.712000000000
7.795679505000,0.056000000000
7.803367532000,-0.470000000000
7.811055559000,-0.394000000000
7.818743586000,-0.214000000000
7.826431613000,-0.224000000000
7.834119640000,-0.160000000000
7.841807667000,-0.054000000000
7.849495694000,-0.056000000000
7.857183721000,-0.066000000000
7.864871748000,-0.036000000000
7.872559775000,-0.029000000000
7.880247802000,-0.036000000000
7.887935829000,-0.024000000000
7.895623856000,-0.014000000000
7.903311883000,-0.014000000000
7.910999910000,-0.014000000000
7.918687937000,-0.002000000000
7.926375964000,0.000000000000
7.934063991000,0.002000000000
7.941752018000,0.009000000000
7.949440045000,0.017000000000
7.957128072000,0.022000000000
7.964816099000,0.032000000000
7.972504126000,0.041000000000
7.980192153000,0.054000000000
7.987880180000,0.069000000000
7.995568207000,0.083000000000
8.003256234000,0.096000000000
8.010944310000,0.110000000000
8.018632337000,0.123000000000
8.026320364000,0.130000000000
8.034008391000,0.135000000000
8.041696418000,0.135000000000
8.049384445000,0.130000000000
8.057072472000,0.115000000000
8.064760499000,0.088000000000
8.072448526000,0.054000000000
8.080136553000,0.004000000000
8.087824580000,-0.044000000000
8.095512607000,-0.081000000000
8.103200634000,-0.108000000000
8.110888661000,-0.130000000000
8.118576688000,-0.143000000000
8.126264715000,-0.145000000000
8.133952742000,-0.147000000000
8.141640769000,-0.143000000000
8.149328796000,-0.133000000000
8.157016823000,-0.125000000000
8.164704850000,-0.120000000000
8.172392877000,-0.118000000000
8.180080904000,-0.115000000000
8.187768931000,-0.110000000000
8.195456958000,-0.106000000000
8.203144985000,-0.101000000000
8.210833012000,-0.098000000000
8.218521039000,-0.098000000000
8.226209066000,-0.096000000000
8.233897093000,-0.091000000000
8.241585120000,-0.091000000000
8.249273147000,-0.098000000000
8.256961174000,-0.098000000000
8.264649201000,-0.093000000000
8.272337228000,-0.093000000000
8.280025255000,-0.096000000000
8.287713282000,-0.096000000000
8.295401309000,-0.096000000000
8.303089336000,-0.093000000000
8.310777363000,-0.088000000000
8.318465390000,-0.091000000000
8.326153417000,-0.093000000000
8.333841444000,-0.091000000000
8.341529471000,-0.091000000000
8.349217498000,-0.093000000000
8.356905525000,-0.088000000000
8.364593552000,-0.081000000000
8.372281579000,-0.081000000000
8.379969606000,-0.081000000000
8.387657633000,-0.078000000000
8.395345660000,-0.076000000000
8.403033687000,-0.083000000000
8.410721714000,-0.083000000000
8.418409741000,-0.078000000000
8.426097768000,-0.086000000000
8.433785795000,-0.088000000000
8.441473822000,-0.076000000000
8.449161849000,-0.061000000000
8.456849876000,-0.049000000000
8.464537903000,-0.044000000000
8.472225930000,-0.039000000000
8.479913957000,-0.039000000000
8.487601984000,-0.054000000000
8.495290011000,-0.064000000000
8.502978038000,-0.064000000000
8.510666065000,-0.064000000000
8.518354092000,-0.064000000000
8.526042119000,-0.061000000000
8.533730146000,-0.059000000000
8.541418173000,-0.066000000000
8.549106200000,-0.086000000000
8.556794227000,-0.093000000000
8.564482254000,0.056000000000
8.572170330000,0.485000000000
8.579858287000,0.835000000000
8.587546244000,0.559000000000
8.595234201000,-0.120000000000
8.602922158000,-0.421000000000
8.610610115000,-0.263000000000
8.618298072000,-0.175000000000
8.625986029000,-0.189000000000
8.633673986000,-0.110000000000
8.641361943000,-0.064000000000
8.649049900000,-0.091000000000
8.656737857000,-0.076000000000
8.664425814000,-0.046000000000
8.672113771000,-0.051000000000
8.679801728000,-0.054000000000
8.687489685000,-0.041000000000
8.695177642000,-0.032000000000
8.702865599000,-0.022000000000
8.710553556000,-0.017000000000
8.718241513000,-0.022000000000
8.725929470000,-0.024000000000
8.733617427000,-0.017000000000
8.741305384000,-0.002000000000
8.748993341000,0.007000000000
8.756681298000,0.012000000000
8.764369255000,0.024000000000
8.772057212000,0.036000000000
8.779745169000,0.046000000000
8.787433126000,0.061000000000
8.795121083000,0.076000000000
8.802809040000,0.083000000000
8.810496997000,0.096000000000
8.818184954000,0.110000000000
8.825872911000,0.120000000000
8.833560868000,0.120000000000
8.841248825000,0.120000000000
8.848936782000,0.123000000000
8.856624739000,0.106000000000
8.864312696000,0.069000000000
8.872000653000,0.029000000000
8.879688610000,-0.012000000000
8.887376567000,-0.054000000000
8.895064524000,-0.096000000000
8.902752481000,-0.120000000000
8.910440438000,-0.133000000000
8.918128395000,-0.140000000000
8.925816352000,-0.143000000000
8.933504309000,-0.140000000000
8.941192266000,-0.133000000000
8.948880223000,-0.125000000000
8.956568180000,-0.125000000000
8.964256137000,-0.123000000000
8.971944094000,-0.115000000000
8.979632051000,-0.110000000000
8.987320008000,-0.106000000000
8.995007965000,-0.106000000000
9.002695922000,-0.106000000000
9.010383879000,-0.103000000000
9.018071836000,-0.096000000000
9.025759793000,-0.096000000000
9.033447750000,-0.103000000000
9.041135707000,-0.098000000000
9.048823664000,-0.091000000000
9.056511621000,-0.093000000000
9.064199578000,-0.096000000000
9.071887535000,-0.091000000000
9.079575492000,-0.093000000000
9.087263449000,-0.096000000000
9.094951406000,-0.096000000000
9.102639363000,-0.096000000000
9.110327320000,-0.093000000000
9.118015277000,-0.091000000000
9.125703234000,-0.091000000000
9.133391263000,-0.083000000000
9.141079360000,-0.081000000000
9.148767457000,-0.088000000000
9.156455554000,-0.088000000000
9.164143651000,-0.081000000000
9.171831748000,-0.081000000000
9.179519845000,-0.083000000000
9.187207942000,-0.081000000000
9.194896039000,-0.076000000000
9.202584136000,-0.073000000000
9.210272233000,-0.073000000000
9.217960330000,-0.071000000000
9.225648427000,-0.076000000000
9.233336524000,-0.076000000000
9.241024621000,-0.071000000000
9.248712718000,-0.066000000000
9.256400815000,-0.059000000000
9.264088912000,-0.059000000000
9.271777009000,-0.061000000000
9.279465106000,-0.064000000000
9.287153203000,-0.064000000000
9.294841300000,-0.064000000000
9.302529397000,-0.071000000000
9.310217494000,-0.078000000000
9.317905591000,-0.078000000000
9.325593688000,-0.069000000000
9.333281785000,-0.064000000000
9.340969882000,-0.051000000000
9.348657979000,-0.041000000000
9.356346076000,-0.036000000000
9.364034173000,-0.027000000000
9.371722270000,-0.024000000000
9.379410367000,-0.046000000000
9.387098464000,-0.061000000000
9.394786561000,-0.056000000000
9.402474658000,-0.046000000000
9.410162755000,-0.049000000000
9.417850852000,-0.054000000000
9.425538949000,-0.051000000000
9.433227046000,-0.054000000000
9.440915143000,-0.076000000000
9.448603240000,-0.093000000000
9.456291337000,0.054000000000
9.463979434000,0.483000000000
9.471667531000,0.833000000000
9.479355628000,0.581000000000
9.487043725000,-0.076000000000
9.494731822000,-0.394000000000
9.502419919000,-0.258000000000
9.510108016000,-0.170000000000
9.517796113000,-0.184000000000
9.525484210000,-0.113000000000
9.533172307000,-0.061000000000
9.540860404000,-0.078000000000
9.548548501000,-0.073000000000
9.556236598000,-0.056000000000
9.563924695000,-0.054000000000
9.571612792000,-0.044000000000
9.579300889000,-0.032000000000
9.586988986000,-0.034000000000
9.594677083000,-0.034000000000
9.602365180000,-0.027000000000
9.610053277000,-0.024000000000
9.617741374000,-0.017000000000
9.625429471000,-0.007000000000
9.633117568000,-0.002000000000
9.640805665000,0.002000000000
9.648493762000,0.009000000000
9.656181859000,0.017000000000
9.663869956000,0.024000000000
9.671558053000,0.036000000000
9.679246150000,0.049000000000
9.686934247000,0.061000000000
9.694622370000,0.076000000000
9.702310397000,0.088000000000
9.709998424000,0.096000000000
9.717686451000,0.098000000000
9.725374478000,0.106000000000
9.733062505000,0.113000000000
9.740750532000,0.113000000000
9.748438559000,0.106000000000
9.756126586000,0.083000000000
9.763814613000,0.044000000000
9.771502640000,0.002000000000
9.779190667000,-0.036000000000
9.786878694000,-0.073000000000
9.794566721000,-0.106000000000
9.802254748000,-0.123000000000
9.809942775000,-0.135000000000
9.817630802000,-0.138000000000
9.825318829000,-0.133000000000
9.833006856000,-0.125000000000
9.840694883000,-0.123000000000
9.848382910000,-0.120000000000
9.856070937000,-0.118000000000
9.863758964000,-0.115000000000
9.871446991000,-0.108000000000
9.879135018000,-0.108000000000
9.886823045000,-0.108000000000
9.894511072000,-0.103000000000
9.902199099000,-0.098000000000
9.909887126000,-0.098000000000
9.917575153000,-0.096000000000
9.925263180000,-0.091000000000
9.932951207000,-0.088000000000
9.940639234000,-0.093000000000
9.948327261000,-0.098000000000
9.956015288000,-0.096000000000
9.963703315000,-0.091000000000
9.971391342000,-0.096000000000
9.979079369000,-0.103000000000
9.986767396000,-0.101000000000
9.994455423000,-0.093000000000
10.002143450000,-0.088000000000
10.009831477000,-0.093000000000
10.017519504000,-0.096000000000
10.025207531000,-0.091000000000
10.032895558000,-0.086000000000
10.040583585000,-0.091000000000
10.048271612000,-0.091000000000
10.055959639000,-0.083000000000
10.063647666000,-0.081000000000
10.071335693000,-0.086000000000
10.079023720000,-0.083000000000
10.086711747000,-0.083000000000
10.094399774000,-0.086000000000
10.102087801000,-0.078000000000
10.109775828000,-0.073000000000
10.117463855000,-0.076000000000
10.125151882000,-0.076000000000
10.132839909000,-0.069000000000
10.140527936000,-0.069000000000
10.148215963000,-0.076000000000
10.155903990000,-0.073000000000
10.163592017000,-0.069000000000
10.171280044000,-0.066000000000
10.178968071000,-0.069000000000
10.186656098000,-0.076000000000
10.194344125000,-0.083000000000
10.202032152000,-0.081000000000
10.209720179000,-0.069000000000
10.217408206000,-0.056000000000
10.225096233000,-0.051000000000
10.232784260000,-0.046000000000
10.240472287000,-0.036000000000
10.248160314000,-0.034000000000
10.255848390000,-0.049000000000
10.263536417000,-0.061000000000
10.271224444000,-0.064000000000
10.278912471000,-0.066000000000
10.286600498000,-0.064000000000
10.294288525000,-0.056000000000
10.301976552000,-0.059000000000
10.309664579000,-0.069000000000
10.317352606000,-0.086000000000
10.325040633000,-0.091000000000
10.332728660000,0.061000000000
10.340416687000,0.485000000000
10.348104714000,0.796000000000
10.355792741000,0.458000000000
10.363480768000,-0.226000000000
10.371168795000,-0.473000000000
10.378856822000,-0.286000000000
10.386544849000,-0.194000000000
10.394232876000,-0.207000000000
10.401920903000,-0.118000000000
10.409608930000,-0.056000000000
10.417296957000,-0.073000000000
10.424984984000,-0.064000000000
10.432673011000,-0.036000000000
10.440361038000,-0.036000000000
10.448049065000,-0.036000000000
10.455737092000,-0.029000000000
10.463425119000,-0.027000000000
10.471113146000,-0.024000000000
10.478801173000,-0.012000000000
10.486489200000,0.000000000000
10.494177227000,0.004000000000
10.501865254000,0.007000000000
10.509553281000,0.012000000000
10.517241308000,0.014000000000
10.524929335000,0.029000000000
10.532617362000,0.049000000000
10.540305389000,0.059000000000
10.547993416000,0.069000000000
10.555681443000,0.088000000000
10.563369470000,0.108000000000
10.571057497000,0.123000000000
10.578745524000,0.133000000000
10.586433551000,0.140000000000
10.594121578000,0.140000000000
10.601809605000,0.140000000000
10.609497632000,0.145000000000
10.617185659000,0.140000000000
10.624873686000,0.123000000000
10.632561713000,0.091000000000
10.640249740000,0.049000000000
10.647937767000,0.004000000000
10.655625794000,-0.039000000000
10.663313821000,-0.083000000000
10.671001848000,-0.110000000000
10.678689875000,-0.123000000000
10.686377902000,-0.135000000000
10.694065929000,-0.145000000000
10.701753956000,-0.145000000000
10.709441983000,-0.140000000000
10.717130010000,-0.135000000000
10.724818037000,-0.128000000000
10.732506064000,-0.120000000000
10.740194091000,-0.115000000000
10.747882118000,-0.103000000000
10.755570145000,-0.091000000000
10.763258172000,-0.083000000000
10.770946199000,-0.083000000000
10.778634226000,-0.086000000000
10.786322253000,-0.083000000000
10.794010280000,-0.073000000000
10.801698307000,-0.073000000000
10.809386334000,-0.083000000000
10.817074410000,-0.071000000000
10.824762437000,-0.056000000000
10.832450464000,-0.069000000000
10.840138491000,-0.081000000000
10.847826518000,-0.073000000000
10.855514545000,-0.073000000000
10.863202572000,-0.076000000000
10.870890599000,-0.071000000000
10.878578626000,-0.073000000000
10.886266653000,-0.066000000000
10.893954680000,-0.051000000000
10.901642707000,-0.059000000000
10.909330734000,-0.061000000000
10.917018761000,-0.054000000000
10.924706788000,-0.054000000000
10.932394815000,-0.051000000000
10.940082842000,-0.046000000000
10.947770869000,-0.051000000000
10.955458896000,-0.054000000000
10.963146923000,-0.049000000000
10.970834950000,-0.044000000000
10.978522977000,-0.039000000000
10.986211004000,-0.034000000000
10.993899031000,-0.017000000000
11.001587058000,-0.004000000000
11.009275085000,0.004000000000
11.016963112000,0.009000000000
11.024651139000,0.004000000000
11.032339166000,-0.009000000000
11.040027193000,-0.017000000000
11.047715220000,-0.019000000000
11.055403247000,-0.012000000000
11.063091274000,-0.004000000000
11.070779301000,-0.002000000000
11.078467328000,-0.004000000000
11.086155355000,-0.014000000000
11.093843382000,-0.034000000000
11.101531409000,0.066000000000
11.109219436000,0.456000000000
11.116907463000,0.855000000000
11.124595490000,0.623000000000
11.132283517000,-0.125000000000
11.139971544000,-0.485000000000
11.147659571000,-0.281000000000
11.155347598000,-0.155000000000
11.163035625000,-0.180000000000
11.170723652000,-0.073000000000
11.178411679000,0.029000000000
11.186099706000,0.009000000000
11.193787733000,0.007000000000
11.201475760000,0.046000000000
11.209163787000,0.054000000000
11.216851814000,0.051000000000
11.224539841000,0.064000000000
11.232227868000,0.069000000000
11.239915895000,0.066000000000
11.247603922000,0.078000000000
11.255291949000,0.088000000000
11.262979976000,0.096000000000
11.270668003000,0.103000000000
11.278356030000,0.110000000000
11.286044057000,0.118000000000
11.293732084000,0.128000000000
11.301420111000,0.138000000000
11.309108138000,0.143000000000
11.316796165000,0.157000000000
11.324484192000,0.180000000000
11.332172219000,0.194000000000
11.339860246000,0.212000000000
11.347548273000,0.231000000000
11.355236300000,0.236000000000
11.362924327000,0.239000000000
11.370612354000,0.246000000000
11.378300430000,0.249000000000
11.385988457000,0.239000000000
11.393676484000,0.219000000000
11.401364511000,0.184000000000
11.409052538000,0.133000000000
11.416740565000,0.078000000000
11.424428592000,0.034000000000
11.432116619000,-0.002000000000
11.439804646000,-0.032000000000
11.447492673000,-0.049000000000
11.455180700000,-0.056000000000
11.462868727000,-0.061000000000
11.470556754000,-0.059000000000
11.478244781000,-0.054000000000
11.485932808000,-0.054000000000
11.493620835000,-0.051000000000
11.501308862000,-0.041000000000
11.508996889000,-0.034000000000
11.516684916000,-0.032000000000
11.524372943000,-0.024000000000
11.532060970000,-0.012000000000
11.539748997000,-0.009000000000
11.547437024000,-0.012000000000
11.555125051000,-0.009000000000
11.562813078000,-0.004000000000
11.570501105000,-0.004000000000
11.578189132000,-0.007000000000
11.585877159000,-0.009000000000
11.593565186000,-0.012000000000
11.601253213000,-0.014000000000
11.608941240000,-0.014000000000
11.616629267000,-0.014000000000
11.624317294000,-0.014000000000
11.632005321000,-0.017000000000
11.639693348000,-0.019000000000
11.647381375000,-0.019000000000
11.655069402000,-0.017000000000
11.662757429000,-0.014000000000
11.670445456000,-0.012000000000
11.678133483000,-0.012000000000
11.685821510000,-0.014000000000
11.693509537000,-0.019000000000
11.701197564000,-0.017000000000
11.708885591000,-0.012000000000
11.716573618000,-0.017000000000
11.724261645000,-0.022000000000
11.731949672000,-0.022000000000
11.739637699000,-0.029000000000
11.747325726000,-0.032000000000
11.755013753000,-0.019000000000
11.762701780000,-0.004000000000
11.770389807000,0.002000000000
11.778077834000,0.009000000000
11.785765861000,0.019000000000
11.793453888000,0.017000000000
11.801141915000,-0.002000000000
11.808829942000,-0.012000000000
11.816517969000,-0.004000000000
11.824205996000,-0.007000000000
11.831894023000,-0.012000000000
11.839582050000,-0.014000000000
11.847270077000,-0.017000000000
11.854958104000,-0.019000000000
11.862646131000,-0.027000000000
11.870334158000,-0.056000000000
11.878022185000,0.024000000000
11.885710212000,0.401000000000
11.893398239000,0.855000000000
11.901086266000,0.784000000000
11.908774293000,0.120000000000
11.916462320000,-0.357000000000
11.924150347000,-0.266000000000
11.931838374000,-0.128000000000
11.939526450000,-0.160000000000
11.947214477000,-0.101000000000
11.954902504000,-0.022000000000
11.962590531000,-0.039000000000
11.970278558000,-0.044000000000
11.977966585000,-0.012000000000
11.985654612000,-0.009000000000
11.993342639000,-0.017000000000
12.001030666000,-0.007000000000
12.008718693000,0.002000000000
12.016406720000,0.002000000000
12.024094747000,0.002000000000
12.031782774000,0.009000000000
12.039470801000,0.017000000000
12.047158828000,0.019000000000
12.054846855000,0.019000000000
12.062534882000,0.029000000000
12.070222909000,0.041000000000
12.077910936000,0.044000000000
12.085598963000,0.046000000000
12.093286990000,0.064000000000
12.100975017000,0.086000000000
12.108663044000,0.101000000000
12.116351071000,0.108000000000
12.124039098000,0.123000000000
12.131727125000,0.133000000000
12.139415152000,0.138000000000
12.147103179000,0.145000000000
12.154791206000,0.152000000000
12.162479233000,0.152000000000
12.170167260000,0.135000000000
12.177855287000,0.101000000000
12.185543314000,0.061000000000
12.193231341000,0.022000000000
12.200919368000,-0.019000000000
12.208607395000,-0.059000000000
12.216295422000,-0.088000000000
12.223983449000,-0.108000000000
12.231671476000,-0.120000000000
12.239359503000,-0.120000000000
12.247047530000,-0.115000000000
12.254735557000,-0.113000000000
12.262423584000,-0.113000000000
12.270111611000,-0.108000000000
12.277799638000,-0.103000000000
12.285487665000,-0.103000000000
12.293175692000,-0.098000000000
12.300863719000,-0.091000000000
12.308551746000,-0.088000000000
12.316239773000,-0.096000000000
12.323927800000,-0.093000000000
12.331615827000,-0.086000000000
12.339303854000,-0.081000000000
12.346991881000,-0.083000000000
12.354679908000,-0.083000000000
12.362367935000,-0.081000000000
12.370055962000,-0.083000000000
12.377743989000,-0.093000000000
12.385432016000,-0.091000000000
12.393120043000,-0.083000000000
12.400808070000,-0.086000000000
12.408496097000,-0.091000000000
12.416184124000,-0.086000000000
12.423872151000,-0.083000000000
12.431560178000,-0.086000000000
12.439248205000,-0.086000000000
12.446936232000,-0.086000000000
12.454624259000,-0.083000000000
12.462312286000,-0.081000000000
12.470000313000,-0.081000000000
12.477688340000,-0.081000000000
12.485376367000,-0.081000000000
12.493064394000,-0.088000000000
12.500752470000,-0.091000000000
12.508440497000,-0.083000000000
12.516128524000,-0.078000000000
12.523816551000,-0.073000000000
12.531504578000,-0.061000000000
12.539192605000,-0.051000000000
12.546880632000,-0.041000000000
12.554568659000,-0.036000000000
12.562256686000,-0.051000000000
12.569944713000,-0.066000000000
12.577632740000,-0.069000000000
12.585320767000,-0.073000000000
12.593008794000,-0.073000000000
12.600696821000,-0.073000000000
12.608384848000,-0.071000000000
12.616072875000,-0.071000000000
12.623760902000,-0.078000000000
12.631448929000,-0.110000000000
12.639136956000,-0.051000000000
12.646824983000,0.290000000000
12.654513010000,0.754000000000
12.662201037000,0.739000000000
12.669889064000,0.103000000000
12.677577091000,-0.411000000000
12.685265118000,-0.357000000000
12.692953145000,-0.202000000000
12.700641172000,-0.209000000000
12.708329199000,-0.157000000000
12.716017226000,-0.071000000000
12.723705253000,-0.083000000000
12.731393280000,-0.093000000000
12.739081307000,-0.064000000000
12.746769334000,-0.054000000000
12.754457361000,-0.059000000000
12.762145388000,-0.051000000000
12.769833415000,-0.041000000000
12.777521442000,-0.039000000000
12.785209469000,-0.036000000000
12.792897496000,-0.032000000000
12.800585523000,-0.027000000000
12.808273550000,-0.017000000000
12.815961577000,-0.009000000000
12.823649604000,-0.007000000000
12.831337631000,0.000000000000
12.839025658000,0.009000000000
12.846713685000,0.019000000000
12.854401712000,0.032000000000
12.862089739000,0.046000000000
12.869777766000,0.066000000000
12.877465793000,0.086000000000
12.885153820000,0.098000000000
12.892841847000,0.110000000000
12.900529874000,0.118000000000
12.908217901000,0.120000000000
12.915905928000,0.123000000000
12.923593955000,0.123000000000
12.931281982000,0.108000000000
12.938970009000,0.078000000000
12.946658036000,0.029000000000
12.954346063000,-0.027000000000
12.962034090000,-0.071000000000
12.969722117000,-0.101000000000
12.977410144000,-0.128000000000
12.985098171000,-0.150000000000
12.992786198000,-0.160000000000
13.000474225000,-0.165000000000
13.008162252000,-0.165000000000
13.015850279000,-0.162000000000
13.023538306000,-0.152000000000
13.031226333000,-0.145000000000
13.038914360000,-0.143000000000
13.046602387000,-0.140000000000
13.054290414000,-0.135000000000
13.061978490000,-0.135000000000
13.069666517000,-0.133000000000
13.077354544000,-0.125000000000
13.085042571000,-0.118000000000
13.092730598000,-0.120000000000
13.100418625000,-0.120000000000
13.108106652000,-0.118000000000
13.115794679000,-0.120000000000
13.123482706000,-0.120000000000
13.131170733000,-0.115000000000
13.138858760000,-0.118000000000
13.146546787000,-0.128000000000
13.154234814000,-0.125000000000
13.161922841000,-0.120000000000
13.169610868000,-0.123000000000
13.177298895000,-0.123000000000
13.184986922000,-0.118000000000
13.192674949000,-0.115000000000
13.200362976000,-0.118000000000
13.208051003000,-0.113000000000
13.215739030000,-0.110000000000
13.223427057000,-0.120000000000
13.231115084000,-0.118000000000
13.238803111000,-0.108000000000
13.246491138000,-0.108000000000
13.254179165000,-0.110000000000
13.261867192000,-0.106000000000
13.269555219000,-0.103000000000
13.277243246000,-0.103000000000
13.284931273000,-0.101000000000
13.292619300000,-0.101000000000
13.300307327000,-0.103000000000
13.307995354000,-0.106000000000
13.315683381000,-0.110000000000
13.323371408000,-0.113000000000
13.331059435000,-0.106000000000
13.338747462000,-0.093000000000
13.346435489000,-0.081000000000
13.354123516000,-0.071000000000
13.361811543000,-0.061000000000
13.369499570000,-0.054000000000
13.377187597000,-0.064000000000
13.384875624000,-0.083000000000
13.392563651000,-0.091000000000
13.400251678000,-0.091000000000
13.407939705000,-0.093000000000
13.415627732000,-0.091000000000
13.423315759000,-0.086000000000
13.431003786000,-0.083000000000
13.438691813000,-0.086000000000
13.446379840000,-0.113000000000
13.454067867000,-0.093000000000
13.461755894000,0.152000000000
13.469443921000,0.616000000000
13.477131948000,0.764000000000
13.484819975000,0.234000000000
13.492508002000,-0.389000000000
13.500196029000,-0.451000000000
13.507884056000,-0.253000000000
13.515572083000,-0.241000000000
13.523260110000,-0.219000000000
13.530948137000,-0.103000000000
13.538636164000,-0.081000000000
13.546324191000,-0.101000000000
13.554012218000,-0.073000000000
13.561700245000,-0.056000000000
13.569388272000,-0.064000000000
13.577076299000,-0.054000000000
13.584764326000,-0.041000000000
13.592452353000,-0.041000000000
13.600140380000,-0.041000000000
13.607828407000,-0.034000000000
13.615516434000,-0.024000000000
13.623204510000,-0.014000000000
13.630892537000,-0.009000000000
13.638580564000,0.000000000000
13.646268591000,0.012000000000
13.653956618000,0.017000000000
13.661644645000,0.024000000000
13.669332672000,0.034000000000
13.677020699000,0.049000000000
13.684708726000,0.073000000000
13.692396753000,0.101000000000
13.700084780000,0.113000000000
13.707772807000,0.125000000000
13.715460834000,0.135000000000
13.723148861000,0.133000000000
13.730836888000,0.125000000000
13.738524915000,0.125000000000
13.746212942000,0.118000000000
13.753900969000,0.091000000000
13.761588996000,0.051000000000
13.769277023000,0.004000000000
13.776965050000,-0.039000000000
13.784653077000,-0.081000000000
13.792341104000,-0.123000000000
13.800029131000,-0.152000000000
13.807717158000,-0.162000000000
13.815405185000,-0.167000000000
13.823093212000,-0.170000000000
13.830781239000,-0.167000000000
13.838469266000,-0.165000000000
13.846157293000,-0.162000000000
13.853845320000,-0.145000000000
13.861533347000,-0.133000000000
13.869221374000,-0.135000000000
13.876909401000,-0.133000000000
13.884597428000,-0.123000000000
13.892285455000,-0.120000000000
13.899973482000,-0.120000000000
13.907661509000,-0.115000000000
13.915349536000,-0.113000000000
13.923037563000,-0.110000000000
13.930725590000,-0.110000000000
13.938413617000,-0.113000000000
13.946101644000,-0.115000000000
13.953789671000,-0.108000000000
13.961477698000,-0.103000000000
13.969165725000,-0.110000000000
13.976853752000,-0.113000000000
13.984541779000,-0.110000000000
13.992229806000,-0.110000000000
13.999917833000,-0.113000000000
14.007605860000,-0.108000000000
14.015293887000,-0.101000000000
14.022981914000,-0.106000000000
14.030669941000,-0.110000000000
14.038357968000,-0.103000000000
14.046045995000,-0.098000000000
14.053734022000,-0.103000000000
14.061422049000,-0.101000000000
14.069110076000,-0.093000000000
14.076798103000,-0.088000000000
14.084486130000,-0.091000000000
14.092174157000,-0.101000000000
14.099862184000,-0.103000000000
14.107550211000,-0.098000000000
14.115238238000,-0.093000000000
14.122926265000,-0.086000000000
14.130614292000,-0.071000000000
14.138302319000,-0.056000000000
14.145990346000,-0.051000000000
14.153678373000,-0.049000000000
14.161366400000,-0.051000000000
14.169054427000,-0.066000000000
14.176742454000,-0.073000000000
14.184430530000,-0.073000000000
14.192118557000,-0.069000000000
14.199806584000,-0.069000000000
14.207494611000,-0.071000000000
14.215182638000,-0.066000000000
14.222870665000,-0.071000000000
14.230558692000,-0.101000000000
14.238246719000,-0.083000000000
14.245934746000,0.180000000000
14.253622773000,0.653000000000
14.261310800000,0.779000000000
14.268998827000,0.224000000000
14.276686854000,-0.394000000000
14.284374881000,-0.433000000000
14.292062908000,-0.231000000000
14.299750935000,-0.214000000000
14.307438962000,-0.187000000000
14.315126989000,-0.078000000000
14.322815016000,-0.061000000000
14.330503043000,-0.081000000000
14.338191070000,-0.051000000000
14.345879097000,-0.034000000000
14.353567124000,-0.049000000000
14.361255151000,-0.041000000000
14.368943178000,-0.022000000000
14.376631205000,-0.024000000000
14.384319232000,-0.027000000000
14.392007259000,-0.017000000000
14.399695286000,-0.007000000000
14.407383313000,-0.004000000000
14.415071340000,-0.002000000000
14.422759367000,0.009000000000
14.430447394000,0.022000000000
14.438135421000,0.027000000000
14.445823448000,0.036000000000
14.453511475000,0.049000000000
14.461199502000,0.061000000000
14.468887529000,0.078000000000
14.476575556000,0.098000000000
14.484263583000,0.110000000000
14.491951610000,0.120000000000
14.499639637000,0.130000000000
14.507327664000,0.140000000000
14.515015691000,0.143000000000
14.522703718000,0.145000000000
14.530391745000,0.135000000000
14.538079772000,0.101000000000
14.545767799000,0.051000000000
14.553455826000,0.007000000000
14.561143853000,-0.032000000000
14.568831880000,-0.076000000000
14.576519907000,-0.108000000000
14.584207934000,-0.128000000000
14.591895961000,-0.145000000000
14.599583988000,-0.152000000000
14.607272015000,-0.147000000000
14.614960042000,-0.140000000000
14.622648069000,-0.140000000000
14.630336096000,-0.140000000000
14.638024123000,-0.135000000000
14.645712150000,-0.123000000000
14.653400177000,-0.115000000000
14.661088204000,-0.115000000000
14.668776231000,-0.115000000000
14.676464258000,-0.108000000000
14.684152285000,-0.108000000000
14.691840312000,-0.108000000000
14.699528339000,-0.103000000000
14.707216366000,-0.101000000000
14.714904393000,-0.096000000000
14.722592420000,-0.093000000000
14.730280447000,-0.101000000000
14.737968474000,-0.103000000000
14.745656550000,-0.098000000000
14.753344577000,-0.101000000000
14.761032604000,-0.103000000000
14.768720631000,-0.103000000000
14.776408658000,-0.103000000000
14.784096685000,-0.106000000000
14.791784712000,-0.098000000000
14.799472739000,-0.093000000000
14.807160766000,-0.098000000000
14.814848793000,-0.096000000000
14.822536820000,-0.093000000000
14.830224847000,-0.093000000000
14.837912874000,-0.093000000000
14.845600901000,-0.091000000000
14.853288928000,-0.086000000000
14.860976955000,-0.086000000000
14.868664982000,-0.088000000000
14.876353009000,-0.081000000000
14.884041036000,-0.076000000000
14.891729063000,-0.086000000000
14.899417090000,-0.091000000000
14.907105117000,-0.083000000000
14.914793144000,-0.086000000000
14.922481171000,-0.091000000000
14.930169198000,-0.081000000000
14.937857225000,-0.069000000000
14.945545252000,-0.056000000000
14.953233279000,-0.049000000000
14.960921306000,-0.039000000000
14.968609333000,-0.034000000000
14.976297360000,-0.049000000000
14.983985387000,-0.064000000000
14.991673414000,-0.061000000000
14.999361441000,-0.064000000000
15.007049468000,-0.069000000000
15.014737495000,-0.066000000000
15.022425522000,-0.061000000000
15.030113549000,-0.059000000000
15.037801576000,-0.069000000000
15.045489603000,-0.096000000000
15.053177630000,-0.032000000000
15.060865657000,0.310000000000
15.068553684000,0.764000000000
15.076241711000,0.734000000000
15.083929738000,0.096000000000
15.091617765000,-0.406000000000
15.099305792000,-0.350000000000
15.106993819000,-0.189000000000
15.114681846000,-0.194000000000
15.122369873000,-0.140000000000
15.130057900000,-0.054000000000
15.137745927000,-0.061000000000
15.145433954000,-0.073000000000
15.153121981000,-0.046000000000
15.160810008000,-0.041000000000
15.168498035000,-0.046000000000
15.176186062000,-0.034000000000
15.183874089000,-0.019000000000
15.191562116000,-0.022000000000
15.199250143000,-0.022000000000
15.206938170000,-0.017000000000
15.214626197000,-0.009000000000
15.222314224000,-0.004000000000
15.230002251000,0.000000000000
15.237690278000,0.004000000000
15.245378305000,0.012000000000
15.253066332000,0.022000000000
15.260754359000,0.034000000000
15.268442386000,0.044000000000
15.276130413000,0.056000000000
15.283818440000,0.073000000000
15.291506467000,0.093000000000
15.299194494000,0.106000000000
15.306882570000,0.118000000000
15.314570597000,0.130000000000
15.322258624000,0.133000000000
15.329946651000,0.135000000000
15.337634678000,0.140000000000
15.345322705000,0.125000000000
15.353010732000,0.093000000000
15.360698759000,0.054000000000
15.368386786000,0.004000000000
15.376074813000,-0.044000000000
15.383762840000,-0.081000000000
15.391450867000,-0.108000000000
15.399138894000,-0.130000000000
15.406826921000,-0.143000000000
15.414514948000,-0.145000000000
15.422202975000,-0.147000000000
15.429891002000,-0.150000000000
15.437579029000,-0.140000000000
15.445267056000,-0.130000000000
15.452955083000,-0.130000000000
15.460643110000,-0.130000000000
15.468331137000,-0.125000000000
15.476019164000,-0.118000000000
15.483707191000,-0.108000000000
15.491395218000,-0.108000000000
15.499083245000,-0.113000000000
15.506771272000,-0.113000000000
15.514459299000,-0.106000000000
15.522147326000,-0.103000000000
15.529835353000,-0.103000000000
15.537523380000,-0.101000000000
15.545211407000,-0.101000000000
15.552899434000,-0.101000000000
15.560587461000,-0.096000000000
15.568275488000,-0.098000000000
15.575963515000,-0.101000000000
15.583651542000,-0.103000000000
15.591339569000,-0.101000000000
15.599027596000,-0.098000000000
15.606715623000,-0.098000000000
15.614403650000,-0.098000000000
15.622091677000,-0.093000000000
15.629779704000,-0.091000000000
15.637467731000,-0.088000000000
15.645155758000,-0.086000000000
15.652843785000,-0.083000000000
15.660531812000,-0.088000000000
15.668219839000,-0.088000000000
15.675907866000,-0.083000000000
15.683595893000,-0.078000000000
15.691283920000,-0.076000000000
15.698971947000,-0.078000000000
15.706659974000,-0.076000000000
15.714348001000,-0.073000000000
15.722036028000,-0.069000000000
15.729724055000,-0.069000000000
15.737412082000,-0.071000000000
15.745100109000,-0.073000000000
15.752788136000,-0.083000000000
15.760476163000,-0.088000000000
15.768164190000,-0.083000000000
15.775852217000,-0.076000000000
15.783540244000,-0.059000000000
15.791228271000,-0.044000000000
15.798916298000,-0.039000000000
15.806604325000,-0.034000000000
15.814292352000,-0.034000000000
15.821980379000,-0.051000000000
15.829668406000,-0.061000000000
15.837356433000,-0.061000000000
15.845044460000,-0.064000000000
15.852732487000,-0.066000000000
15.860420514000,-0.054000000000
15.868108590000,-0.051000000000
15.875796617000,-0.064000000000
15.883484644000,-0.083000000000
15.891172671000,-0.086000000000
15.898860698000,0.086000000000
15.906548725000,0.522000000000
15.914236752000,0.823000000000
15.921924779000,0.480000000000
15.929612806000,-0.192000000000
15.937300833000,-0.436000000000
15.944988860000,-0.261000000000
15.952676887000,-0.187000000000
15.960364914000,-0.199000000000
15.968052941000,-0.110000000000
15.975740968000,-0.064000000000
15.983428995000,-0.086000000000
15.991117022000,-0.076000000000
15.998805049000,-0.056000000000
16.006493076000,-0.059000000000
16.014181103000,-0.056000000000
16.021869130000,-0.039000000000
16.029557157000,-0.034000000000
16.037245184000,-0.036000000000
16.044933211000,-0.034000000000
16.052621238000,-0.024000000000
16.060309265000,-0.017000000000
16.067997292000,-0.012000000000
16.075685319000,-0.004000000000
16.083373346000,0.002000000000
16.091061373000,0.009000000000
16.098749400000,0.017000000000
16.106437427000,0.029000000000
16.114125454000,0.041000000000
16.121813481000,0.059000000000
16.129501508000,0.073000000000
16.137189535000,0.086000000000
16.144877562000,0.098000000000
16.152565589000,0.113000000000
16.160253616000,0.125000000000
16.167941643000,0.135000000000
16.175629670000,0.135000000000
16.183317697000,0.133000000000
16.191005724000,0.120000000000
16.198693751000,0.083000000000
16.206381778000,0.034000000000
16.214069805000,-0.004000000000
16.221757832000,-0.044000000000
16.229445859000,-0.088000000000
16.237133886000,-0.118000000000
16.244821913000,-0.130000000000
16.252509940000,-0.138000000000
16.260197967000,-0.145000000000
16.267885994000,-0.150000000000
16.275574021000,-0.143000000000
16.283262048000,-0.133000000000
16.290950075000,-0.130000000000
16.298638102000,-0.128000000000
16.306326129000,-0.120000000000
16.314014156000,-0.113000000000
16.321702183000,-0.113000000000
16.329390210000,-0.110000000000
16.337078237000,-0.108000000000
16.344766264000,-0.106000000000
16.352454291000,-0.103000000000
16.360142318000,-0.103000000000
16.367830345000,-0.101000000000
16.375518372000,-0.098000000000
16.383206399000,-0.098000000000
16.390894426000,-0.101000000000
16.398582453000,-0.101000000000
16.406270480000,-0.098000000000
16.413958507000,-0.093000000000
16.421646534000,-0.091000000000
16.429334610000,-0.096000000000
16.437022637000,-0.101000000000
16.444710664000,-0.098000000000
16.452398691000,-0.093000000000
16.460086718000,-0.093000000000
16.467774745000,-0.088000000000
16.475462772000,-0.091000000000
16.483150799000,-0.093000000000
16.490838826000,-0.088000000000
16.498526853000,-0.086000000000
16.506214880000,-0.086000000000
16.513902907000,-0.081000000000
16.521590934000,-0.073000000000
16.529278961000,-0.073000000000
16.536966988000,-0.076000000000
16.544655015000,-0.073000000000
16.552343042000,-0.071000000000
16.560031069000,-0.069000000000
16.567719096000,-0.069000000000
16.575407123000,-0.073000000000
16.583095150000,-0.083000000000
16.590783177000,-0.083000000000
16.598471204000,-0.073000000000
16.606159231000,-0.066000000000
16.613847258000,-0.059000000000
16.621535285000,-0.044000000000
16.629223312000,-0.032000000000
16.636911339000,-0.027000000000
16.644599366000,-0.034000000000
16.652287393000,-0.049000000000
16.659975420000,-0.056000000000
16.667663447000,-0.059000000000
16.675351474000,-0.059000000000
16.683039501000,-0.056000000000
16.690727528000,-0.056000000000
16.698415555000,-0.059000000000
16.706103582000,-0.059000000000
16.713791609000,-0.073000000000
16.721479636000,-0.083000000000
16.729167663000,0.073000000000
16.736855690000,0.505000000000
16.744543717000,0.828000000000
16.752231744000,0.515000000000
16.759919771000,-0.160000000000
16.767607798000,-0.429000000000
16.775295825000,-0.261000000000
16.782983852000,-0.177000000000
16.790671879000,-0.187000000000
16.798359906000,-0.098000000000
16.806047933000,-0.046000000000
16.813735960000,-0.071000000000
16.821423987000,-0.061000000000
16.829112014000,-0.034000000000
16.836800041000,-0.032000000000
16.844488068000,-0.032000000000
16.852176095000,-0.022000000000
16.859864122000,-0.019000000000
16.867552149000,-0.014000000000
16.875240176000,-0.004000000000
16.882928203000,-0.002000000000
16.890616230000,0.000000000000
16.898304257000,0.007000000000
16.905992284000,0.014000000000
16.913680311000,0.022000000000
16.921368338000,0.029000000000
16.929056365000,0.036000000000
16.936744392000,0.049000000000
16.944432419000,0.064000000000
16.952120446000,0.078000000000
16.959808473000,0.093000000000
16.967496500000,0.108000000000
16.975184527000,0.123000000000
16.982872554000,0.133000000000
16.990560630000,0.143000000000
16.998248796000,0.152000000000
17.005936962000,0.145000000000
17.013625128000,0.133000000000
17.021313294000,0.123000000000
17.029001460000,0.096000000000
17.036689626000,0.044000000000
17.044377792000,-0.004000000000
17.052065958000,-0.041000000000
17.059754124000,-0.078000000000
17.067442290000,-0.110000000000
17.075130456000,-0.128000000000
17.082818622000,-0.133000000000
17.090506788000,-0.138000000000
17.098194954000,-0.140000000000
17.105883120000,-0.135000000000
17.113571286000,-0.128000000000
17.121259452000,-0.128000000000
17.128947618000,-0.128000000000
17.136635784000,-0.120000000000
17.144323950000,-0.110000000000
17.152012116000,-0.110000000000
17.159700282000,-0.106000000000
17.167388448000,-0.093000000000
17.175076614000,-0.091000000000
17.182764780000,-0.093000000000
17.190452946000,-0.096000000000
17.198141112000,-0.093000000000
17.205829278000,-0.091000000000
17.213517444000,-0.091000000000
17.221205610000,-0.096000000000
17.228893776000,-0.101000000000
17.236581942000,-0.096000000000
17.244270108000,-0.091000000000
17.251958274000,-0.093000000000
17.259646440000,-0.093000000000
17.267334606000,-0.096000000000
17.275022772000,-0.098000000000
17.282710938000,-0.091000000000
17.290399104000,-0.086000000000
17.298087270000,-0.086000000000
17.305775436000,-0.083000000000
17.313463602000,-0.078000000000
17.321151768000,-0.076000000000
17.328839934000,-0.076000000000
17.336528100000,-0.076000000000
17.344216266000,-0.071000000000
17.351904432000,-0.069000000000
17.359592598000,-0.064000000000
17.367280764000,-0.064000000000
17.374968930000,-0.066000000000
17.382657096000,-0.064000000000
17.390345262000,-0.056000000000
17.398033428000,-0.051000000000
17.405721594000,-0.054000000000
17.413409760000,-0.056000000000
17.421097926000,-0.056000000000
17.428786092000,-0.056000000000
17.436474258000,-0.059000000000
17.444162424000,-0.056000000000
17.451850590000,-0.049000000000
17.459538756000,-0.029000000000
17.467226922000,-0.022000000000
17.474915088000,-0.019000000000
17.482603254000,-0.009000000000
17.490291420000,-0.014000000000
17.497979586000,-0.032000000000
17.505667752000,-0.036000000000
17.513355918000,-0.034000000000
17.521044084000,-0.036000000000
17.528732250000,-0.036000000000
17.536420416000,-0.029000000000
17.544108582000,-0.032000000000
17.551796820000,-0.039000000000
17.559484777000,-0.059000000000
17.567172734000,-0.034000000000
17.574860691000,0.224000000000
17.582548648000,0.683000000000
17.590236605000,0.801000000000
17.597924562000,0.273000000000
17.605612519000,-0.310000000000
17.613300476000,-0.362000000000
17.620988433000,-0.180000000000
17.628676390000,-0.162000000000
17.636364347000,-0.138000000000
17.644052304000,-0.039000000000
17.651740261000,-0.029000000000
17.659428218000,-0.056000000000
17.667116175000,-0.034000000000
17.674804132000,-0.012000000000
17.682492089000,-0.009000000000
17.690180046000,-0.004000000000
17.697868003000,0.002000000000
17.705555960000,0.004000000000
17.713243917000,0.007000000000
17.720931874000,0.009000000000
17.728619831000,0.019000000000
17.736307788000,0.029000000000
17.743995745000,0.034000000000
17.751683702000,0.039000000000
17.759371659000,0.046000000000
17.767059616000,0.051000000000
17.774747573000,0.061000000000
17.782435530000,0.076000000000
17.790123487000,0.086000000000
17.797811444000,0.101000000000
17.805499401000,0.118000000000
17.813187358000,0.133000000000
17.820875315000,0.145000000000
17.828563272000,0.155000000000
17.836251229000,0.160000000000
17.843939186000,0.165000000000
17.851627143000,0.165000000000
17.859315100000,0.155000000000
17.867003057000,0.135000000000
17.874691014000,0.103000000000
17.882378971000,0.059000000000
17.890066928000,0.014000000000
17.897754885000,-0.022000000000
17.905442842000,-0.056000000000
17.913130799000,-0.083000000000
17.920818756000,-0.101000000000
17.928506713000,-0.108000000000
17.936194670000,-0.110000000000
17.943882627000,-0.108000000000
17.951570584000,-0.103000000000
17.959258541000,-0.103000000000
17.966946498000,-0.098000000000
17.974634455000,-0.088000000000
17.982322412000,-0.083000000000
17.990010369000,-0.083000000000
17.997698326000,-0.078000000000
18.005386283000,-0.073000000000
18.013074240000,-0.071000000000
18.020762197000,-0.066000000000
18.028450154000,-0.066000000000
18.036138111000,-0.071000000000
18.043826068000,-0.069000000000
18.051514025000,-0.061000000000
18.059201982000,-0.061000000000
18.066889939000,-0.064000000000
18.074577896000,-0.069000000000
18.082265853000,-0.071000000000
18.089953810000,-0.069000000000
18.097641767000,-0.064000000000
18.105329724000,-0.069000000000
18.113017753000,-0.071000000000
18.120705710000,-0.066000000000
18.128393667000,-0.061000000000
18.136081624000,-0.061000000000
18.143769581000,-0.064000000000
18.151457538000,-0.066000000000
18.159145495000,-0.066000000000
18.166833452000,-0.069000000000
18.174521409000,-0.066000000000
18.182209366000,-0.061000000000
18.189897323000,-0.061000000000
18.197585280000,-0.061000000000
18.205273237000,-0.054000000000
18.212961194000,-0.051000000000
18.220649151000,-0.056000000000
18.228337108000,-0.056000000000
18.236025065000,-0.054000000000
18.243713022000,-0.056000000000
18.251400979000,-0.056000000000
18.259088936000,-0.049000000000
18.266776893000,-0.049000000000
18.274464850000,-0.066000000000
18.282152807000,-0.076000000000
18.289840764000,-0.069000000000
18.297528721000,-0.059000000000
18.305216678000,-0.049000000000
18.312904635000,-0.034000000000
18.320592592000,-0.027000000000
18.328280549000,-0.019000000000
18.335968506000,-0.017000000000
18.343656463000,-0.032000000000
18.351344420000,-0.046000000000
18.359032377000,-0.046000000000
18.366720334000,-0.049000000000
18.374408291000,-0.051000000000
18.382096248000,-0.046000000000
18.389784205000,-0.049000000000
18.397472162000,-0.054000000000
18.405160119000,-0.056000000000
18.412848076000,-0.078000000000
18.420536033000,-0.009000000000
18.428223990000,0.340000000000
18.435911947000,0.766000000000
18.443599904000,0.680000000000
18.451287861000,0.044000000000
18.458975818000,-0.404000000000
18.466663775000,-0.323000000000
18.474351732000,-0.180000000000
18.482039689000,-0.189000000000
18.489727646000,-0.133000000000
18.497415603000,-0.056000000000
18.505103560000,-0.066000000000
18.512791517000,-0.066000000000
18.520479474000,-0.039000000000
18.528167431000,-0.034000000000
18.535855388000,-0.036000000000
18.543543345000,-0.029000000000
18.551231302000,-0.024000000000
18.558919259000,-0.019000000000
18.566607216000,-0.012000000000
18.574295173000,-0.012000000000
18.581983130000,-0.009000000000
18.589671087000,0.000000000000
18.597359044000,0.007000000000
18.605047001000,0.009000000000
18.612734958000,0.019000000000
18.620422915000,0.027000000000
18.628110872000,0.032000000000
18.635798829000,0.041000000000
18.643486786000,0.061000000000
18.651174743000,0.078000000000
18.658862700000,0.088000000000
18.666550657000,0.103000000000
18.674238686000,0.123000000000
18.681926713000,0.128000000000
18.689614740000,0.125000000000
18.697302767000,0.130000000000
18.704990794000,0.133000000000
18.712678821000,0.123000000000
18.720366848000,0.098000000000
18.728054875000,0.056000000000
18.735742902000,0.014000000000
18.743430929000,-0.024000000000
18.751118956000,-0.066000000000
18.758806983000,-0.106000000000
18.766495010000,-0.128000000000
18.774183037000,-0.133000000000
18.781871064000,-0.135000000000
18.789559091000,-0.143000000000
18.797247118000,-0.147000000000
18.804935145000,-0.143000000000
18.812623172000,-0.133000000000
18.820311199000,-0.130000000000
18.827999226000,-0.123000000000
18.835687253000,-0.115000000000
18.843375280000,-0.113000000000
18.851063307000,-0.113000000000
18.858751334000,-0.110000000000
18.866439361000,-0.103000000000
18.874127388000,-0.098000000000
18.881815415000,-0.098000000000
18.889503442000,-0.096000000000
18.897191469000,-0.098000000000
18.904879496000,-0.098000000000
18.912567523000,-0.101000000000
18.920255550000,-0.101000000000
18.927943577000,-0.106000000000
18.935631604000,-0.106000000000
18.943319631000,-0.101000000000
18.951007658000,-0.098000000000
18.958695685000,-0.101000000000
18.966383712000,-0.101000000000
18.974071739000,-0.098000000000
18.981759766000,-0.096000000000
18.989447793000,-0.096000000000
18.997135820000,-0.093000000000
19.004823847000,-0.093000000000
19.012511874000,-0.096000000000
19.020199901000,-0.096000000000
19.027887928000,-0.091000000000
19.035575955000,-0.088000000000
19.043263982000,-0.088000000000
19.050952009000,-0.088000000000
19.058640036000,-0.088000000000
19.066328063000,-0.086000000000
19.074016090000,-0.078000000000
19.081704117000,-0.081000000000
19.089392144000,-0.083000000000
19.097080171000,-0.078000000000
19.104768198000,-0.076000000000
19.112456225000,-0.076000000000
19.120144252000,-0.076000000000
19.127832279000,-0.071000000000
19.135520306000,-0.073000000000
19.143208333000,-0.076000000000
19.150896360000,-0.078000000000
19.158584387000,-0.083000000000
19.166272414000,-0.083000000000
19.173960441000,-0.078000000000
19.181648468000,-0.069000000000
19.189336495000,-0.051000000000
19.197024522000,-0.044000000000
19.204712549000,-0.039000000000
19.212400576000,-0.036000000000
19.220088603000,-0.054000000000
19.227776630000,-0.073000000000
19.235464710000,-0.069000000000
19.243152737000,-0.061000000000
19.250840764000,-0.069000000000
19.258528791000,-0.071000000000
19.266216818000,-0.064000000000
19.273904845000,-0.064000000000
19.281592872000,-0.073000000000
19.289280899000,-0.098000000000
19.296968926000,-0.056000000000
19.304656953000,0.244000000000
19.312344980000,0.695000000000
19.320033007000,0.724000000000
19.327721034000,0.138000000000
19.335409061000,-0.392000000000
19.343097088000,-0.377000000000
19.350785115000,-0.212000000000
19.358473142000,-0.209000000000
19.366161169000,-0.167000000000
19.373849196000,-0.078000000000
19.381537223000,-0.078000000000
19.389225250000,-0.091000000000
19.396913277000,-0.066000000000
19.404601304000,-0.061000000000
19.412289331000,-0.061000000000
19.419977358000,-0.049000000000
19.427665385000,-0.044000000000
19.435353412000,-0.041000000000
19.443041439000,-0.034000000000
19.450729466000,-0.024000000000
19.458417493000,-0.022000000000
19.466105520000,-0.022000000000
19.473793547000,-0.012000000000
19.481481574000,-0.002000000000
19.489169601000,0.000000000000
19.496857628000,0.009000000000
19.504545655000,0.024000000000
19.512233682000,0.032000000000
19.519921709000,0.034000000000
19.527609736000,0.049000000000
19.535297763000,0.073000000000
19.542985790000,0.091000000000
19.550673817000,0.098000000000
19.558361844000,0.106000000000
19.566049871000,0.118000000000
19.573737898000,0.125000000000
19.581425925000,0.120000000000
19.589113952000,0.110000000000
19.596801979000,0.093000000000
19.604490006000,0.059000000000
19.612178033000,0.017000000000
19.619866060000,-0.019000000000
19.627554087000,-0.061000000000
19.635242114000,-0.103000000000
19.642930141000,-0.128000000000
19.650618168000,-0.138000000000
19.658306195000,-0.147000000000
19.665994222000,-0.155000000000
19.673682249000,-0.152000000000
19.681370276000,-0.143000000000
19.689058303000,-0.140000000000
19.696746330000,-0.145000000000
19.704434357000,-0.143000000000
19.712122384000,-0.125000000000
19.719810411000,-0.115000000000
19.727498438000,-0.118000000000
19.735186465000,-0.115000000000
19.742874492000,-0.108000000000
19.750562519000,-0.106000000000
19.758250546000,-0.110000000000
19.765938573000,-0.110000000000
19.773626600000,-0.098000000000
19.781314627000,-0.093000000000
19.789002654000,-0.106000000000
19.796690730000,-0.113000000000
19.804378757000,-0.108000000000
19.812066784000,-0.103000000000
19.819754811000,-0.106000000000
19.827442838000,-0.106000000000
19.835130865000,-0.101000000000
19.842818892000,-0.103000000000
19.850506919000,-0.103000000000
19.858194946000,-0.103000000000
19.865882973000,-0.103000000000
19.873571000000,-0.106000000000
19.881259027000,-0.101000000000
19.888947054000,-0.096000000000
19.896635081000,-0.096000000000
19.904323108000,-0.098000000000
19.912011135000,-0.091000000000
19.919699162000,-0.093000000000
19.927387189000,-0.093000000000
19.935075216000,-0.086000000000
19.942763243000,-0.083000000000
19.950451270000,-0.088000000000
19.958139297000,-0.083000000000
19.965827324000,-0.078000000000
19.973515351000,-0.078000000000
19.981203378000,-0.081000000000
19.988891405000,-0.078000000000
19.996579432000,-0.073000000000
20.004267459000,-0.081000000000
20.011955486000,-0.088000000000
20.019643513000,-0.093000000000
20.027331540000,-0.093000000000
20.035019567000,-0.086000000000
20.042707594000,-0.066000000000
20.050395621000,-0.051000000000
20.058083648000,-0.051000000000
20.065771675000,-0.041000000000
20.073459702000,-0.032000000000
20.081147729000,-0.051000000000
20.088835756000,-0.071000000000
20.096523783000,-0.066000000000
20.104211810000,-0.069000000000
20.111899837000,-0.071000000000
20.119587864000,-0.064000000000
20.127275891000,-0.064000000000
20.134963918000,-0.066000000000
20.142651945000,-0.078000000000
20.150339972000,-0.093000000000
20.158027999000,0.029000000000
20.165716026000,0.433000000000
20.173404053000,0.796000000000
20.181092080000,0.554000000000
20.188780107000,-0.125000000000
20.196468134000,-0.446000000000
20.204156161000,-0.286000000000
20.211844188000,-0.184000000000
20.219532215000,-0.202000000000
20.227220242000,-0.118000000000
20.234908269000,-0.054000000000
20.242596296000,-0.073000000000
20.250284323000,-0.069000000000
20.257972350000,-0.041000000000
20.265660377000,-0.041000000000
20.273348404000,-0.046000000000
20.281036431000,-0.039000000000
20.288724458000,-0.027000000000
20.296412485000,-0.017000000000
20.304100512000,-0.012000000000
20.311788539000,-0.009000000000
20.319476566000,-0.002000000000
20.327164593000,0.009000000000
20.334852620000,0.019000000000
20.342540647000,0.022000000000
20.350228674000,0.034000000000
20.357916750000,0.044000000000
20.365604777000,0.046000000000
20.373292804000,0.061000000000
20.380980831000,0.086000000000
20.388668858000,0.106000000000
20.396356885000,0.123000000000
20.404044912000,0.138000000000
20.411732939000,0.150000000000
20.419420966000,0.157000000000
20.427108993000,0.157000000000
20.434797020000,0.157000000000
20.442485047000,0.162000000000
20.450173074000,0.152000000000
20.457861101000,0.118000000000
20.465549128000,0.071000000000
20.473237155000,0.034000000000
20.480925182000,-0.004000000000
20.488613209000,-0.051000000000
20.496301236000,-0.083000000000
20.503989263000,-0.096000000000
20.511677290000,-0.108000000000
20.519365317000,-0.113000000000
20.527053344000,-0.106000000000
20.534741371000,-0.108000000000
20.542429398000,-0.113000000000
20.550117425000,-0.101000000000
20.557805452000,-0.088000000000
20.565493479000,-0.086000000000
20.573181506000,-0.081000000000
20.580869533000,-0.073000000000
20.588557560000,-0.066000000000
20.596245587000,-0.061000000000
20.603933614000,-0.051000000000
20.611621641000,-0.039000000000
20.619309668000,-0.049000000000
20.626997695000,-0.054000000000
20.634685722000,-0.046000000000
20.642373749000,-0.046000000000
20.650061776000,-0.049000000000
20.657749803000,-0.044000000000
20.665437830000,-0.041000000000
20.673125857000,-0.044000000000
20.680813884000,-0.036000000000
20.688501911000,-0.036000000000
20.696189938000,-0.049000000000
20.703877965000,-0.051000000000
20.711565992000,-0.039000000000
20.719254019000,-0.041000000000
20.726942046000,-0.039000000000
20.734630073000,-0.019000000000
20.742318100000,-0.024000000000
20.750006127000,-0.036000000000
20.757694154000,-0.027000000000
20.765382181000,-0.022000000000
20.773070208000,-0.029000000000
20.780758235000,-0.036000000000
20.788446262000,-0.041000000000
20.796134289000,-0.036000000000
20.803822316000,-0.022000000000
20.811510343000,-0.014000000000
20.819198370000,-0.002000000000
20.826886397000,0.012000000000
20.834574424000,0.022000000000
20.842262451000,0.014000000000
20.849950478000,-0.002000000000
20.857638505000,-0.002000000000
20.865326532000,-0.002000000000
20.873014559000,-0.014000000000
20.880702586000,-0.012000000000
20.888390613000,-0.004000000000
20.896078640000,-0.014000000000
20.903766667000,-0.019000000000
20.911454694000,-0.017000000000
20.919142770000,-0.034000000000
20.926830797000,0.041000000000
20.934518824000,0.414000000000
20.942206851000,0.833000000000
20.949894878000,0.638000000000
20.957582905000,-0.108000000000
20.965270932000,-0.490000000000
20.972958959000,-0.300000000000
20.980646986000,-0.177000000000
20.988335013000,-0.202000000000
20.996023040000,-0.088000000000
21.003711067000,0.014000000000
21.011399094000,0.000000000000
21.019087121000,-0.002000000000
21.026775148000,0.022000000000
21.034463175000,0.019000000000
21.042151202000,0.019000000000
21.049839229000,0.034000000000
21.057527256000,0.034000000000
21.065215283000,0.032000000000
21.072903310000,0.046000000000
21.080591337000,0.061000000000
21.088279364000,0.064000000000
21.095967391000,0.066000000000
21.103655418000,0.076000000000
21.111343445000,0.083000000000
21.119031472000,0.086000000000
21.126719499000,0.098000000000
21.134407526000,0.113000000000
21.142095553000,0.125000000000
21.149783580000,0.145000000000
21.157471607000,0.165000000000
21.165159634000,0.177000000000
21.172847661000,0.197000000000
21.180535688000,0.207000000000
21.188223715000,0.216000000000
21.195911742000,0.219000000000
21.203599769000,0.216000000000
21.211287796000,0.209000000000
21.218975823000,0.192000000000
21.226663850000,0.147000000000
21.234351877000,0.091000000000
21.242039904000,0.034000000000
21.249727931000,-0.014000000000
21.257415958000,-0.056000000000
21.265103985000,-0.091000000000
21.272792012000,-0.106000000000
21.280480039000,-0.115000000000
21.288168066000,-0.133000000000
21.295856093000,-0.140000000000
21.303544120000,-0.128000000000
21.311232147000,-0.123000000000
21.318920174000,-0.120000000000
21.326608201000,-0.108000000000
21.334296228000,-0.098000000000
21.341984255000,-0.101000000000
21.349672282000,-0.091000000000
21.357360309000,-0.073000000000
21.365048336000,-0.076000000000
21.372736363000,-0.076000000000
21.380424390000,-0.066000000000
21.388112417000,-0.066000000000
21.395800444000,-0.069000000000
21.403488471000,-0.064000000000
21.411176498000,-0.064000000000
21.418864525000,-0.071000000000
21.426552552000,-0.076000000000
21.434240579000,-0.071000000000
21.441928606000,-0.066000000000
21.449616633000,-0.073000000000
21.457304660000,-0.078000000000
21.464992687000,-0.076000000000
21.472680714000,-0.073000000000
21.480368790000,-0.076000000000
21.488056817000,-0.076000000000
21.495744844000,-0.073000000000
21.503432871000,-0.076000000000
21.511120898000,-0.073000000000
21.518808925000,-0.066000000000
21.526496952000,-0.064000000000
21.534184979000,-0.069000000000
21.541873006000,-0.071000000000
21.549561033000,-0.083000000000
21.557249060000,-0.086000000000
21.564937087000,-0.071000000000
21.572625114000,-0.061000000000
21.580313141000,-0.036000000000
21.588001168000,-0.004000000000
21.595689195000,-0.009000000000
21.603377222000,-0.046000000000
21.611065249000,-0.069000000000
21.618753276000,-0.073000000000
21.626441303000,-0.071000000000
21.634129330000,-0.071000000000
21.641817357000,-0.073000000000
21.649505384000,-0.061000000000
21.657193411000,-0.049000000000
21.664881438000,-0.054000000000
21.672569465000,-0.069000000000
21.680257492000,-0.096000000000
21.687945519000,-0.083000000000
21.695633546000,0.172000000000
21.703321573000,0.680000000000
21.711009600000,0.880000000000
21.718697627000,0.360000000000
21.726385654000,-0.305000000000
21.734073681000,-0.392000000000
21.741761708000,-0.184000000000
21.749449735000,-0.177000000000
21.757137762000,-0.172000000000
21.764825789000,-0.066000000000
21.772513816000,-0.051000000000
21.780201843000,-0.091000000000
21.787889870000,-0.071000000000
21.795577897000,-0.044000000000
21.803265924000,-0.044000000000
21.810953951000,-0.039000000000
21.818641978000,-0.032000000000
21.826330005000,-0.032000000000
21.834018032000,-0.029000000000
21.841706059000,-0.024000000000
21.849394086000,-0.014000000000
21.857082113000,-0.009000000000
21.864770140000,-0.009000000000
21.872458167000,-0.004000000000
21.880146194000,0.002000000000
21.887834221000,0.017000000000
21.895522248000,0.027000000000
21.903210275000,0.032000000000
21.910898302000,0.039000000000
21.918586329000,0.064000000000
21.926274356000,0.083000000000
21.933962383000,0.096000000000
21.941650410000,0.103000000000
21.949338437000,0.120000000000
21.957026464000,0.135000000000
21.964714491000,0.130000000000
21.972402518000,0.125000000000
21.980090545000,0.123000000000
21.987778572000,0.110000000000
21.995466599000,0.069000000000
22.003154626000,0.012000000000
22.010842653000,-0.036000000000
22.018530680000,-0.069000000000
22.026218707000,-0.098000000000
22.033906734000,-0.110000000000
22.041594806000,-0.096000000000
22.049282833000,-0.096000000000
22.056970860000,-0.150000000000
22.064658887000,-0.187000000000
22.072346914000,-0.157000000000
22.080034941000,-0.133000000000
22.087722968000,-0.143000000000
22.095410995000,-0.147000000000
22.103099022000,-0.135000000000
22.110787049000,-0.118000000000
22.118475076000,-0.110000000000
22.126163103000,-0.113000000000
22.133851130000,-0.113000000000
22.141539157000,-0.108000000000
22.149227184000,-0.106000000000
22.156915211000,-0.106000000000
22.164603238000,-0.103000000000
22.172291265000,-0.103000000000
22.179979292000,-0.101000000000
22.187667319000,-0.103000000000
22.195355346000,-0.101000000000
22.203043373000,-0.101000000000
22.210731400000,-0.106000000000
22.218419427000,-0.106000000000
22.226107454000,-0.108000000000
22.233795481000,-0.108000000000
22.241483508000,-0.101000000000
22.249171535000,-0.096000000000
22.256859562000,-0.096000000000
22.264547589000,-0.101000000000
22.272235616000,-0.098000000000
22.279923643000,-0.091000000000
22.287611670000,-0.091000000000
22.295299697000,-0.096000000000
22.302987724000,-0.101000000000
22.310675751000,-0.103000000000
22.318363778000,-0.101000000000
22.326051805000,-0.098000000000
22.333739832000,-0.103000000000
22.341427859000,-0.093000000000
22.349115886000,-0.073000000000
22.356803913000,-0.061000000000
22.364491940000,-0.056000000000
22.372179967000,-0.049000000000
22.379867994000,-0.059000000000
22.387556021000,-0.081000000000
22.395244048000,-0.086000000000
22.402932075000,-0.081000000000
22.410620102000,-0.083000000000
22.418308129000,-0.081000000000
22.425996156000,-0.073000000000
22.433684183000,-0.069000000000
22.441372210000,-0.076000000000
22.449060237000,-0.113000000000
22.456748264000,-0.115000000000
22.464436291000,0.125000000000
22.472124318000,0.623000000000
22.479812345000,0.850000000000
22.487500372000,0.377000000000
22.495188399000,-0.288000000000
22.502876426000,-0.414000000000
22.510564453000,-0.216000000000
22.518252480000,-0.197000000000
22.525940507000,-0.199000000000
22.533628534000,-0.103000000000
22.541316561000,-0.081000000000
22.549004588000,-0.106000000000
22.556692615000,-0.083000000000
22.564380642000,-0.066000000000
22.572068669000,-0.073000000000
22.579756696000,-0.066000000000
22.587444723000,-0.049000000000
22.595132750000,-0.046000000000
22.602820830000,-0.049000000000
22.610508857000,-0.044000000000
22.618196884000,-0.036000000000
22.625884911000,-0.029000000000
22.633572938000,-0.027000000000
22.641260965000,-0.019000000000
22.648948992000,-0.014000000000
22.656637019000,-0.004000000000
22.664325046000,0.004000000000
22.672013073000,0.014000000000
22.679701100000,0.029000000000
22.687389127000,0.046000000000
22.695077154000,0.066000000000
22.702765181000,0.081000000000
22.710453208000,0.088000000000
22.718141235000,0.103000000000
22.725829262000,0.118000000000
22.733517289000,0.120000000000
22.741205316000,0.115000000000
22.748893343000,0.106000000000
22.756581370000,0.083000000000
22.764269397000,0.049000000000
22.771957424000,0.002000000000
22.779645451000,-0.044000000000
22.787333478000,-0.088000000000
22.795021505000,-0.125000000000
22.802709532000,-0.150000000000
22.810397559000,-0.162000000000
22.818085586000,-0.165000000000
22.825773613000,-0.162000000000
22.833461640000,-0.162000000000
22.841149667000,-0.157000000000
22.848837694000,-0.150000000000
22.856525721000,-0.147000000000
22.864213748000,-0.145000000000
22.871901775000,-0.138000000000
22.879589802000,-0.138000000000
22.887277829000,-0.138000000000
22.894965856000,-0.130000000000
22.902653883000,-0.125000000000
22.910341910000,-0.128000000000
22.918029937000,-0.125000000000
22.925717964000,-0.115000000000
22.933405991000,-0.113000000000
22.941094018000,-0.118000000000
22.948782045000,-0.118000000000
22.956470072000,-0.118000000000
22.964158099000,-0.118000000000
22.971846126000,-0.115000000000
22.979534153000,-0.113000000000
22.987222180000,-0.115000000000
22.994910207000,-0.120000000000
23.002598234000,-0.108000000000
23.010286261000,-0.106000000000
23.017974288000,-0.115000000000
23.025662315000,-0.113000000000
23.033350342000,-0.101000000000
23.041038369000,-0.103000000000
23.048726396000,-0.106000000000
23.056414423000,-0.101000000000
23.064102450000,-0.098000000000
23.071790477000,-0.103000000000
23.079478504000,-0.098000000000
23.087166531000,-0.093000000000
23.094854558000,-0.101000000000
23.102542585000,-0.108000000000
23.110230612000,-0.106000000000
23.117918639000,-0.098000000000
23.125606666000,-0.086000000000
23.133294693000,-0.069000000000
23.140982720000,-0.061000000000
23.148670747000,-0.066000000000
23.156358774000,-0.061000000000
23.164046850000,-0.059000000000
23.171734877000,-0.071000000000
23.179422904000,-0.078000000000
23.187110931000,-0.083000000000
23.194798958000,-0.093000000000
23.202486985000,-0.081000000000
23.210175012000,-0.069000000000
23.217863039000,-0.076000000000
23.225551066000,-0.086000000000
23.233239093000,-0.108000000000
23.240927120000,-0.081000000000
23.248615147000,0.194000000000
23.256303174000,0.665000000000
23.263991201000,0.749000000000
23.271679228000,0.167000000000
23.279367255000,-0.409000000000
23.287055282000,-0.419000000000
23.294743309000,-0.234000000000
23.302431336000,-0.221000000000
23.310119363000,-0.187000000000
23.317807390000,-0.096000000000
23.325495417000,-0.083000000000
23.333183444000,-0.088000000000
23.340871471000,-0.061000000000
23.348559498000,-0.054000000000
23.356247525000,-0.061000000000
23.363935552000,-0.046000000000
23.371623579000,-0.034000000000
23.379311606000,-0.036000000000
23.386999633000,-0.034000000000
23.394687660000,-0.022000000000
23.402375687000,-0.014000000000
23.410063714000,-0.009000000000
23.417751741000,-0.002000000000
23.425439768000,-0.002000000000
23.433127795000,0.007000000000
23.440815822000,0.029000000000
23.448503849000,0.036000000000
23.456191876000,0.041000000000
23.463879903000,0.073000000000
23.471567930000,0.103000000000
23.479255957000,0.110000000000
23.486943984000,0.120000000000
23.494632011000,0.133000000000
23.502320038000,0.140000000000
23.510008065000,0.145000000000
23.517696092000,0.155000000000
23.525384119000,0.157000000000
23.533072146000,0.145000000000
23.540760173000,0.108000000000
23.548448200000,0.051000000000
23.556136227000,0.004000000000
23.563824254000,-0.039000000000
23.571512281000,-0.096000000000
23.579200308000,-0.140000000000
23.586888335000,-0.155000000000
23.594576362000,-0.157000000000
23.602264389000,-0.172000000000
23.609952416000,-0.177000000000
23.617640443000,-0.172000000000
23.625328470000,-0.165000000000
23.633016497000,-0.162000000000
23.640704524000,-0.160000000000
23.648392551000,-0.155000000000
23.656080578000,-0.145000000000
23.663768605000,-0.133000000000
23.671456632000,-0.123000000000
23.679144659000,-0.115000000000
23.686832686000,-0.115000000000
23.694520713000,-0.106000000000
23.702208740000,-0.098000000000
23.709896767000,-0.108000000000
23.717584794000,-0.110000000000
23.725272870000,-0.103000000000
23.732960897000,-0.110000000000
23.740648924000,-0.118000000000
23.748336951000,-0.110000000000
23.756024978000,-0.098000000000
23.763713005000,-0.098000000000
23.771401032000,-0.106000000000
23.779089059000,-0.118000000000
23.786777086000,-0.110000000000
23.794465113000,-0.098000000000
23.802153140000,-0.106000000000
23.809841167000,-0.108000000000
23.817529194000,-0.101000000000
23.825217221000,-0.101000000000
23.832905248000,-0.103000000000
23.840593275000,-0.103000000000
23.848281302000,-0.101000000000
23.855969329000,-0.098000000000
23.863657356000,-0.101000000000
23.871345383000,-0.103000000000
23.879033410000,-0.088000000000
23.886721437000,-0.066000000000
23.894409464000,-0.059000000000
23.902097491000,-0.051000000000
23.909785518000,-0.044000000000
23.917473545000,-0.059000000000
23.925161572000,-0.076000000000
23.932849599000,-0.073000000000
23.940537626000,-0.076000000000
23.948225653000,-0.083000000000
23.955913680000,-0.076000000000
23.963601707000,-0.069000000000
23.971289734000,-0.073000000000
23.978977761000,-0.086000000000
23.986665788000,-0.110000000000
23.994353815000,-0.049000000000
24.002041842000,0.286000000000
24.009729869000,0.739000000000
24.017417896000,0.670000000000
24.025105923000,-0.034000000000
24.032793950000,-0.525000000000
24.040481977000,-0.396000000000
24.048170004000,-0.229000000000
24.055858031000,-0.251000000000
24.063546058000,-0.180000000000
24.071234085000,-0.061000000000
24.078922112000,-0.059000000000
24.086610139000,-0.071000000000
24.094298166000,-0.036000000000
24.101986193000,-0.027000000000
24.109674220000,-0.029000000000
24.117362247000,-0.022000000000
24.125050274000,-0.014000000000
24.132738301000,-0.014000000000
24.140426328000,-0.009000000000
24.148114355000,-0.002000000000
24.155802382000,0.002000000000
24.163490409000,0.009000000000
24.171178436000,0.019000000000
24.178866463000,0.024000000000
24.186554490000,0.029000000000
24.194242517000,0.039000000000
24.201930544000,0.056000000000
24.209618571000,0.071000000000
24.217306598000,0.081000000000
24.224994625000,0.098000000000
24.232682652000,0.118000000000
24.240370679000,0.135000000000
24.248058706000,0.145000000000
24.255746733000,0.152000000000
24.263434760000,0.165000000000
24.271122787000,0.170000000000
24.278810814000,0.162000000000
24.286498890000,0.143000000000
24.294186917000,0.103000000000
24.301874944000,0.051000000000
24.309562971000,0.002000000000
24.317250998000,-0.044000000000
24.324939025000,-0.088000000000
24.332627052000,-0.120000000000
24.340315079000,-0.143000000000
24.348003106000,-0.155000000000
24.355691133000,-0.157000000000
24.363379160000,-0.160000000000
24.371067187000,-0.157000000000
24.378755214000,-0.150000000000
24.386443241000,-0.145000000000
24.394131268000,-0.145000000000
24.401819295000,-0.138000000000
24.409507322000,-0.128000000000
24.417195349000,-0.123000000000
24.424883376000,-0.118000000000
24.432571403000,-0.108000000000
24.440259430000,-0.103000000000
24.447947457000,-0.098000000000
24.455635484000,-0.098000000000
24.463323511000,-0.101000000000
24.471011538000,-0.098000000000
24.478699565000,-0.091000000000
24.486387592000,-0.093000000000
24.494075619000,-0.096000000000
24.501763646000,-0.098000000000
24.509451673000,-0.101000000000
24.517139700000,-0.103000000000
24.524827727000,-0.101000000000
24.532515754000,-0.098000000000
24.540203781000,-0.101000000000
24.547891808000,-0.098000000000
24.555579835000,-0.093000000000
24.563267862000,-0.096000000000
24.570955889000,-0.101000000000
24.578643916000,-0.098000000000
24.586331943000,-0.093000000000
24.594019970000,-0.088000000000
24.601707997000,-0.086000000000
24.609396024000,-0.086000000000
24.617084051000,-0.091000000000
24.624772078000,-0.091000000000
24.632460105000,-0.083000000000
24.640148132000,-0.078000000000
24.647836159000,-0.083000000000
24.655524186000,-0.086000000000
24.663212213000,-0.088000000000
24.670900240000,-0.091000000000
24.678588267000,-0.088000000000
24.686276294000,-0.078000000000
24.693964321000,-0.064000000000
24.701652348000,-0.059000000000
24.709340375000,-0.051000000000
24.717028402000,-0.039000000000
24.724716429000,-0.044000000000
24.732404456000,-0.061000000000
24.740092483000,-0.066000000000
24.747780510000,-0.064000000000
24.755468537000,-0.066000000000
24.763156564000,-0.069000000000
24.770844591000,-0.064000000000
24.778532618000,-0.064000000000
24.786220645000,-0.071000000000
24.793908672000,-0.096000000000
24.801596699000,-0.096000000000
24.809284726000,0.138000000000
24.816972753000,0.641000000000
24.824660780000,0.890000000000
24.832348807000,0.441000000000
24.840036834000,-0.234000000000
24.847724910000,-0.389000000000
24.855412937000,-0.202000000000
24.863100964000,-0.182000000000
24.870788991000,-0.192000000000
24.878477018000,-0.098000000000
24.886165045000,-0.076000000000
24.893853072000,-0.091000000000
24.901541099000,-0.059000000000
24.909229126000,-0.049000000000
24.916917153000,-0.069000000000
24.924605180000,-0.056000000000
24.932293207000,-0.039000000000
24.939981234000,-0.034000000000
24.947669261000,-0.032000000000
24.955357288000,-0.032000000000
24.963045315000,-0.032000000000
24.970733342000,-0.022000000000
24.978421369000,-0.009000000000
24.986109396000,-0.004000000000
24.993797423000,0.000000000000
25.001485450000,0.007000000000
25.009173477000,0.022000000000
25.016861504000,0.032000000000
25.024549531000,0.041000000000
25.032237558000,0.056000000000
25.039925585000,0.073000000000
25.047613612000,0.091000000000
25.055301639000,0.110000000000
25.062989666000,0.123000000000
25.070677693000,0.128000000000
25.078365720000,0.138000000000
25.086053747000,0.147000000000
25.093741774000,0.143000000000
25.101429801000,0.120000000000
25.109117828000,0.083000000000
25.116805855000,0.039000000000
25.124493882000,-0.009000000000
25.132181909000,-0.046000000000
25.139869936000,-0.083000000000
25.147557963000,-0.108000000000
25.155245990000,-0.123000000000
25.162934017000,-0.130000000000
25.170622044000,-0.135000000000
25.178310071000,-0.135000000000
25.185998098000,-0.128000000000
25.193686125000,-0.123000000000
25.201374152000,-0.120000000000
25.209062179000,-0.115000000000
25.216750206000,-0.110000000000
25.224438233000,-0.108000000000
25.232126260000,-0.098000000000
25.239814287000,-0.093000000000
25.247502314000,-0.091000000000
25.255190341000,-0.091000000000
25.262878368000,-0.091000000000
25.270566395000,-0.086000000000
25.278254422000,-0.083000000000
25.285942449000,-0.086000000000
25.293630476000,-0.086000000000
25.301318503000,-0.086000000000
25.309006530000,-0.086000000000
25.316694557000,-0.083000000000
25.324382584000,-0.078000000000
25.332070611000,-0.086000000000
25.339758638000,-0.088000000000
25.347446665000,-0.078000000000
25.355134692000,-0.076000000000
25.362822719000,-0.081000000000
25.370510746000,-0.078000000000
25.378198773000,-0.073000000000
25.385886800000,-0.078000000000
25.393574827000,-0.078000000000
25.401262854000,-0.069000000000
25.408950930000,-0.066000000000
25.416638957000,-0.071000000000
25.424326984000,-0.066000000000
25.432015011000,-0.059000000000
25.439703038000,-0.061000000000
25.447391065000,-0.066000000000
25.455079092000,-0.056000000000
25.462767119000,-0.054000000000
25.470455146000,-0.056000000000
25.478143173000,-0.054000000000
25.485831200000,-0.054000000000
25.493519227000,-0.054000000000
25.501207254000,-0.051000000000
25.508895281000,-0.046000000000
25.516583308000,-0.046000000000
25.524271335000,-0.044000000000
25.531959362000,-0.041000000000
25.539647389000,-0.044000000000
25.547335416000,-0.046000000000
25.555023443000,-0.049000000000
25.562711470000,-0.049000000000
25.570399497000,-0.056000000000
25.578087524000,-0.059000000000
25.585775551000,-0.046000000000
25.593463578000,-0.029000000000
25.601151605000,-0.024000000000
25.608839632000,-0.012000000000
25.616527659000,-0.002000000000
25.624215686000,-0.017000000000
25.631903713000,-0.036000000000
25.639591740000,-0.039000000000
25.647279767000,-0.041000000000
25.654967794000,-0.036000000000
25.662655821000,-0.034000000000
25.670343848000,-0.039000000000
25.678031875000,-0.039000000000
25.685719902000,-0.041000000000
25.693407929000,-0.071000000000
25.701095956000,-0.051000000000
25.708783983000,0.221000000000
25.716472010000,0.715000000000
25.724160037000,0.880000000000
25.731848064000,0.369000000000
25.739536091000,-0.256000000000
25.747224118000,-0.347000000000
25.754912145000,-0.175000000000
25.762600172000,-0.170000000000
25.770288199000,-0.157000000000
25.777976226000,-0.064000000000
25.785664253000,-0.051000000000
25.793352280000,-0.076000000000
25.801040307000,-0.051000000000
25.808728334000,-0.034000000000
25.816416361000,-0.036000000000
25.824104388000,-0.032000000000
25.831792415000,-0.022000000000
25.839480442000,-0.017000000000
25.847168469000,-0.014000000000
25.854856496000,-0.009000000000
25.862544523000,-0.004000000000
25.870232550000,0.000000000000
25.877920577000,0.004000000000
25.885608604000,0.012000000000
25.893296631000,0.017000000000
25.900984658000,0.024000000000
25.908672685000,0.034000000000
25.916360712000,0.044000000000
25.924048739000,0.059000000000
25.931736766000,0.071000000000
25.939424793000,0.088000000000
25.947112820000,0.106000000000
25.954800847000,0.118000000000
25.962488874000,0.133000000000
25.970176950000,0.143000000000
25.977864977000,0.150000000000
25.985553004000,0.152000000000
25.993241031000,0.152000000000
26.000929058000,0.135000000000
26.008617085000,0.103000000000
26.016305112000,0.064000000000
26.023993139000,0.019000000000
26.031681166000,-0.024000000000
26.039369193000,-0.061000000000
26.047057220000,-0.091000000000
26.054745247000,-0.113000000000
26.062433274000,-0.123000000000
26.070121301000,-0.125000000000
26.077809328000,-0.128000000000
26.085497355000,-0.125000000000
26.093185382000,-0.120000000000
26.100873409000,-0.118000000000
26.108561436000,-0.113000000000
26.116249463000,-0.106000000000
26.123937490000,-0.101000000000
26.131625517000,-0.096000000000
26.139313544000,-0.093000000000
26.147001571000,-0.093000000000
26.154689598000,-0.091000000000
26.162377625000,-0.086000000000
26.170065652000,-0.083000000000
26.177753679000,-0.083000000000
26.185441706000,-0.086000000000
26.193129733000,-0.086000000000
26.200817760000,-0.083000000000
26.208505787000,-0.078000000000
26.216193814000,-0.073000000000
26.223881841000,-0.078000000000
26.231569868000,-0.086000000000
26.239257895000,-0.088000000000
26.246945922000,-0.088000000000
26.254633949000,-0.083000000000
26.262321976000,-0.083000000000
26.270010003000,-0.083000000000
26.277698030000,-0.083000000000
26.285386057000,-0.081000000000
26.293074084000,-0.076000000000
26.300762111000,-0.073000000000
26.308450138000,-0.076000000000
26.316138165000,-0.071000000000
26.323826192000,-0.061000000000
26.331514219000,-0.064000000000
26.339202246000,-0.071000000000
26.346890273000,-0.069000000000
26.354578300000,-0.069000000000
26.362266327000,-0.071000000000
26.369954354000,-0.069000000000
26.377642381000,-0.064000000000
26.385330408000,-0.061000000000
26.393018435000,-0.064000000000
26.400706462000,-0.061000000000
26.408394489000,-0.056000000000
26.416082516000,-0.054000000000
26.423770543000,-0.056000000000
26.431458570000,-0.054000000000
26.439146597000,-0.054000000000
26.446834624000,-0.059000000000
26.454522651000,-0.061000000000
26.462210678000,-0.054000000000
26.469898705000,-0.044000000000
26.477586732000,-0.049000000000
26.485274759000,-0.056000000000
26.492962786000,-0.056000000000
26.500650813000,-0.049000000000
26.508338840000,-0.049000000000
26.516026867000,-0.056000000000
26.523714894000,-0.061000000000
26.531402970000,-0.061000000000
26.539090997000,-0.056000000000
26.546779024000,-0.051000000000
26.554467051000,-0.046000000000
26.562155078000,-0.034000000000
26.569843105000,-0.019000000000
26.577531132000,-0.014000000000
26.585219159000,-0.032000000000
26.592907186000,-0.054000000000
26.600595213000,-0.054000000000
26.608283240000,-0.049000000000
26.615971267000,-0.056000000000
26.623659294000,-0.054000000000
26.631347321000,-0.046000000000
26.639035348000,-0.051000000000
26.646723375000,-0.064000000000
26.654411402000,-0.093000000000
26.662099429000,-0.073000000000
26.669787456000,0.197000000000
26.677475483000,0.695000000000
26.685163510000,0.860000000000
26.692851537000,0.355000000000
26.700539564000,-0.263000000000
26.708227591000,-0.355000000000
26.715915618000,-0.192000000000
26.723603645000,-0.194000000000
26.731291672000,-0.184000000000
26.738979699000,-0.088000000000
26.746667726000,-0.078000000000
26.754355753000,-0.098000000000
26.762043780000,-0.073000000000
26.769731807000,-0.059000000000
26.777419834000,-0.064000000000
26.785107861000,-0.051000000000
26.792795888000,-0.039000000000
26.800483915000,-0.041000000000
26.808171942000,-0.039000000000
26.815859969000,-0.034000000000
26.823547996000,-0.029000000000
26.831236023000,-0.024000000000
26.838924050000,-0.019000000000
26.846612077000,-0.014000000000
26.854300104000,-0.009000000000
26.861988131000,-0.002000000000
26.869676158000,0.007000000000
26.877364185000,0.019000000000
26.885052212000,0.029000000000
26.892740239000,0.041000000000
26.900428266000,0.059000000000
26.908116293000,0.073000000000
26.915804320000,0.083000000000
26.923492347000,0.098000000000
26.931180374000,0.115000000000
26.938868401000,0.125000000000
26.946556428000,0.123000000000
26.954244455000,0.120000000000
26.961932482000,0.113000000000
26.969620509000,0.088000000000
26.977308536000,0.046000000000
26.984996563000,0.002000000000
26.992684590000,-0.041000000000
27.000372617000,-0.083000000000
27.008060644000,-0.113000000000
27.015748671000,-0.128000000000
27.023436698000,-0.140000000000
27.031124725000,-0.145000000000
27.038812752000,-0.145000000000
27.046500779000,-0.143000000000
27.054188806000,-0.138000000000
27.061876833000,-0.133000000000
27.069564860000,-0.135000000000
27.077252887000,-0.130000000000
27.084940914000,-0.118000000000
27.092628990000,-0.118000000000
27.100317017000,-0.120000000000
27.108005044000,-0.120000000000
27.115693071000,-0.113000000000
27.123381098000,-0.103000000000
27.131069125000,-0.101000000000
27.138757152000,-0.113000000000
27.146445179000,-0.115000000000
27.154133206000,-0.108000000000
27.161821233000,-0.106000000000
27.169509260000,-0.108000000000
27.177197287000,-0.108000000000
27.184885314000,-0.108000000000
27.192573341000,-0.108000000000
27.200261368000,-0.106000000000
27.207949395000,-0.103000000000
27.215637422000,-0.106000000000
27.223325449000,-0.110000000000
27.231013476000,-0.110000000000
27.238701503000,-0.108000000000
27.246389530000,-0.106000000000
27.254077557000,-0.108000000000
27.261765584000,-0.103000000000
27.269453611000,-0.093000000000
27.277141638000,-0.091000000000
27.284829665000,-0.096000000000
27.292517692000,-0.098000000000
27.300205719000,-0.093000000000
27.307893746000,-0.088000000000
27.315581773000,-0.086000000000
27.323269800000,-0.086000000000
27.330957827000,-0.088000000000
27.338645854000,-0.093000000000
27.346333881000,-0.088000000000
27.354021908000,-0.081000000000
27.361709935000,-0.081000000000
27.369397962000,-0.081000000000
27.377085989000,-0.081000000000
27.384774016000,-0.081000000000
27.392462043000,-0.081000000000
27.400150070000,-0.088000000000
27.407838097000,-0.093000000000
27.415526124000,-0.086000000000
27.423214151000,-0.073000000000
27.430902178000,-0.069000000000
27.438590205000,-0.056000000000
27.446278232000,-0.044000000000
27.453966259000,-0.036000000000
27.461654286000,-0.039000000000
27.469342313000,-0.056000000000
27.477030340000,-0.076000000000
27.484718367000,-0.078000000000
27.492406394000,-0.069000000000
27.500094421000,-0.064000000000
27.507782448000,-0.071000000000
27.515470475000,-0.073000000000
27.523158502000,-0.076000000000
27.530846529000,-0.093000000000
27.538534556000,-0.056000000000
27.546222583000,0.221000000000
27.553910610000,0.680000000000
27.561598637000,0.752000000000
27.569286664000,0.150000000000
27.576974691000,-0.436000000000
27.584662718000,-0.438000000000
27.592350745000,-0.246000000000
27.600038772000,-0.236000000000
27.607726799000,-0.192000000000
27.615414826000,-0.083000000000
27.623102853000,-0.064000000000
27.630790880000,-0.076000000000
27.638478907000,-0.049000000000
27.646166934000,-0.039000000000
27.653855010000,-0.046000000000
27.661543037000,-0.029000000000
27.669231064000,-0.017000000000
27.676919091000,-0.027000000000
27.684607118000,-0.019000000000
27.692295145000,-0.002000000000
27.699983172000,0.000000000000
27.707671199000,0.004000000000
27.715359226000,0.022000000000
27.723047253000,0.032000000000
27.730735280000,0.029000000000
27.738423307000,0.041000000000
27.746111334000,0.061000000000
27.753799361000,0.069000000000
27.761487388000,0.081000000000
27.769175415000,0.113000000000
27.776863442000,0.143000000000
27.784551469000,0.155000000000
27.792239496000,0.165000000000
27.799927523000,0.180000000000
27.807615550000,0.192000000000
27.815303577000,0.194000000000
27.822991604000,0.189000000000
27.830679631000,0.187000000000
27.838367658000,0.167000000000
27.846055685000,0.123000000000
27.853743712000,0.073000000000
27.861431739000,0.027000000000
27.869119766000,-0.017000000000
27.876807793000,-0.056000000000
27.884495820000,-0.091000000000
27.892183847000,-0.113000000000
27.899871874000,-0.120000000000
27.907559901000,-0.120000000000
27.915247928000,-0.120000000000
27.922935955000,-0.120000000000
27.930623982000,-0.110000000000
27.938312009000,-0.096000000000
27.946000036000,-0.093000000000
27.953688063000,-0.088000000000
27.961376090000,-0.073000000000
27.969064117000,-0.061000000000
27.976752144000,-0.059000000000
27.984440171000,-0.056000000000
27.992128198000,-0.046000000000
27.999816225000,-0.039000000000
28.007504252000,-0.036000000000
28.015192279000,-0.032000000000
28.022880306000,-0.029000000000
28.030568333000,-0.034000000000
28.038256360000,-0.034000000000
28.045944387000,-0.027000000000
28.053632414000,-0.029000000000
28.061320441000,-0.036000000000
28.069008468000,-0.034000000000
28.076696495000,-0.029000000000
28.084384522000,-0.029000000000
28.092072549000,-0.024000000000
28.099760576000,-0.019000000000
28.107448603000,-0.029000000000
28.115136630000,-0.032000000000
28.122824657000,-0.022000000000
28.130512684000,-0.024000000000
28.138200711000,-0.019000000000
28.145888738000,-0.012000000000
28.153576765000,-0.009000000000
28.161264792000,-0.009000000000
28.168952819000,-0.007000000000
28.176640846000,-0.004000000000
28.184328873000,-0.004000000000
28.192016900000,-0.009000000000
28.199704927000,-0.014000000000
28.207392954000,-0.007000000000
28.215081030000,-0.004000000000
28.222769057000,0.000000000000
28.230457084000,0.009000000000
28.238145111000,0.019000000000
28.245833138000,0.029000000000
28.253521165000,0.036000000000
28.261209192000,0.036000000000
28.268897219000,0.024000000000
28.276585246000,0.012000000000
28.284273273000,0.002000000000
28.291961300000,0.000000000000
28.299649327000,0.007000000000
28.307337354000,0.012000000000
28.315025381000,0.012000000000
28.322713408000,0.014000000000
28.330401435000,-0.014000000000
28.338089462000,-0.032000000000
28.345777489000,0.170000000000
28.353465516000,0.648000000000
28.361153543000,0.909000000000
28.368841570000,0.478000000000
28.376529597000,-0.209000000000
28.384217624000,-0.387000000000
28.391905651000,-0.187000000000
28.399593678000,-0.133000000000
28.407281705000,-0.130000000000
28.414969732000,-0.022000000000
28.422657759000,0.014000000000
28.430345786000,-0.012000000000
28.438033813000,0.007000000000
28.445721840000,0.032000000000
28.453409867000,0.022000000000
28.461097894000,0.022000000000
28.468785921000,0.039000000000
28.476473948000,0.041000000000
28.484161975000,0.039000000000
28.491850002000,0.044000000000
28.499538029000,0.051000000000
28.507226056000,0.054000000000
28.514914083000,0.056000000000
28.522602110000,0.061000000000
28.530290137000,0.071000000000
28.537978164000,0.081000000000
28.545666191000,0.091000000000
28.553354218000,0.093000000000
28.561042245000,0.103000000000
28.568730272000,0.123000000000
28.576418299000,0.138000000000
28.584106326000,0.150000000000
28.591794353000,0.165000000000
28.599482380000,0.177000000000
28.607170407000,0.189000000000
28.614858434000,0.197000000000
28.622546461000,0.199000000000
28.630234488000,0.192000000000
28.637922515000,0.172000000000
28.645610542000,0.138000000000
28.653298569000,0.091000000000
28.660986596000,0.034000000000
28.668674623000,-0.012000000000
28.676362650000,-0.044000000000
28.684050677000,-0.071000000000
28.691738704000,-0.093000000000
28.699426731000,-0.101000000000
28.707114758000,-0.098000000000
28.714802785000,-0.101000000000
28.722490812000,-0.106000000000
28.730178839000,-0.101000000000
28.737866866000,-0.093000000000
28.745554893000,-0.093000000000
28.753242920000,-0.088000000000
28.760930947000,-0.081000000000
28.768618974000,-0.076000000000
28.776307050000,-0.073000000000
28.783995077000,-0.064000000000
28.791683104000,-0.064000000000
28.799371131000,-0.069000000000
28.807059158000,-0.066000000000
28.814747185000,-0.059000000000
28.822435212000,-0.059000000000
28.830123239000,-0.061000000000
28.837811266000,-0.064000000000
28.845499293000,-0.064000000000
28.853187320000,-0.069000000000
28.860875347000,-0.069000000000
28.868563374000,-0.066000000000
28.876251401000,-0.071000000000
28.883939428000,-0.076000000000
28.891627455000,-0.069000000000
28.899315482000,-0.061000000000
28.907003509000,-0.066000000000
28.914691536000,-0.069000000000
28.922379563000,-0.069000000000
28.930067590000,-0.071000000000
28.937755617000,-0.069000000000
28.945443644000,-0.061000000000
28.953131671000,-0.061000000000
28.960819698000,-0.066000000000
28.968507725000,-0.064000000000
28.976195752000,-0.061000000000
28.983883779000,-0.061000000000
28.991571806000,-0.061000000000
28.999259833000,-0.059000000000
29.006947860000,-0.061000000000
29.014635887000,-0.064000000000
29.022323914000,-0.061000000000
29.030011941000,-0.059000000000
29.037699968000,-0.059000000000
29.045387995000,-0.066000000000
29.053076022000,-0.069000000000
29.060764049000,-0.066000000000
29.068452076000,-0.054000000000
29.076140103000,-0.046000000000
29.083828130000,-0.046000000000
29.091516157000,-0.041000000000
29.099204184000,-0.032000000000
29.106892211000,-0.036000000000
29.114580238000,-0.044000000000
29.122268265000,-0.049000000000
29.129956292000,-0.059000000000
29.137644319000,-0.066000000000
29.145332346000,-0.064000000000
29.153020373000,-0.064000000000
29.160708400000,-0.069000000000
29.168396427000,-0.073000000000
29.176084454000,-0.093000000000
29.183772481000,-0.081000000000
29.191460508000,0.160000000000
29.199148535000,0.636000000000
29.206836562000,0.843000000000
29.214524589000,0.372000000000
29.222212616000,-0.278000000000
29.229900643000,-0.399000000000
29.237588670000,-0.214000000000
29.245276697000,-0.199000000000
29.252964724000,-0.194000000000
29.260652751000,-0.088000000000
29.268340778000,-0.069000000000
29.276028805000,-0.101000000000
29.283716832000,-0.078000000000
29.291404859000,-0.056000000000
29.299092886000,-0.066000000000
29.306780913000,-0.064000000000
29.314468940000,-0.059000000000
29.322156967000,-0.054000000000
29.329844994000,-0.039000000000
29.337533070000,-0.032000000000
29.345221097000,-0.036000000000
