time,LSB
0.000000000000,0.839000000000
0.007687539000,0.052000000000
0.015375078000,-0.485000000000
0.023062617000,-0.365000000000
0.030750156000,-0.194000000000
0.038437695000,-0.233000000000
0.046125234000,-0.177000000000
0.053812773000,-0.088000000000
0.061500312000,-0.108000000000
0.069187851000,-0.110000000000
0.076875390000,-0.072000000000
0.084562929000,-0.064000000000
0.092250468000,-0.064000000000
0.099938007000,-0.050000000000
0.107625546000,-0.040000000000
0.115313085000,-0.040000000000
0.123000624000,-0.033000000000
0.130688163000,-0.021000000000
0.138375702000,-0.014000000000
0.146063241000,-0.007000000000
0.153750780000,0.000000000000
0.161438319000,0.007000000000
0.169125858000,0.014000000000
0.176813397000,0.016000000000
0.184500936000,0.024000000000
0.192188475000,0.033000000000
0.199876014000,0.040000000000
0.207563553000,0.048000000000
0.215251092000,0.057000000000
0.222938631000,0.072000000000
0.230626170000,0.086000000000
0.238313709000,0.098000000000
0.246001248000,0.105000000000
0.253688787000,0.098000000000
0.261376326000,0.079000000000
0.269063865000,0.050000000000
0.276751404000,0.016000000000
0.284438943000,-0.016000000000
0.292126482000,-0.050000000000
0.299814093000,-0.076000000000
0.307501214000,-0.101000000000
0.315188335000,-0.115000000000
0.322875456000,-0.125000000000
0.330562577000,-0.125000000000
0.338249698000,-0.125000000000
0.345936819000,-0.125000000000
0.353623940000,-0.125000000000
0.361311061000,-0.120000000000
0.368998182000,-0.120000000000
0.376685303000,-0.122000000000
0.384372424000,-0.125000000000
0.392059545000,-0.127000000000
0.399746666000,-0.129000000000
0.407433787000,-0.129000000000
0.415120908000,-0.129000000000
0.422808029000,-0.129000000000
0.430495150000,-0.132000000000
0.438182271000,-0.132000000000
0.445869392000,-0.127000000000
0.453556513000,-0.125000000000
0.461243634000,-0.122000000000
0.468930755000,-0.122000000000
0.476617876000,-0.122000000000
0.484304997000,-0.120000000000
0.491992118000,-0.117000000000
0.499679239000,-0.125000000000
0.507366360000,-0.132000000000
0.515053481000,-0.129000000000
0.522740602000,-0.125000000000
0.530427723000,-0.113000000000
0.538114844000,-0.103000000000
0.545801965000,-0.096000000000
0.553489086000,-0.074000000000
0.561176207000,-0.052000000000
0.568863328000,-0.064000000000
0.576550449000,-0.088000000000
0.584237570000,-0.088000000000
0.591924691000,-0.084000000000
0.599611812000,-0.084000000000
0.607298933000,-0.081000000000
0.614986054000,-0.076000000000
0.622673175000,-0.084000000000
0.630360296000,-0.115000000000
0.638047417000,-0.105000000000
0.645734538000,0.182000000000
0.653421659000,0.764000000000
0.661108780000,1.038000000000
0.668795901000,0.490000000000
0.676483022000,-0.334000000000
0.684170143000,-0.541000000000
0.691857264000,-0.288000000000
0.699544385000,-0.218000000000
0.707231506000,-0.235000000000
0.714918627000,-0.127000000000
0.722605748000,-0.076000000000
0.730292869000,-0.103000000000
0.737979990000,-0.086000000000
0.745667111000,-0.057000000000
0.753354232000,-0.057000000000
0.761041353000,-0.050000000000
0.768728474000,-0.033000000000
0.776415595000,-0.028000000000
0.784102716000,-0.024000000000
0.791789837000,-0.014000000000
0.799476958000,-0.007000000000
0.807164079000,0.002000000000
0.814851200000,0.012000000000
0.822538321000,0.019000000000
0.830225442000,0.026000000000
0.837912563000,0.036000000000
0.845599684000,0.045000000000
0.853286805000,0.057000000000
0.860973990000,0.072000000000
0.868661320000,0.093000000000
0.876348650000,0.108000000000
0.884035980000,0.122000000000
0.891723310000,0.137000000000
0.899410640000,0.149000000000
0.907097970000,0.156000000000
0.914785300000,0.153000000000
0.922472630000,0.132000000000
0.930159960000,0.098000000000
0.937847290000,0.062000000000
0.945534620000,0.014000000000
0.953221950000,-0.031000000000
0.960909280000,-0.069000000000
0.968596610000,-0.103000000000
0.976283940000,-0.120000000000
0.983971270000,-0.127000000000
0.991658600000,-0.129000000000
0.999345930000,-0.137000000000
1.007033260000,-0.137000000000
1.014720590000,-0.134000000000
1.022407920000,-0.137000000000
1.030095250000,-0.137000000000
1.037782580000,-0.132000000000
1.045469910000,-0.134000000000
1.053157240000,-0.141000000000
1.060844570000,-0.139000000000
1.068531900000,-0.139000000000
1.076219230000,-0.141000000000
1.083906560000,-0.144000000000
1.091593890000,-0.141000000000
1.099281220000,-0.141000000000
1.106968550000,-0.141000000000
1.114655880000,-0.141000000000
1.122343210000,-0.141000000000
1.130030540000,-0.139000000000
1.137717870000,-0.132000000000
1.145405200000,-0.132000000000
1.153092530000,-0.132000000000
1.160779860000,-0.127000000000
1.168467190000,-0.127000000000
1.176154520000,-0.137000000000
1.183841850000,-0.139000000000
1.191529180000,-0.139000000000
1.199216510000,-0.139000000000
1.206903840000,-0.127000000000
1.214591170000,-0.113000000000
1.222278500000,-0.105000000000
1.229965830000,-0.084000000000
1.237653160000,-0.062000000000
1.245340490000,-0.076000000000
1.253027820000,-0.096000000000
1.260715150000,-0.096000000000
1.268402480000,-0.093000000000
1.276089810000,-0.093000000000
1.283777140000,-0.088000000000
1.291464470000,-0.086000000000
1.299151800000,-0.096000000000
1.306839130000,-0.132000000000
1.314526460000,-0.115000000000
1.322213790000,0.202000000000
1.329901120000,0.788000000000
1.337588450000,1.036000000000
1.345275780000,0.483000000000
1.352963110000,-0.324000000000
1.360650440000,-0.519000000000
1.368337770000,-0.271000000000
1.376025100000,-0.214000000000
1.383712430000,-0.230000000000
1.391399760000,-0.127000000000
1.399087090000,-0.093000000000
1.406774420000,-0.120000000000
1.414461750000,-0.096000000000
1.422149148000,-0.067000000000
1.429836478000,-0.069000000000
1.437523808000,-0.062000000000
1.445211138000,-0.048000000000
1.452898468000,-0.043000000000
1.460585798000,-0.040000000000
1.468273128000,-0.031000000000
1.475960458000,-0.021000000000
1.483647788000,-0.014000000000
1.491335118000,-0.007000000000
1.499022448000,0.000000000000
1.506709778000,0.004000000000
1.514397108000,0.009000000000
1.522084438000,0.021000000000
1.529771768000,0.028000000000
1.537459098000,0.033000000000
1.545146428000,0.040000000000
1.552833758000,0.050000000000
1.560521088000,0.060000000000
1.568208418000,0.074000000000
1.575895748000,0.088000000000
1.583583078000,0.096000000000
1.591270408000,0.101000000000
1.598957738000,0.091000000000
1.606645068000,0.067000000000
1.614332398000,0.036000000000
1.622019728000,0.002000000000
1.629707058000,-0.033000000000
1.637394388000,-0.064000000000
1.645081718000,-0.091000000000
1.652769048000,-0.110000000000
1.660456378000,-0.120000000000
1.668143708000,-0.125000000000
1.675831038000,-0.127000000000
1.683518368000,-0.125000000000
1.691205698000,-0.125000000000
1.698893028000,-0.127000000000
1.706580358000,-0.127000000000
1.714267688000,-0.125000000000
1.721955018000,-0.125000000000
1.729642348000,-0.127000000000
1.737329678000,-0.127000000000
1.745017008000,-0.127000000000
1.752704338000,-0.129000000000
1.760391668000,-0.129000000000
1.768078998000,-0.129000000000
1.775766328000,-0.129000000000
1.783453658000,-0.127000000000
1.791140988000,-0.127000000000
1.798828318000,-0.125000000000
1.806515648000,-0.120000000000
1.814202978000,-0.125000000000
1.821890308000,-0.132000000000
1.829577638000,-0.137000000000
1.837264968000,-0.137000000000
1.844952298000,-0.132000000000
1.852639628000,-0.120000000000
1.860326958000,-0.110000000000
1.868014288000,-0.101000000000
1.875701618000,-0.076000000000
1.883388948000,-0.060000000000
1.891076278000,-0.076000000000
1.898763608000,-0.096000000000
1.906450938000,-0.091000000000
1.914138268000,-0.088000000000
1.921825598000,-0.091000000000
1.929512928000,-0.084000000000
1.937200258000,-0.081000000000
1.944887588000,-0.093000000000
1.952574918000,-0.134000000000
1.960262248000,-0.132000000000
1.967949578000,0.158000000000
1.975636908000,0.745000000000
1.983324302000,1.053000000000
1.991011772000,0.591000000000
1.998699242000,-0.211000000000
2.006386712000,-0.476000000000
2.014074182000,-0.257000000000
2.021761652000,-0.194000000000
2.029449122000,-0.226000000000
2.037136592000,-0.132000000000
2.044824062000,-0.093000000000
2.052511532000,-0.122000000000
2.060199002000,-0.101000000000
2.067886472000,-0.072000000000
2.075573942000,-0.072000000000
2.083261412000,-0.064000000000
2.090948882000,-0.048000000000
2.098636352000,-0.043000000000
2.106323822000,-0.043000000000
2.114011292000,-0.031000000000
2.121698762000,-0.024000000000
2.129386232000,-0.019000000000
2.137073702000,-0.009000000000
2.144761172000,0.000000000000
2.152448642000,0.004000000000
2.160136112000,0.012000000000
2.167823582000,0.019000000000
2.175511052000,0.026000000000
2.183198522000,0.033000000000
2.190885992000,0.036000000000
2.198573462000,0.043000000000
2.206260932000,0.052000000000
2.213948402000,0.060000000000
2.221635872000,0.067000000000
2.229323342000,0.076000000000
2.237010812000,0.079000000000
2.244698282000,0.069000000000
2.252385752000,0.045000000000
2.260073222000,0.014000000000
2.267760692000,-0.016000000000
2.275448162000,-0.048000000000
2.283135632000,-0.076000000000
2.290823102000,-0.098000000000
2.298510572000,-0.110000000000
2.306198042000,-0.117000000000
2.313885512000,-0.122000000000
2.321572982000,-0.120000000000
2.329260452000,-0.117000000000
2.336947922000,-0.117000000000
2.344635392000,-0.117000000000
2.352322862000,-0.120000000000
2.360010332000,-0.120000000000
2.367697802000,-0.117000000000
2.375385272000,-0.117000000000
2.383072742000,-0.120000000000
2.390760212000,-0.125000000000
2.398447682000,-0.122000000000
2.406135152000,-0.122000000000
2.413822622000,-0.125000000000
2.421510092000,-0.125000000000
2.429197562000,-0.120000000000
2.436885032000,-0.117000000000
2.444572502000,-0.120000000000
2.452259972000,-0.125000000000
2.459947442000,-0.129000000000
2.467634912000,-0.132000000000
2.475322382000,-0.129000000000
2.483009852000,-0.117000000000
2.490697322000,-0.108000000000
2.498384792000,-0.098000000000
2.506072262000,-0.076000000000
2.513759732000,-0.055000000000
2.521447202000,-0.069000000000
2.529134672000,-0.091000000000
2.536822142000,-0.088000000000
2.544509634000,-0.084000000000
2.552197661000,-0.086000000000
2.559885688000,-0.081000000000
2.567573715000,-0.079000000000
2.575261742000,-0.088000000000
2.582949769000,-0.129000000000
2.590637796000,-0.153000000000
2.598325823000,0.091000000000
2.606013850000,0.673000000000
2.613701877000,1.043000000000
2.621389904000,0.639000000000
2.629077931000,-0.168000000000
2.636765958000,-0.490000000000
2.644453985000,-0.286000000000
2.652142012000,-0.197000000000
2.659830039000,-0.230000000000
2.667518066000,-0.139000000000
2.675206093000,-0.084000000000
2.682894120000,-0.113000000000
2.690582147000,-0.096000000000
2.698270174000,-0.064000000000
2.705958201000,-0.067000000000
2.713646228000,-0.060000000000
2.721334255000,-0.040000000000
2.729022282000,-0.036000000000
2.736710309000,-0.033000000000
2.744398336000,-0.024000000000
2.752086363000,-0.016000000000
2.759774390000,-0.009000000000
2.767462417000,-0.002000000000
2.775150444000,0.007000000000
2.782838471000,0.016000000000
2.790526498000,0.024000000000
2.798214525000,0.031000000000
2.805902552000,0.040000000000
2.813590579000,0.050000000000
2.821278606000,0.060000000000
2.828966633000,0.067000000000
2.836654660000,0.074000000000
2.844342687000,0.086000000000
2.852030714000,0.098000000000
2.859718741000,0.105000000000
2.867406768000,0.103000000000
2.875094795000,0.088000000000
2.882782822000,0.057000000000
2.890470849000,0.019000000000
2.898158876000,-0.016000000000
2.905846903000,-0.052000000000
2.913534930000,-0.086000000000
2.921222957000,-0.110000000000
2.928910984000,-0.122000000000
2.936599011000,-0.129000000000
2.944287038000,-0.134000000000
2.951975065000,-0.137000000000
2.959663092000,-0.134000000000
2.967351119000,-0.132000000000
2.975039146000,-0.132000000000
2.982727173000,-0.129000000000
2.990415200000,-0.129000000000
2.998103227000,-0.132000000000
3.005791254000,-0.134000000000
3.013479281000,-0.134000000000
3.021167308000,-0.137000000000
3.028855335000,-0.139000000000
3.036543362000,-0.139000000000
3.044231389000,-0.141000000000
3.051919416000,-0.141000000000
3.059607443000,-0.146000000000
3.067295470000,-0.153000000000
3.074983497000,-0.158000000000
3.082671524000,-0.163000000000
3.090359551000,-0.163000000000
3.098047578000,-0.153000000000
3.105735652000,-0.141000000000
3.113423052000,-0.134000000000
3.121110452000,-0.115000000000
3.128797852000,-0.096000000000
3.136485252000,-0.108000000000
3.144172652000,-0.127000000000
3.151860052000,-0.127000000000
3.159547452000,-0.129000000000
3.167234852000,-0.134000000000
3.174922252000,-0.127000000000
3.182609652000,-0.122000000000
3.190297052000,-0.132000000000
3.197984452000,-0.177000000000
3.205671852000,-0.216000000000
3.213359252000,-0.016000000000
3.221046652000,0.545000000000
3.228734052000,0.964000000000
3.236421452000,0.634000000000
3.244108852000,-0.170000000000
3.251796252000,-0.550000000000
3.259483652000,-0.367000000000
3.267171052000,-0.257000000000
3.274858452000,-0.290000000000
3.282545852000,-0.206000000000
3.290233252000,-0.144000000000
3.297920652000,-0.170000000000
3.305608052000,-0.163000000000
3.313295452000,-0.132000000000
3.320982852000,-0.127000000000
3.328670252000,-0.125000000000
3.336357652000,-0.113000000000
3.344045052000,-0.108000000000
3.351732452000,-0.103000000000
3.359419852000,-0.096000000000
3.367107252000,-0.086000000000
3.374794652000,-0.081000000000
3.382482052000,-0.074000000000
3.390169452000,-0.069000000000
3.397856852000,-0.060000000000
3.405544252000,-0.050000000000
3.413231652000,-0.045000000000
3.420919052000,-0.033000000000
3.428606452000,-0.024000000000
3.436293852000,-0.014000000000
3.443981252000,-0.004000000000
3.451668652000,0.007000000000
3.459356052000,0.019000000000
3.467043452000,0.031000000000
3.474730852000,0.038000000000
3.482418252000,0.033000000000
3.490105652000,0.012000000000
3.497793052000,-0.019000000000
3.505480452000,-0.057000000000
3.513167852000,-0.096000000000
3.520855252000,-0.134000000000
3.528542652000,-0.165000000000
3.536230052000,-0.185000000000
3.543917452000,-0.199000000000
3.551604852000,-0.209000000000
3.559292252000,-0.211000000000
3.566979652000,-0.209000000000
3.574667052000,-0.211000000000
3.582354452000,-0.211000000000
3.590041852000,-0.206000000000
3.597729252000,-0.204000000000
3.605416652000,-0.206000000000
3.613104052000,-0.206000000000
3.620791452000,-0.206000000000
3.628478852000,-0.209000000000
3.636166252000,-0.209000000000
3.643853652000,-0.209000000000
3.651541052000,-0.209000000000
3.659228452000,-0.209000000000
3.666915897000,-0.211000000000
3.674602461000,-0.218000000000
3.682289025000,-0.226000000000
3.689975589000,-0.223000000000
3.697662153000,-0.216000000000
3.705348717000,-0.204000000000
3.713035281000,-0.197000000000
3.720721845000,-0.182000000000
3.728408409000,-0.156000000000
3.736094973000,-0.144000000000
3.743781537000,-0.163000000000
3.751468101000,-0.177000000000
3.759154665000,-0.173000000000
3.766841229000,-0.168000000000
3.774527793000,-0.168000000000
3.782214357000,-0.161000000000
3.789900921000,-0.158000000000
3.797587485000,-0.175000000000
3.805274049000,-0.233000000000
3.812960613000,-0.216000000000
3.820647177000,0.149000000000
3.828333741000,0.750000000000
3.836020305000,0.906000000000
3.843706869000,0.288000000000
3.851393433000,-0.430000000000
3.859079997000,-0.514000000000
3.866766561000,-0.290000000000
3.874453125000,-0.276000000000
3.882139689000,-0.269000000000
3.889826253000,-0.161000000000
3.897512817000,-0.141000000000
3.905199381000,-0.163000000000
3.912885945000,-0.132000000000
3.920572509000,-0.108000000000
3.928259073000,-0.110000000000
3.935945637000,-0.098000000000
3.943632201000,-0.084000000000
3.951318765000,-0.079000000000
3.959005329000,-0.074000000000
3.966691893000,-0.062000000000
3.974378457000,-0.052000000000
3.982065021000,-0.043000000000
3.989751585000,-0.031000000000
3.997438149000,-0.024000000000
4.005124713000,-0.016000000000
4.012811277000,-0.004000000000
4.020497841000,0.004000000000
4.028184405000,0.016000000000
4.035870969000,0.031000000000
4.043557533000,0.043000000000
4.051244097000,0.052000000000
4.058930661000,0.067000000000
4.066617225000,0.081000000000
4.074303789000,0.096000000000
4.081990353000,0.098000000000
4.089676917000,0.088000000000
4.097363481000,0.062000000000
4.105050045000,0.026000000000
4.112736609000,-0.009000000000
4.120423173000,-0.048000000000
4.128109737000,-0.081000000000
4.135796301000,-0.108000000000
4.143482865000,-0.125000000000
4.151169429000,-0.134000000000
4.158855993000,-0.137000000000
4.166542557000,-0.137000000000
4.174229121000,-0.134000000000
4.181915685000,-0.132000000000
4.189602249000,-0.129000000000
4.197288813000,-0.127000000000
4.204975377000,-0.125000000000
4.212661941000,-0.125000000000
4.220348505000,-0.125000000000
4.228035104000,-0.127000000000
4.235722504000,-0.127000000000
4.243409904000,-0.125000000000
4.251097304000,-0.125000000000
4.258784704000,-0.129000000000
4.266472104000,-0.141000000000
4.274159504000,-0.149000000000
4.281846904000,-0.146000000000
4.289534304000,-0.137000000000
4.297221704000,-0.125000000000
4.304909104000,-0.117000000000
4.312596504000,-0.103000000000
4.320283904000,-0.074000000000
4.327971304000,-0.064000000000
4.335658704000,-0.086000000000
4.343346104000,-0.101000000000
4.351033504000,-0.093000000000
4.358720904000,-0.093000000000
4.366408304000,-0.093000000000
4.374095704000,-0.088000000000
4.381783104000,-0.081000000000
4.389470504000,-0.101000000000
4.397157904000,-0.165000000000
4.404845304000,-0.141000000000
4.412532704000,0.250000000000
4.420220104000,0.846000000000
4.427907504000,0.935000000000
4.435594904000,0.259000000000
4.443282304000,-0.428000000000
4.450969704000,-0.444000000000
4.458657104000,-0.214000000000
4.466344504000,-0.209000000000
4.474031904000,-0.187000000000
4.481719304000,-0.081000000000
4.489406704000,-0.069000000000
4.497094104000,-0.088000000000
4.504781504000,-0.060000000000
4.512468904000,-0.040000000000
4.520156304000,-0.045000000000
4.527843704000,-0.031000000000
4.535531104000,-0.014000000000
4.543218504000,-0.009000000000
4.550905904000,-0.004000000000
4.558593304000,0.004000000000
4.566280704000,0.014000000000
4.573968104000,0.026000000000
4.581655504000,0.036000000000
4.589342904000,0.043000000000
4.597030304000,0.052000000000
4.604717704000,0.067000000000
4.612405104000,0.081000000000
4.620092504000,0.093000000000
4.627779904000,0.105000000000
4.635467304000,0.117000000000
4.643154704000,0.132000000000
4.650842104000,0.144000000000
4.658529504000,0.158000000000
4.666216904000,0.173000000000
4.673904304000,0.173000000000
4.681591704000,0.153000000000
4.689279104000,0.122000000000
4.696966504000,0.086000000000
4.704653904000,0.040000000000
4.712341304000,-0.002000000000
4.720028704000,-0.038000000000
4.727716104000,-0.067000000000
4.735403504000,-0.088000000000
4.743090904000,-0.098000000000
4.750778304000,-0.103000000000
4.758465704000,-0.105000000000
4.766153104000,-0.103000000000
4.773840504000,-0.096000000000
4.781527904000,-0.098000000000
4.789215345000,-0.103000000000
4.796902466000,-0.101000000000
4.804589587000,-0.096000000000
4.812276708000,-0.098000000000
4.819963829000,-0.101000000000
4.827650950000,-0.103000000000
4.835338071000,-0.108000000000
4.843025192000,-0.110000000000
4.850712313000,-0.110000000000
4.858399434000,-0.115000000000
4.866086555000,-0.117000000000
4.873773676000,-0.110000000000
4.881460797000,-0.101000000000
4.889147918000,-0.098000000000
4.896835039000,-0.091000000000
4.904522160000,-0.064000000000
4.912209281000,-0.052000000000
4.919896402000,-0.069000000000
4.927583523000,-0.081000000000
4.935270644000,-0.079000000000
4.942957765000,-0.079000000000
4.950644886000,-0.076000000000
4.958332007000,-0.069000000000
4.966019128000,-0.067000000000
4.973706249000,-0.088000000000
4.981393370000,-0.141000000000
4.989080491000,-0.088000000000
4.996767612000,0.331000000000
5.004454733000,0.909000000000
5.012141854000,0.880000000000
5.019828975000,0.088000000000
5.027516096000,-0.560000000000
5.035203217000,-0.466000000000
5.042890338000,-0.211000000000
5.050577459000,-0.218000000000
5.058264580000,-0.175000000000
5.065951701000,-0.052000000000
5.073638822000,-0.045000000000
5.081325943000,-0.062000000000
5.089013064000,-0.026000000000
5.096700185000,-0.009000000000
5.104387306000,-0.014000000000
5.112074427000,-0.002000000000
5.119761548000,0.012000000000
5.127448669000,0.014000000000
5.135135790000,0.021000000000
5.142822911000,0.033000000000
5.150510032000,0.040000000000
5.158197153000,0.050000000000
5.165884274000,0.060000000000
5.173571395000,0.067000000000
5.181258516000,0.079000000000
5.188945637000,0.091000000000
5.196632758000,0.103000000000
5.204319879000,0.117000000000
5.212007000000,0.132000000000
5.219694121000,0.149000000000
5.227381242000,0.163000000000
5.235068363000,0.180000000000
5.242755484000,0.194000000000
5.250442605000,0.202000000000
5.258129726000,0.202000000000
5.265816847000,0.185000000000
5.273503968000,0.146000000000
5.281191089000,0.096000000000
5.288878210000,0.040000000000
5.296565331000,-0.009000000000
5.304252452000,-0.050000000000
5.311939573000,-0.079000000000
5.319626694000,-0.098000000000
5.327313815000,-0.108000000000
5.335000936000,-0.110000000000
5.342688057000,-0.108000000000
5.350375242000,-0.103000000000
5.358062712000,-0.101000000000
5.365750182000,-0.098000000000
5.373437652000,-0.098000000000
5.381125122000,-0.098000000000
5.388812592000,-0.098000000000
5.396500062000,-0.103000000000
5.404187532000,-0.108000000000
5.411875002000,-0.110000000000
5.419562472000,-0.113000000000
5.427249942000,-0.113000000000
5.434937412000,-0.120000000000
5.442624882000,-0.129000000000
5.450312352000,-0.134000000000
5.457999822000,-0.134000000000
5.465687292000,-0.129000000000
5.473374762000,-0.120000000000
5.481062232000,-0.115000000000
5.488749702000,-0.103000000000
5.496437172000,-0.074000000000
5.504124642000,-0.064000000000
5.511812112000,-0.088000000000
5.519499582000,-0.103000000000
5.527187052000,-0.098000000000
5.534874522000,-0.096000000000
5.542561992000,-0.096000000000
5.550249462000,-0.088000000000
5.557936932000,-0.088000000000
5.565624402000,-0.110000000000
5.573311872000,-0.170000000000
5.580999342000,-0.139000000000
5.588686812000,0.269000000000
5.596374282000,0.894000000000
5.604061752000,1.024000000000
5.611749222000,0.341000000000
5.619436692000,-0.404000000000
5.627124162000,-0.447000000000
5.634811632000,-0.202000000000
5.642499102000,-0.209000000000
5.650186572000,-0.209000000000
5.657874042000,-0.103000000000
5.665561512000,-0.091000000000
5.673248982000,-0.115000000000
5.680936452000,-0.079000000000
5.688623922000,-0.055000000000
5.696311392000,-0.060000000000
5.703998862000,-0.050000000000
5.711686332000,-0.038000000000
5.719373802000,-0.036000000000
5.727061272000,-0.028000000000
5.734748742000,-0.019000000000
5.742436212000,-0.014000000000
5.750123682000,-0.004000000000
5.757811152000,0.002000000000
5.765498622000,0.012000000000
5.773186092000,0.019000000000
5.780873562000,0.026000000000
5.788561032000,0.036000000000
5.796248502000,0.043000000000
5.803935972000,0.048000000000
5.811623442000,0.052000000000
5.819310912000,0.057000000000
5.826998382000,0.064000000000
5.834685852000,0.072000000000
5.842373322000,0.081000000000
5.850060792000,0.088000000000
5.857748262000,0.086000000000
5.865435732000,0.069000000000
5.873123202000,0.040000000000
5.880810672000,0.007000000000
5.888498142000,-0.028000000000
5.896185612000,-0.060000000000
5.903873082000,-0.084000000000
5.911560574000,-0.098000000000
5.919247765000,-0.105000000000
5.926934956000,-0.110000000000
5.934622147000,-0.113000000000
5.942309338000,-0.108000000000
5.949996529000,-0.105000000000
5.957683720000,-0.105000000000
5.965370911000,-0.105000000000
5.973058102000,-0.103000000000
5.980745293000,-0.103000000000
5.988432484000,-0.105000000000
5.996119675000,-0.105000000000
6.003806866000,-0.108000000000
6.011494057000,-0.110000000000
6.019181248000,-0.110000000000
6.026868439000,-0.110000000000
6.034555630000,-0.113000000000
6.042242821000,-0.115000000000
6.049930012000,-0.113000000000
6.057617203000,-0.110000000000
6.065304394000,-0.110000000000
6.072991585000,-0.113000000000
6.080678776000,-0.120000000000
6.088365967000,-0.127000000000
6.096053158000,-0.125000000000
6.103740349000,-0.115000000000
6.111427540000,-0.103000000000
6.119114731000,-0.096000000000
6.126801922000,-0.079000000000
6.134489113000,-0.052000000000
6.142176304000,-0.050000000000
6.149863495000,-0.076000000000
6.157550686000,-0.084000000000
6.165237877000,-0.079000000000
6.172925068000,-0.079000000000
6.180612259000,-0.079000000000
6.188299450000,-0.074000000000
6.195986641000,-0.072000000000
6.203673832000,-0.091000000000
6.211361023000,-0.139000000000
6.219048214000,-0.098000000000
6.226735405000,0.281000000000
6.234422596000,0.887000000000
6.242109787000,1.077000000000
6.249796978000,0.471000000000
6.257484169000,-0.300000000000
6.265171360000,-0.418000000000
6.272858551000,-0.194000000000
6.280545742000,-0.197000000000
6.288232933000,-0.204000000000
6.295920124000,-0.105000000000
6.303607315000,-0.093000000000
6.311294506000,-0.117000000000
6.318981697000,-0.084000000000
6.326668888000,-0.062000000000
6.334356079000,-0.064000000000
6.342043270000,-0.055000000000
6.349730461000,-0.045000000000
6.357417652000,-0.040000000000
6.365104843000,-0.033000000000
6.372792034000,-0.024000000000
6.380479225000,-0.019000000000
6.388166416000,-0.012000000000
6.395853607000,-0.004000000000
6.403540798000,0.002000000000
6.411227989000,0.007000000000
6.418915180000,0.012000000000
6.426602371000,0.014000000000
6.434289562000,0.019000000000
6.441976753000,0.024000000000
6.449663944000,0.026000000000
6.457351135000,0.028000000000
6.465038326000,0.028000000000
6.472725554000,0.033000000000
6.480413093000,0.043000000000
6.488100632000,0.052000000000
6.495788171000,0.055000000000
6.503475710000,0.048000000000
6.511163249000,0.031000000000
6.518850788000,0.007000000000
6.526538327000,-0.019000000000
6.534225866000,-0.045000000000
6.541913405000,-0.069000000000
6.549600944000,-0.088000000000
6.557288483000,-0.098000000000
6.564976022000,-0.103000000000
6.572663561000,-0.103000000000
6.580351100000,-0.101000000000
6.588038639000,-0.101000000000
6.595726178000,-0.098000000000
6.603413717000,-0.098000000000
6.611101256000,-0.098000000000
6.618788795000,-0.101000000000
6.626476334000,-0.103000000000
6.634163873000,-0.105000000000
6.641851412000,-0.105000000000
6.649538951000,-0.108000000000
6.657226490000,-0.110000000000
6.664914029000,-0.110000000000
6.672601568000,-0.110000000000
6.680289107000,-0.113000000000
6.687976646000,-0.113000000000
6.695664185000,-0.113000000000
6.703351724000,-0.110000000000
6.711039263000,-0.108000000000
6.718726802000,-0.108000000000
6.726414341000,-0.105000000000
6.734101880000,-0.103000000000
6.741789419000,-0.101000000000
6.749476958000,-0.098000000000
6.757164497000,-0.098000000000
6.764852036000,-0.096000000000
6.772539575000,-0.091000000000
6.780227114000,-0.088000000000
6.787914653000,-0.088000000000
6.795602192000,-0.086000000000
6.803289731000,-0.086000000000
6.810977270000,-0.086000000000
6.818664809000,-0.088000000000
6.826352348000,-0.096000000000
6.834039887000,-0.103000000000
6.841727426000,-0.103000000000
6.849414965000,-0.091000000000
6.857102504000,-0.079000000000
6.864790043000,-0.074000000000
6.872477582000,-0.062000000000
6.880165121000,-0.033000000000
6.887852660000,-0.031000000000
6.895540199000,-0.060000000000
6.903227738000,-0.069000000000
6.910915277000,-0.062000000000
6.918602816000,-0.064000000000
6.926290355000,-0.064000000000
6.933977894000,-0.060000000000
6.941665433000,-0.062000000000
6.949352972000,-0.084000000000
6.957040511000,-0.137000000000
6.964728050000,-0.067000000000
6.972415589000,0.363000000000
6.980103128000,0.947000000000
6.987790667000,1.014000000000
6.995478206000,0.312000000000
7.003165745000,-0.389000000000
7.010853284000,-0.384000000000
7.018540823000,-0.168000000000
7.026228362000,-0.206000000000
7.033915973000,-0.192000000000
7.041603512000,-0.093000000000
7.049291051000,-0.101000000000
7.056978590000,-0.117000000000
7.064666129000,-0.079000000000
7.072353668000,-0.062000000000
7.080041207000,-0.067000000000
7.087728746000,-0.055000000000
7.095416285000,-0.045000000000
7.103103824000,-0.043000000000
7.110791363000,-0.033000000000
7.118478902000,-0.028000000000
7.126166441000,-0.024000000000
7.133853980000,-0.016000000000
7.141541519000,-0.009000000000
7.149229058000,-0.004000000000
7.156916597000,0.000000000000
7.164604136000,0.004000000000
7.172291675000,0.007000000000
7.179979214000,0.009000000000
7.187666753000,0.012000000000
7.195354292000,0.012000000000
7.203041831000,0.014000000000
7.210729370000,0.019000000000
7.218416909000,0.026000000000
7.226104448000,0.033000000000
7.233791987000,0.045000000000
7.241479526000,0.055000000000
7.249167065000,0.052000000000
7.256854604000,0.040000000000
7.264542143000,0.024000000000
7.272229682000,0.002000000000
7.279917221000,-0.021000000000
7.287604760000,-0.048000000000
7.295292299000,-0.072000000000
7.302979838000,-0.084000000000
7.310667377000,-0.093000000000
7.318354916000,-0.098000000000
7.326042455000,-0.098000000000
7.333729994000,-0.101000000000
7.341417533000,-0.103000000000
7.349105072000,-0.103000000000
7.356792611000,-0.103000000000
7.364480150000,-0.103000000000
7.372167689000,-0.105000000000
7.379855228000,-0.108000000000
7.387542767000,-0.110000000000
7.395230306000,-0.110000000000
7.402917845000,-0.110000000000
7.410605384000,-0.110000000000
7.418292923000,-0.115000000000
7.425980462000,-0.115000000000
7.433668001000,-0.113000000000
7.441355540000,-0.110000000000
7.449043079000,-0.113000000000
7.456730618000,-0.110000000000
7.464418157000,-0.108000000000
7.472105696000,-0.105000000000
7.479793235000,-0.105000000000
7.487480774000,-0.103000000000
7.495168313000,-0.101000000000
7.502855852000,-0.101000000000
7.510543391000,-0.098000000000
7.518230930000,-0.096000000000
7.525918469000,-0.093000000000
7.533606008000,-0.091000000000
7.541293547000,-0.088000000000
7.548981086000,-0.088000000000
7.556668625000,-0.086000000000
7.564356164000,-0.084000000000
7.572043703000,-0.081000000000
7.579731242000,-0.079000000000
7.587418781000,-0.076000000000
7.595106388000,-0.076000000000
7.602793718000,-0.076000000000
7.610481048000,-0.074000000000
7.618168378000,-0.072000000000
7.625855708000,-0.072000000000
7.633543038000,-0.072000000000
7.641230368000,-0.072000000000
7.648917698000,-0.079000000000
7.656605028000,-0.088000000000
7.664292358000,-0.093000000000
7.671979688000,-0.091000000000
7.679667018000,-0.079000000000
7.687354348000,-0.067000000000
7.695041678000,-0.062000000000
7.702729008000,-0.040000000000
7.710416338000,-0.019000000000
7.718103668000,-0.031000000000
7.725790998000,-0.057000000000
7.733478328000,-0.060000000000
7.741165658000,-0.055000000000
7.748852988000,-0.057000000000
7.756540318000,-0.057000000000
7.764227648000,-0.050000000000
7.771914978000,-0.060000000000
7.779602308000,-0.103000000000
7.787289638000,-0.120000000000
7.794976968000,0.122000000000
7.802664298000,0.690000000000
7.810351628000,1.077000000000
7.818038958000,0.704000000000
7.825726288000,-0.117000000000
7.833413618000,-0.464000000000
7.841100948000,-0.250000000000
7.848788278000,-0.170000000000
7.856475608000,-0.226000000000
7.864162938000,-0.141000000000
7.871850268000,-0.086000000000
7.879537598000,-0.120000000000
7.887224928000,-0.103000000000
7.894912258000,-0.069000000000
7.902599588000,-0.069000000000
7.910286918000,-0.067000000000
7.917974248000,-0.050000000000
7.925661578000,-0.045000000000
7.933348908000,-0.040000000000
7.941036238000,-0.033000000000
7.948723568000,-0.026000000000
7.956410898000,-0.021000000000
7.964098228000,-0.014000000000
7.971785558000,-0.007000000000
7.979472888000,0.000000000000
7.987160218000,0.004000000000
7.994847548000,0.009000000000
8.002534878000,0.012000000000
8.010222208000,0.016000000000
8.017909538000,0.019000000000
8.025596868000,0.021000000000
8.033284198000,0.026000000000
8.040971528000,0.033000000000
8.048658858000,0.043000000000
8.056346188000,0.052000000000
8.064033518000,0.062000000000
8.071720848000,0.069000000000
8.079408178000,0.062000000000
8.087095508000,0.048000000000
8.094782838000,0.026000000000
8.102470168000,0.000000000000
8.110157498000,-0.026000000000
8.117844828000,-0.052000000000
8.125532158000,-0.074000000000
8.133219488000,-0.088000000000
8.140906818000,-0.096000000000
8.148594148000,-0.101000000000
8.156281546000,-0.103000000000
8.163968876000,-0.103000000000
8.171656206000,-0.103000000000
8.179343536000,-0.103000000000
8.187030866000,-0.105000000000
8.194718196000,-0.105000000000
8.202405526000,-0.105000000000
8.210092856000,-0.108000000000
8.217780186000,-0.110000000000
8.225467516000,-0.113000000000
8.233154846000,-0.113000000000
8.240842176000,-0.115000000000
8.248529506000,-0.115000000000
8.256216836000,-0.113000000000
8.263904166000,-0.113000000000
8.271591496000,-0.117000000000
8.279278826000,-0.115000000000
8.286966156000,-0.110000000000
8.294653486000,-0.110000000000
8.302340816000,-0.108000000000
8.310028146000,-0.105000000000
8.317715476000,-0.105000000000
8.325402806000,-0.103000000000
8.333090136000,-0.101000000000
8.340777466000,-0.098000000000
8.348464796000,-0.098000000000
8.356152126000,-0.096000000000
8.363839456000,-0.093000000000
8.371526786000,-0.091000000000
8.379214116000,-0.088000000000
8.386901446000,-0.086000000000
8.394588776000,-0.081000000000
8.402276106000,-0.081000000000
8.409963436000,-0.079000000000
8.417650766000,-0.079000000000
8.425338096000,-0.076000000000
8.433025426000,-0.074000000000
8.440712756000,-0.072000000000
8.448400086000,-0.072000000000
8.456087416000,-0.079000000000
8.463774746000,-0.088000000000
8.471462076000,-0.093000000000
8.479149406000,-0.091000000000
8.486836736000,-0.079000000000
8.494524066000,-0.067000000000
8.502211396000,-0.060000000000
8.509898726000,-0.040000000000
8.517586056000,-0.019000000000
8.525273386000,-0.028000000000
8.532960716000,-0.055000000000
8.540648046000,-0.060000000000
8.548335376000,-0.052000000000
8.556022706000,-0.055000000000
8.563710036000,-0.055000000000
8.571397366000,-0.050000000000
8.579084696000,-0.062000000000
8.586772026000,-0.103000000000
8.594459356000,-0.093000000000
8.602146686000,0.197000000000
8.609834016000,0.774000000000
8.617521346000,1.055000000000
8.625208676000,0.560000000000
8.632896006000,-0.235000000000
8.640583336000,-0.461000000000
8.648270666000,-0.233000000000
8.655957996000,-0.187000000000
8.663645326000,-0.221000000000
8.671332656000,-0.117000000000
8.679019986000,-0.076000000000
8.686707316000,-0.108000000000
8.694394646000,-0.088000000000
8.702081976000,-0.060000000000
8.709769306000,-0.062000000000
8.717456700000,-0.052000000000
8.725144170000,-0.038000000000
8.732831640000,-0.033000000000
8.740519110000,-0.028000000000
8.748206580000,-0.019000000000
8.755894050000,-0.012000000000
8.763581520000,-0.007000000000
8.771268990000,0.002000000000
8.778956460000,0.009000000000
8.786643930000,0.016000000000
8.794331400000,0.024000000000
8.802018870000,0.031000000000
8.809706340000,0.038000000000
8.817393810000,0.043000000000
8.825081280000,0.050000000000
8.832768750000,0.052000000000
8.840456220000,0.057000000000
8.848143690000,0.064000000000
8.855831160000,0.072000000000
8.863518630000,0.079000000000
8.871206100000,0.084000000000
8.878893570000,0.081000000000
8.886581040000,0.067000000000
8.894268510000,0.040000000000
8.901955980000,0.009000000000
8.909643450000,-0.024000000000
8.917330920000,-0.055000000000
8.925018390000,-0.079000000000
8.932705860000,-0.098000000000
8.940393330000,-0.108000000000
8.948080800000,-0.113000000000
8.955768270000,-0.115000000000
8.963455740000,-0.115000000000
8.971143210000,-0.115000000000
8.978830680000,-0.110000000000
8.986518150000,-0.110000000000
8.994205620000,-0.110000000000
9.001893090000,-0.110000000000
9.009580560000,-0.110000000000
9.017268030000,-0.108000000000
9.024955500000,-0.108000000000
9.032642970000,-0.113000000000
9.040330440000,-0.113000000000
9.048017910000,-0.113000000000
9.055705380000,-0.113000000000
9.063392850000,-0.115000000000
9.071080320000,-0.117000000000
9.078767790000,-0.115000000000
9.086455260000,-0.115000000000
9.094142730000,-0.113000000000
9.101830200000,-0.110000000000
9.109517670000,-0.110000000000
9.117205140000,-0.108000000000
9.124892610000,-0.105000000000
9.132580080000,-0.101000000000
9.140267550000,-0.101000000000
9.147955020000,-0.098000000000
9.155642490000,-0.096000000000
9.163329960000,-0.093000000000
9.171017430000,-0.088000000000
9.178704900000,-0.088000000000
9.186392370000,-0.086000000000
9.194079840000,-0.086000000000
9.201767310000,-0.086000000000
9.209454780000,-0.084000000000
9.217142250000,-0.079000000000
9.224829720000,-0.079000000000
9.232517190000,-0.076000000000
9.240204660000,-0.076000000000
9.247892130000,-0.084000000000
9.255579600000,-0.093000000000
9.263267070000,-0.098000000000
9.270954540000,-0.093000000000
9.278642032000,-0.084000000000
9.286329223000,-0.072000000000
9.294016414000,-0.067000000000
9.301703605000,-0.050000000000
9.309390796000,-0.026000000000
9.317077987000,-0.028000000000
9.324765178000,-0.057000000000
9.332452369000,-0.067000000000
9.340139560000,-0.060000000000
9.347826751000,-0.060000000000
9.355513942000,-0.057000000000
9.363201133000,-0.052000000000
9.370888324000,-0.062000000000
9.378575515000,-0.093000000000
9.386262706000,-0.101000000000
9.393949897000,0.134000000000
9.401637088000,0.699000000000
9.409324279000,1.058000000000
9.417011470000,0.637000000000
9.424698661000,-0.187000000000
9.432385852000,-0.507000000000
9.440073043000,-0.281000000000
9.447760234000,-0.187000000000
9.455447425000,-0.230000000000
9.463134616000,-0.137000000000
9.470821807000,-0.072000000000
9.478508998000,-0.103000000000
9.486196189000,-0.093000000000
9.493883380000,-0.060000000000
9.501570571000,-0.057000000000
9.509257762000,-0.052000000000
9.516944953000,-0.038000000000
9.524632144000,-0.033000000000
9.532319335000,-0.026000000000
9.540006526000,-0.016000000000
9.547693717000,-0.009000000000
9.555380908000,-0.002000000000
9.563068099000,0.009000000000
9.570755290000,0.016000000000
9.578442481000,0.024000000000
9.586129672000,0.033000000000
9.593816863000,0.045000000000
9.601504054000,0.055000000000
9.609191245000,0.062000000000
9.616878436000,0.069000000000
9.624565627000,0.076000000000
9.632252818000,0.086000000000
9.639940009000,0.093000000000
9.647627200000,0.101000000000
9.655314391000,0.108000000000
9.663001582000,0.110000000000
9.670688773000,0.108000000000
9.678375964000,0.091000000000
9.686063155000,0.060000000000
9.693750346000,0.021000000000
9.701437537000,-0.021000000000
9.709124728000,-0.062000000000
9.716811919000,-0.091000000000
9.724499110000,-0.108000000000
9.732186301000,-0.120000000000
9.739873492000,-0.127000000000
9.747560683000,-0.129000000000
9.755247874000,-0.125000000000
9.762935065000,-0.122000000000
9.770622256000,-0.122000000000
9.778309447000,-0.120000000000
9.785996638000,-0.120000000000
9.793683829000,-0.117000000000
9.801371020000,-0.117000000000
9.809058211000,-0.120000000000
9.816745402000,-0.125000000000
9.824432593000,-0.127000000000
9.832119784000,-0.127000000000
9.839807012000,-0.129000000000
9.847494551000,-0.129000000000
9.855182090000,-0.127000000000
9.862869629000,-0.125000000000
9.870557168000,-0.125000000000
9.878244707000,-0.125000000000
9.885932246000,-0.122000000000
9.893619785000,-0.120000000000
9.901307324000,-0.117000000000
9.908994863000,-0.115000000000
9.916682402000,-0.113000000000
9.924369941000,-0.110000000000
9.932057480000,-0.108000000000
9.939745019000,-0.105000000000
9.947432558000,-0.103000000000
9.955120097000,-0.103000000000
9.962807636000,-0.101000000000
9.970495175000,-0.096000000000
9.978182714000,-0.093000000000
9.985870253000,-0.091000000000
9.993557792000,-0.093000000000
10.001245331000,-0.098000000000
10.008932870000,-0.103000000000
10.016620409000,-0.105000000000
10.024307948000,-0.103000000000
10.031995487000,-0.093000000000
10.039683026000,-0.081000000000
10.047370565000,-0.076000000000
10.055058104000,-0.060000000000
10.062745643000,-0.036000000000
10.070433182000,-0.040000000000
10.078120721000,-0.067000000000
10.085808260000,-0.072000000000
10.093495799000,-0.067000000000
10.101183338000,-0.069000000000
10.108870877000,-0.069000000000
10.116558416000,-0.062000000000
10.124245955000,-0.067000000000
10.131933494000,-0.096000000000
10.139621033000,-0.101000000000
10.147308572000,0.127000000000
10.154996111000,0.687000000000
10.162683650000,1.058000000000
10.170371189000,0.634000000000
10.178058728000,-0.218000000000
10.185746267000,-0.560000000000
10.193433806000,-0.324000000000
10.201121345000,-0.209000000000
10.208808884000,-0.245000000000
10.216496423000,-0.146000000000
10.224183962000,-0.072000000000
10.231871501000,-0.098000000000
10.239559040000,-0.091000000000
10.247246579000,-0.057000000000
10.254934118000,-0.052000000000
10.262621657000,-0.048000000000
10.270309196000,-0.031000000000
10.277996735000,-0.024000000000
10.285684274000,-0.019000000000
10.293371813000,-0.009000000000
10.301059352000,0.000000000000
10.308746891000,0.007000000000
10.316434430000,0.016000000000
10.324121969000,0.026000000000
10.331809508000,0.036000000000
10.339497047000,0.045000000000
10.347184586000,0.057000000000
10.354872125000,0.064000000000
10.362559664000,0.076000000000
10.370247203000,0.088000000000
10.377934742000,0.098000000000
10.385622281000,0.103000000000
10.393309820000,0.110000000000
10.400997431000,0.120000000000
10.408684692000,0.125000000000
10.416371953000,0.127000000000
10.424059214000,0.120000000000
10.431746475000,0.101000000000
10.439433736000,0.064000000000
10.447120997000,0.021000000000
10.454808258000,-0.028000000000
10.462495519000,-0.069000000000
10.470182780000,-0.098000000000
10.477870041000,-0.117000000000
10.485557302000,-0.129000000000
10.493244563000,-0.129000000000
10.500931824000,-0.129000000000
10.508619085000,-0.127000000000
10.516306346000,-0.122000000000
10.523993607000,-0.120000000000
10.531680868000,-0.117000000000
10.539368129000,-0.115000000000
10.547055390000,-0.115000000000
10.554742651000,-0.115000000000
10.562429912000,-0.115000000000
10.570117173000,-0.113000000000
10.577804434000,-0.113000000000
10.585491695000,-0.117000000000
10.593178956000,-0.125000000000
10.600866217000,-0.125000000000
10.608553478000,-0.120000000000
10.616240739000,-0.120000000000
10.623928000000,-0.120000000000
10.631615261000,-0.120000000000
10.639302522000,-0.115000000000
10.646989783000,-0.115000000000
10.654677044000,-0.113000000000
10.662364305000,-0.110000000000
10.670051566000,-0.108000000000
10.677738827000,-0.108000000000
10.685426088000,-0.103000000000
10.693113349000,-0.101000000000
10.700800610000,-0.098000000000
10.708487871000,-0.098000000000
10.716175132000,-0.096000000000
10.723862393000,-0.091000000000
10.731549654000,-0.088000000000
10.739236915000,-0.088000000000
10.746924176000,-0.086000000000
10.754611437000,-0.088000000000
10.762298698000,-0.098000000000
10.769985959000,-0.103000000000
10.777673220000,-0.098000000000
10.785360481000,-0.086000000000
10.793047742000,-0.072000000000
10.800735003000,-0.064000000000
10.808422264000,-0.048000000000
10.816109525000,-0.028000000000
10.823796786000,-0.038000000000
10.831484047000,-0.060000000000
10.839171308000,-0.062000000000
10.846858569000,-0.060000000000
10.854545830000,-0.062000000000
10.862233091000,-0.057000000000
10.869920352000,-0.050000000000
10.877607613000,-0.060000000000
10.885294874000,-0.101000000000
10.892982135000,-0.117000000000
10.900669396000,0.117000000000
10.908356657000,0.687000000000
10.916043918000,1.094000000000
10.923731179000,0.757000000000
10.931418440000,-0.055000000000
10.939105701000,-0.432000000000
10.946792962000,-0.245000000000
10.954480223000,-0.163000000000
10.962167502000,-0.221000000000
10.969854902000,-0.141000000000
10.977542302000,-0.084000000000
10.985229702000,-0.113000000000
10.992917102000,-0.103000000000
11.000604502000,-0.069000000000
11.008291902000,-0.067000000000
11.015979302000,-0.060000000000
11.023666702000,-0.045000000000
11.031354102000,-0.038000000000
11.039041502000,-0.033000000000
11.046728902000,-0.024000000000
11.054416302000,-0.016000000000
11.062103702000,-0.009000000000
11.069791102000,0.000000000000
11.077478502000,0.009000000000
11.085165902000,0.016000000000
11.092853302000,0.028000000000
11.100540702000,0.038000000000
11.108228102000,0.048000000000
11.115915502000,0.052000000000
11.123602902000,0.060000000000
11.131290302000,0.067000000000
11.138977702000,0.067000000000
11.146665102000,0.067000000000
11.154352502000,0.069000000000
11.162039902000,0.072000000000
11.169727302000,0.072000000000
11.177414702000,0.069000000000
11.185102102000,0.060000000000
11.192789502000,0.038000000000
11.200476902000,0.007000000000
11.208164302000,-0.026000000000
11.215851702000,-0.060000000000
11.223539102000,-0.084000000000
11.231226502000,-0.098000000000
11.238913902000,-0.105000000000
11.246601302000,-0.110000000000
11.254288702000,-0.113000000000
11.261976102000,-0.110000000000
11.269663502000,-0.105000000000
11.277350902000,-0.103000000000
11.285038302000,-0.103000000000
11.292725702000,-0.103000000000
11.300413102000,-0.101000000000
11.308100502000,-0.101000000000
11.315787902000,-0.101000000000
11.323475302000,-0.101000000000
11.331162702000,-0.101000000000
11.338850102000,-0.103000000000
11.346537502000,-0.103000000000
11.354224902000,-0.103000000000
11.361912302000,-0.105000000000
11.369599702000,-0.105000000000
11.377287102000,-0.105000000000
11.384974502000,-0.103000000000
11.392661902000,-0.103000000000
11.400349302000,-0.101000000000
11.408036702000,-0.098000000000
11.415724102000,-0.096000000000
11.423411502000,-0.096000000000
11.431098902000,-0.093000000000
11.438786302000,-0.093000000000
11.446473702000,-0.088000000000
11.454161102000,-0.088000000000
11.461848502000,-0.086000000000
11.469535902000,-0.084000000000
11.477223302000,-0.088000000000
11.484910702000,-0.096000000000
11.492598102000,-0.103000000000
11.500285502000,-0.101000000000
11.507972902000,-0.091000000000
11.515660302000,-0.074000000000
11.523347743000,-0.067000000000
11.531035143000,-0.052000000000
11.538722543000,-0.028000000000
11.546409943000,-0.028000000000
11.554097343000,-0.055000000000
11.561784743000,-0.064000000000
11.569472143000,-0.060000000000
11.577159543000,-0.062000000000
11.584846943000,-0.060000000000
11.592534343000,-0.055000000000
11.600221743000,-0.060000000000
11.607909143000,-0.084000000000
11.615596543000,-0.125000000000
11.623283943000,-0.024000000000
11.630971343000,0.435000000000
11.638658743000,0.981000000000
11.646346143000,0.952000000000
11.654033543000,0.230000000000
11.661720943000,-0.391000000000
11.669408343000,-0.363000000000
11.677095743000,-0.185000000000
11.684783143000,-0.221000000000
11.692470543000,-0.189000000000
11.700157943000,-0.093000000000
11.707845343000,-0.098000000000
11.715532743000,-0.115000000000
11.723220143000,-0.081000000000
11.730907543000,-0.064000000000
11.738594943000,-0.067000000000
11.746282343000,-0.050000000000
11.753969743000,-0.036000000000
11.761657143000,-0.033000000000
11.769344543000,-0.028000000000
11.777031943000,-0.019000000000
11.784719343000,-0.009000000000
11.792406743000,0.000000000000
11.800094143000,0.009000000000
11.807781543000,0.021000000000
11.815468943000,0.031000000000
11.823156343000,0.040000000000
11.830843743000,0.055000000000
11.838531143000,0.062000000000
11.846218543000,0.069000000000
11.853905943000,0.076000000000
11.861593343000,0.081000000000
11.869280743000,0.084000000000
11.876968143000,0.086000000000
11.884655543000,0.088000000000
11.892342943000,0.088000000000
11.900030343000,0.086000000000
11.907717743000,0.074000000000
11.915405143000,0.050000000000
11.923092543000,0.016000000000
11.930779943000,-0.021000000000
11.938467343000,-0.060000000000
11.946154743000,-0.086000000000
11.953842143000,-0.105000000000
11.961529543000,-0.117000000000
11.969216943000,-0.122000000000
11.976904343000,-0.122000000000
11.984591743000,-0.122000000000
11.992279143000,-0.120000000000
11.999966543000,-0.117000000000
12.007653943000,-0.115000000000
12.015341343000,-0.113000000000
12.023028743000,-0.113000000000
12.030716143000,-0.110000000000
12.038403543000,-0.110000000000
12.046090943000,-0.113000000000
12.053778343000,-0.113000000000
12.061465743000,-0.110000000000
12.069153143000,-0.110000000000
12.076840543000,-0.113000000000
12.084527988000,-0.110000000000
12.092215249000,-0.110000000000
12.099902510000,-0.113000000000
12.107589771000,-0.110000000000
12.115277032000,-0.110000000000
12.122964293000,-0.108000000000
12.130651554000,-0.108000000000
12.138338815000,-0.105000000000
12.146026076000,-0.101000000000
12.153713337000,-0.101000000000
12.161400598000,-0.098000000000
12.169087859000,-0.098000000000
12.176775120000,-0.096000000000
12.184462381000,-0.093000000000
12.192149642000,-0.096000000000
12.199836903000,-0.105000000000
12.207524164000,-0.110000000000
12.215211425000,-0.110000000000
12.222898686000,-0.103000000000
12.230585947000,-0.088000000000
12.238273208000,-0.079000000000
12.245960469000,-0.064000000000
12.253647730000,-0.040000000000
12.261334991000,-0.036000000000
12.269022252000,-0.060000000000
12.276709513000,-0.074000000000
12.284396774000,-0.067000000000
12.292084035000,-0.067000000000
12.299771296000,-0.069000000000
12.307458557000,-0.064000000000
12.315145818000,-0.062000000000
12.322833079000,-0.079000000000
12.330520340000,-0.120000000000
12.338207601000,-0.074000000000
12.345894862000,0.298000000000
12.353582123000,0.877000000000
12.361269384000,1.022000000000
12.368956645000,0.411000000000
12.376643906000,-0.315000000000
12.384331167000,-0.425000000000
12.392018428000,-0.218000000000
12.399705689000,-0.211000000000
12.407392950000,-0.214000000000
12.415080211000,-0.113000000000
12.422767472000,-0.093000000000
12.430454733000,-0.117000000000
12.438141994000,-0.088000000000
12.445829255000,-0.067000000000
12.453516516000,-0.067000000000
12.461203777000,-0.057000000000
12.468891038000,-0.040000000000
12.476578299000,-0.036000000000
12.484265560000,-0.031000000000
12.491952821000,-0.019000000000
12.499640082000,-0.012000000000
12.507327343000,-0.004000000000
12.515014604000,0.007000000000
12.522701865000,0.016000000000
12.530389126000,0.028000000000
12.538076387000,0.040000000000
12.545763648000,0.052000000000
12.553450909000,0.062000000000
12.561138170000,0.074000000000
12.568825431000,0.084000000000
12.576512692000,0.088000000000
12.584199953000,0.093000000000
12.591887214000,0.096000000000
12.599574475000,0.103000000000
12.607261736000,0.105000000000
12.614948997000,0.103000000000
12.622636258000,0.093000000000
12.630323519000,0.069000000000
12.638010780000,0.033000000000
12.645698055000,-0.007000000000
12.653385594000,-0.045000000000
12.661073133000,-0.081000000000
12.668760672000,-0.103000000000
12.676448211000,-0.117000000000
12.684135750000,-0.125000000000
12.691823289000,-0.125000000000
12.699510828000,-0.125000000000
12.707198367000,-0.125000000000
12.714885906000,-0.120000000000
12.722573445000,-0.115000000000
12.730260984000,-0.115000000000
12.737948523000,-0.113000000000
12.745636062000,-0.108000000000
12.753323601000,-0.110000000000
12.761011140000,-0.113000000000
12.768698679000,-0.113000000000
12.776386218000,-0.113000000000
12.784073757000,-0.117000000000
12.791761296000,-0.115000000000
12.799448835000,-0.115000000000
12.807136374000,-0.115000000000
12.814823913000,-0.117000000000
12.822511452000,-0.115000000000
12.830198991000,-0.110000000000
12.837886530000,-0.110000000000
12.845574069000,-0.108000000000
12.853261608000,-0.108000000000
12.860949147000,-0.105000000000
12.868636686000,-0.103000000000
12.876324225000,-0.101000000000
12.884011764000,-0.098000000000
12.891699303000,-0.098000000000
12.899386842000,-0.096000000000
12.907074381000,-0.093000000000
12.914761920000,-0.091000000000
12.922449459000,-0.088000000000
12.930136998000,-0.088000000000
12.937824537000,-0.093000000000
12.945512076000,-0.101000000000
12.953199615000,-0.105000000000
12.960887154000,-0.105000000000
12.968574693000,-0.093000000000
12.976262232000,-0.079000000000
12.983949771000,-0.069000000000
12.991637310000,-0.052000000000
12.999324849000,-0.033000000000
13.007012388000,-0.038000000000
13.014699927000,-0.057000000000
13.022387466000,-0.064000000000
13.030075005000,-0.060000000000
13.037762544000,-0.060000000000
13.045450083000,-0.060000000000
13.053137622000,-0.055000000000
13.060825161000,-0.057000000000
13.068512700000,-0.081000000000
13.076200239000,-0.122000000000
13.083887778000,-0.009000000000
13.091575317000,0.468000000000
13.099262856000,0.993000000000
13.106950395000,0.899000000000
13.114637934000,0.163000000000
13.122325473000,-0.406000000000
13.130013012000,-0.341000000000
13.137700551000,-0.185000000000
13.145388090000,-0.226000000000
13.153075629000,-0.182000000000
13.160763168000,-0.088000000000
13.168450707000,-0.101000000000
13.176138246000,-0.110000000000
13.183825785000,-0.076000000000
13.191513324000,-0.064000000000
13.199200863000,-0.064000000000
13.206888474000,-0.050000000000
13.214575595000,-0.040000000000
13.222262716000,-0.036000000000
13.229949837000,-0.028000000000
13.237636958000,-0.019000000000
13.245324079000,-0.014000000000
13.253011200000,-0.004000000000
13.260698321000,0.007000000000
13.268385442000,0.014000000000
13.276072563000,0.024000000000
13.283759684000,0.036000000000
13.291446805000,0.045000000000
13.299133926000,0.055000000000
13.306821047000,0.067000000000
13.314508168000,0.074000000000
13.322195289000,0.079000000000
13.329882410000,0.084000000000
13.337569531000,0.091000000000
13.345256652000,0.096000000000
13.352943773000,0.101000000000
13.360630894000,0.098000000000
13.368318015000,0.086000000000
13.376005136000,0.064000000000
13.383692257000,0.031000000000
13.391379378000,-0.009000000000
13.399066499000,-0.048000000000
13.406753620000,-0.079000000000
13.414440741000,-0.098000000000
13.422127862000,-0.110000000000
13.429814983000,-0.117000000000
13.437502104000,-0.120000000000
13.445189225000,-0.120000000000
13.452876346000,-0.117000000000
13.460563467000,-0.113000000000
13.468250588000,-0.110000000000
13.475937709000,-0.113000000000
13.483624830000,-0.110000000000
13.491311951000,-0.110000000000
13.498999072000,-0.110000000000
13.506686193000,-0.110000000000
13.514373314000,-0.113000000000
13.522060435000,-0.113000000000
13.529747556000,-0.115000000000
13.537434677000,-0.115000000000
13.545121798000,-0.117000000000
13.552808919000,-0.117000000000
13.560496040000,-0.115000000000
13.568183161000,-0.115000000000
13.575870282000,-0.115000000000
13.583557403000,-0.113000000000
13.591244524000,-0.110000000000
13.598931645000,-0.108000000000
13.606618766000,-0.108000000000
13.614305887000,-0.105000000000
13.621993008000,-0.103000000000
13.629680129000,-0.101000000000
13.637367250000,-0.101000000000
13.645054371000,-0.108000000000
13.652741492000,-0.113000000000
13.660428613000,-0.115000000000
13.668115734000,-0.113000000000
13.675802855000,-0.101000000000
13.683489976000,-0.086000000000
13.691177097000,-0.079000000000
13.698864218000,-0.057000000000
13.706551339000,-0.038000000000
13.714238460000,-0.050000000000
13.721925581000,-0.074000000000
13.729612702000,-0.076000000000
13.737299823000,-0.072000000000
13.744986944000,-0.074000000000
13.752674065000,-0.072000000000
13.760361186000,-0.067000000000
13.768048371000,-0.069000000000
13.775735632000,-0.098000000000
13.783422893000,-0.129000000000
13.791110154000,0.040000000000
13.798797415000,0.569000000000
13.806484676000,1.038000000000
13.814171937000,0.820000000000
13.821859198000,0.040000000000
13.829546459000,-0.447000000000
13.837233720000,-0.327000000000
13.844920981000,-0.192000000000
13.852608242000,-0.238000000000
13.860295503000,-0.175000000000
13.867982764000,-0.091000000000
13.875670025000,-0.108000000000
13.883357286000,-0.113000000000
13.891044547000,-0.079000000000
13.898731808000,-0.069000000000
13.906419069000,-0.067000000000
13.914106330000,-0.050000000000
13.921793591000,-0.038000000000
13.929480852000,-0.036000000000
13.937168113000,-0.026000000000
13.944855374000,-0.014000000000
13.952542635000,-0.007000000000
13.960229896000,0.004000000000
13.967917157000,0.014000000000
13.975604418000,0.026000000000
13.983291679000,0.036000000000
13.990978940000,0.050000000000
13.998666201000,0.062000000000
14.006353462000,0.076000000000
14.014040723000,0.084000000000
14.021727984000,0.093000000000
14.029415245000,0.098000000000
14.037102506000,0.101000000000
14.044789767000,0.103000000000
14.052477028000,0.105000000000
14.060164289000,0.105000000000
14.067851550000,0.098000000000
14.075538811000,0.081000000000
14.083226072000,0.052000000000
14.090913333000,0.014000000000
14.098600594000,-0.031000000000
14.106287855000,-0.069000000000
14.113975116000,-0.093000000000
14.121662377000,-0.110000000000
14.129349638000,-0.120000000000
14.137036899000,-0.125000000000
14.144724160000,-0.125000000000
14.152411421000,-0.122000000000
14.160098682000,-0.117000000000
14.167785943000,-0.115000000000
14.175473204000,-0.113000000000
14.183160465000,-0.110000000000
14.190847726000,-0.110000000000
14.198534987000,-0.110000000000
14.206222248000,-0.110000000000
14.213909509000,-0.110000000000
14.221596770000,-0.110000000000
14.229284031000,-0.113000000000
14.236971292000,-0.113000000000
14.244658553000,-0.113000000000
14.252345814000,-0.115000000000
14.260033075000,-0.115000000000
14.267720336000,-0.113000000000
14.275407597000,-0.110000000000
14.283094858000,-0.110000000000
14.290782119000,-0.108000000000
14.298469380000,-0.105000000000
14.306156641000,-0.105000000000
14.313843902000,-0.103000000000
14.321531163000,-0.098000000000
14.329218442000,-0.098000000000
14.336905842000,-0.098000000000
14.344593242000,-0.103000000000
14.352280642000,-0.110000000000
14.359968042000,-0.113000000000
14.367655442000,-0.113000000000
14.375342842000,-0.105000000000
14.383030242000,-0.091000000000
14.390717642000,-0.081000000000
14.398405042000,-0.067000000000
14.406092442000,-0.043000000000
14.413779842000,-0.045000000000
14.421467242000,-0.069000000000
14.429154642000,-0.076000000000
14.436842042000,-0.074000000000
14.444529442000,-0.072000000000
14.452216842000,-0.072000000000
14.459904242000,-0.067000000000
14.467591642000,-0.067000000000
14.475279042000,-0.084000000000
14.482966442000,-0.127000000000
14.490653842000,-0.072000000000
14.498341242000,0.322000000000
14.506028642000,0.904000000000
14.513716042000,1.014000000000
14.521403442000,0.379000000000
14.529090842000,-0.327000000000
14.536778242000,-0.416000000000
14.544465642000,-0.218000000000
14.552153042000,-0.221000000000
14.559840442000,-0.218000000000
14.567527842000,-0.115000000000
14.575215242000,-0.098000000000
14.582902642000,-0.122000000000
14.590590042000,-0.096000000000
14.598277442000,-0.074000000000
14.605964842000,-0.074000000000
14.613652242000,-0.062000000000
14.621339642000,-0.048000000000
14.629027042000,-0.043000000000
14.636714442000,-0.036000000000
14.644401842000,-0.024000000000
14.652089242000,-0.014000000000
14.659776642000,-0.007000000000
14.667464042000,0.004000000000
14.675151442000,0.014000000000
14.682838842000,0.024000000000
14.690526242000,0.036000000000
14.698213642000,0.048000000000
14.705901042000,0.060000000000
14.713588442000,0.072000000000
14.721275842000,0.079000000000
14.728963242000,0.086000000000
14.736650642000,0.091000000000
14.744338042000,0.093000000000
14.752025442000,0.098000000000
14.759712842000,0.101000000000
14.767400242000,0.098000000000
14.775087642000,0.086000000000
14.782775042000,0.060000000000
14.790462442000,0.026000000000
14.798149842000,-0.016000000000
14.805837242000,-0.057000000000
14.813524642000,-0.088000000000
14.821212042000,-0.108000000000
14.828899442000,-0.120000000000
14.836586842000,-0.125000000000
14.844274242000,-0.129000000000
14.851961642000,-0.127000000000
14.859649042000,-0.125000000000
14.867336442000,-0.122000000000
14.875023842000,-0.120000000000
14.882711242000,-0.117000000000
14.890398683000,-0.115000000000
14.898085804000,-0.113000000000
14.905772925000,-0.110000000000
14.913460046000,-0.113000000000
14.921147167000,-0.113000000000
14.928834288000,-0.113000000000
14.936521409000,-0.115000000000
14.944208530000,-0.115000000000
14.951895651000,-0.113000000000
14.959582772000,-0.115000000000
14.967269893000,-0.117000000000
14.974957014000,-0.115000000000
14.982644135000,-0.113000000000
14.990331256000,-0.113000000000
14.998018377000,-0.113000000000
15.005705498000,-0.110000000000
15.013392619000,-0.108000000000
15.021079740000,-0.103000000000
15.028766861000,-0.103000000000
15.036453982000,-0.101000000000
15.044141103000,-0.098000000000
15.051828224000,-0.096000000000
15.059515345000,-0.098000000000
15.067202466000,-0.103000000000
15.074889587000,-0.108000000000
15.082576708000,-0.110000000000
15.090263829000,-0.108000000000
15.097950950000,-0.101000000000
15.105638071000,-0.086000000000
15.113325192000,-0.076000000000
15.121012313000,-0.064000000000
15.128699434000,-0.040000000000
15.136386555000,-0.038000000000
15.144073676000,-0.062000000000
15.151760797000,-0.072000000000
15.159447918000,-0.067000000000
15.167135039000,-0.069000000000
15.174822160000,-0.069000000000
15.182509281000,-0.064000000000
15.190196402000,-0.067000000000
15.197883523000,-0.084000000000
15.205570644000,-0.120000000000
15.213257765000,-0.072000000000
15.220944886000,0.312000000000
15.228632007000,0.904000000000
15.236319128000,1.002000000000
15.244006249000,0.336000000000
15.251693370000,-0.375000000000
15.259380491000,-0.449000000000
15.267067612000,-0.242000000000
15.274754733000,-0.235000000000
15.282441854000,-0.223000000000
15.290128975000,-0.113000000000
15.297816096000,-0.091000000000
15.305503217000,-0.117000000000
15.313190338000,-0.088000000000
15.320877459000,-0.064000000000
15.328564580000,-0.067000000000
15.336251701000,-0.055000000000
15.343938822000,-0.040000000000
15.351625943000,-0.036000000000
15.359313064000,-0.026000000000
15.367000185000,-0.016000000000
15.374687306000,-0.009000000000
15.382374427000,0.000000000000
15.390061548000,0.012000000000
15.397748669000,0.021000000000
15.405435790000,0.033000000000
15.413122911000,0.045000000000
15.420810032000,0.060000000000
15.428497153000,0.074000000000
15.436184274000,0.086000000000
15.443871395000,0.098000000000
15.451558580000,0.108000000000
15.459245701000,0.110000000000
15.466932822000,0.115000000000
15.474619943000,0.120000000000
15.482307064000,0.122000000000
15.489994185000,0.120000000000
15.497681306000,0.108000000000
15.505368427000,0.081000000000
15.513055548000,0.045000000000
15.520742669000,0.000000000000
15.528429790000,-0.048000000000
15.536116911000,-0.086000000000
15.543804032000,-0.110000000000
15.551491153000,-0.127000000000
15.559178274000,-0.134000000000
15.566865395000,-0.134000000000
15.574552516000,-0.134000000000
15.582239637000,-0.129000000000
15.589926758000,-0.125000000000
15.597613879000,-0.120000000000
15.605301000000,-0.117000000000
15.612988121000,-0.117000000000
15.620675242000,-0.117000000000
15.628362363000,-0.115000000000
15.636049484000,-0.115000000000
15.643736605000,-0.117000000000
15.651423726000,-0.117000000000
15.659110847000,-0.120000000000
15.666797968000,-0.122000000000
15.674485089000,-0.122000000000
15.682172210000,-0.125000000000
15.689859331000,-0.122000000000
15.697546452000,-0.120000000000
15.705233573000,-0.120000000000
15.712920694000,-0.120000000000
15.720607815000,-0.117000000000
15.728294936000,-0.117000000000
15.735982057000,-0.113000000000
15.743669178000,-0.110000000000
15.751356299000,-0.113000000000
15.759043420000,-0.117000000000
15.766730541000,-0.120000000000
15.774417662000,-0.120000000000
15.782104783000,-0.117000000000
15.789791904000,-0.105000000000
15.797479025000,-0.093000000000
15.805166146000,-0.088000000000
15.812853267000,-0.069000000000
15.820540388000,-0.045000000000
15.828227509000,-0.060000000000
15.835914630000,-0.081000000000
15.843601751000,-0.081000000000
15.851288872000,-0.079000000000
15.858975993000,-0.084000000000
15.866663114000,-0.079000000000
15.874350235000,-0.072000000000
15.882037356000,-0.076000000000
15.889724477000,-0.098000000000
15.897411598000,-0.127000000000
15.905098719000,0.019000000000
15.912785840000,0.543000000000
15.920472961000,1.060000000000
15.928160082000,0.872000000000
15.935847203000,0.048000000000
15.943534324000,-0.519000000000
15.951221445000,-0.420000000000
15.958908566000,-0.235000000000
15.966595687000,-0.262000000000
15.974282808000,-0.204000000000
15.981969929000,-0.101000000000
15.989657050000,-0.108000000000
15.997344171000,-0.117000000000
16.005031292000,-0.084000000000
16.012718477000,-0.069000000000
16.020405598000,-0.069000000000
16.028092719000,-0.055000000000
16.035779840000,-0.043000000000
16.043466961000,-0.038000000000
16.051154082000,-0.028000000000
16.058841203000,-0.016000000000
16.066528324000,-0.007000000000
16.074215445000,0.004000000000
16.081902566000,0.016000000000
16.089589687000,0.028000000000
16.097276808000,0.043000000000
16.104963929000,0.060000000000
16.112651050000,0.072000000000
16.120338171000,0.088000000000
16.128025292000,0.103000000000
16.135712413000,0.113000000000
16.143399534000,0.117000000000
16.151086655000,0.122000000000
16.158773776000,0.122000000000
16.166460897000,0.122000000000
16.174148018000,0.120000000000
16.181835139000,0.108000000000
16.189522260000,0.088000000000
16.197209381000,0.057000000000
16.204896502000,0.016000000000
16.212583623000,-0.033000000000
16.220270744000,-0.076000000000
16.227957865000,-0.110000000000
16.235644986000,-0.129000000000
16.243332107000,-0.137000000000
16.251019228000,-0.139000000000
16.258706349000,-0.139000000000
16.266393470000,-0.134000000000
16.274080591000,-0.129000000000
16.281767712000,-0.125000000000
16.289454833000,-0.120000000000
16.297141954000,-0.115000000000
16.304829075000,-0.115000000000
16.312516196000,-0.113000000000
16.320203317000,-0.113000000000
16.327890438000,-0.113000000000
16.335577559000,-0.115000000000
16.343264680000,-0.117000000000
16.350951801000,-0.117000000000
16.358638922000,-0.120000000000
16.366326043000,-0.122000000000
16.374013164000,-0.122000000000
16.381700285000,-0.120000000000
16.389387406000,-0.120000000000
16.397074527000,-0.120000000000
16.404761648000,-0.117000000000
16.412448769000,-0.115000000000
16.420135890000,-0.113000000000
16.427823011000,-0.110000000000
16.435510132000,-0.110000000000
16.443197253000,-0.108000000000
16.450884374000,-0.105000000000
16.458571495000,-0.103000000000
16.466258616000,-0.101000000000
16.473945737000,-0.101000000000
16.481632858000,-0.105000000000
16.489319979000,-0.113000000000
16.497007100000,-0.115000000000
16.504694221000,-0.113000000000
16.512381342000,-0.101000000000
16.520068463000,-0.086000000000
16.527755584000,-0.076000000000
16.535442705000,-0.060000000000
16.543129826000,-0.038000000000
16.550816947000,-0.045000000000
16.558504068000,-0.069000000000
16.566191189000,-0.072000000000
16.573878374000,-0.067000000000
16.581565913000,-0.072000000000
16.589253452000,-0.069000000000
16.596940991000,-0.064000000000
16.604628530000,-0.067000000000
16.612316069000,-0.088000000000
16.620003608000,-0.141000000000
16.627691147000,-0.091000000000
16.635378686000,0.315000000000
16.643066225000,0.933000000000
16.650753764000,1.101000000000
16.658441303000,0.488000000000
16.666128842000,-0.266000000000
16.673816381000,-0.389000000000
16.681503920000,-0.189000000000
16.689191459000,-0.209000000000
16.696878998000,-0.228000000000
16.704566537000,-0.127000000000
16.712254076000,-0.113000000000
16.719941615000,-0.139000000000
16.727629154000,-0.110000000000
16.735316693000,-0.086000000000
16.743004232000,-0.088000000000
16.750691771000,-0.076000000000
16.758379310000,-0.060000000000
16.766066849000,-0.055000000000
16.773754388000,-0.048000000000
16.781441927000,-0.038000000000
16.789129466000,-0.028000000000
16.796817005000,-0.019000000000
16.804504544000,-0.009000000000
16.812192083000,0.000000000000
16.819879622000,0.012000000000
16.827567161000,0.024000000000
16.835254700000,0.038000000000
16.842942239000,0.050000000000
16.850629778000,0.062000000000
16.858317317000,0.072000000000
16.866004856000,0.076000000000
16.873692395000,0.079000000000
16.881379934000,0.079000000000
16.889067473000,0.076000000000
16.896755012000,0.074000000000
16.904442551000,0.069000000000
16.912130090000,0.057000000000
16.919817629000,0.038000000000
16.927505168000,0.016000000000
16.935192707000,-0.012000000000
16.942880246000,-0.045000000000
16.950567785000,-0.076000000000
16.958255324000,-0.096000000000
16.965942863000,-0.108000000000
16.973630402000,-0.113000000000
16.981317941000,-0.115000000000
16.989005480000,-0.115000000000
16.996693019000,-0.113000000000
17.004380558000,-0.108000000000
17.012068097000,-0.103000000000
17.019755636000,-0.103000000000
17.027443175000,-0.101000000000
17.035130714000,-0.101000000000
17.042818253000,-0.101000000000
17.050505792000,-0.101000000000
17.058193331000,-0.101000000000
17.065880870000,-0.101000000000
17.073568409000,-0.103000000000
17.081255948000,-0.103000000000
17.088943487000,-0.105000000000
17.096631026000,-0.105000000000
17.104318565000,-0.105000000000
17.112006104000,-0.108000000000
17.119693643000,-0.105000000000
17.127381182000,-0.105000000000
17.135068793000,-0.103000000000
17.142755914000,-0.101000000000
17.150443035000,-0.098000000000
17.158130156000,-0.098000000000
17.165817277000,-0.096000000000
17.173504398000,-0.093000000000
17.181191519000,-0.091000000000
17.188878640000,-0.088000000000
17.196565761000,-0.086000000000
17.204252882000,-0.086000000000
17.211940003000,-0.081000000000
17.219627124000,-0.079000000000
17.227314245000,-0.079000000000
17.235001366000,-0.076000000000
17.242688487000,-0.074000000000
17.250375608000,-0.074000000000
17.258062729000,-0.072000000000
17.265749850000,-0.069000000000
17.273436971000,-0.067000000000
17.281124092000,-0.067000000000
17.288811213000,-0.064000000000
17.296498334000,-0.062000000000
17.304185455000,-0.062000000000
17.311872576000,-0.067000000000
17.319559697000,-0.074000000000
17.327246818000,-0.079000000000
17.334933939000,-0.081000000000
17.342621060000,-0.076000000000
17.350308181000,-0.064000000000
17.357995302000,-0.052000000000
17.365682423000,-0.045000000000
17.373369544000,-0.026000000000
17.381056665000,-0.014000000000
17.388743786000,-0.031000000000
17.396430907000,-0.050000000000
17.404118028000,-0.052000000000
17.411805149000,-0.050000000000
17.419492270000,-0.052000000000
17.427179391000,-0.048000000000
17.434866512000,-0.045000000000
17.442553633000,-0.052000000000
17.450240754000,-0.084000000000
17.457927875000,-0.139000000000
17.465614996000,-0.033000000000
17.473302117000,0.456000000000
17.480989238000,1.038000000000
17.488676359000,1.038000000000
17.496363480000,0.319000000000
17.504050601000,-0.339000000000
17.511737722000,-0.331000000000
17.519424843000,-0.158000000000
17.527111964000,-0.216000000000
17.534799085000,-0.204000000000
17.542486206000,-0.108000000000
17.550173327000,-0.113000000000
17.557860448000,-0.129000000000
17.565547569000,-0.093000000000
17.573234690000,-0.079000000000
17.580921811000,-0.081000000000
17.588608932000,-0.067000000000
17.596296053000,-0.057000000000
17.603983174000,-0.055000000000
17.611670295000,-0.045000000000
17.619357416000,-0.036000000000
17.627044537000,-0.028000000000
17.634731658000,-0.019000000000
17.642418779000,-0.009000000000
17.650105900000,0.000000000000
17.657793021000,0.009000000000
17.665480142000,0.021000000000
17.673167263000,0.031000000000
17.680854384000,0.040000000000
17.688541505000,0.052000000000
17.696228690000,0.060000000000
17.703916020000,0.067000000000
17.711603350000,0.069000000000
17.719290680000,0.069000000000
17.726978010000,0.069000000000
17.734665340000,0.069000000000
17.742352670000,0.067000000000
17.750040000000,0.060000000000
17.757727330000,0.050000000000
17.765414660000,0.033000000000
17.773101990000,0.007000000000
17.780789320000,-0.021000000000
17.788476650000,-0.052000000000
17.796163980000,-0.074000000000
17.803851310000,-0.088000000000
17.811538640000,-0.096000000000
17.819225970000,-0.103000000000
17.826913300000,-0.103000000000
17.834600630000,-0.101000000000
17.842287960000,-0.101000000000
17.849975290000,-0.101000000000
17.857662620000,-0.098000000000
17.865349950000,-0.096000000000
17.873037280000,-0.096000000000
17.880724610000,-0.096000000000
17.888411940000,-0.098000000000
17.896099270000,-0.098000000000
17.903786600000,-0.098000000000
17.911473930000,-0.101000000000
17.919161260000,-0.101000000000
17.926848590000,-0.103000000000
17.934535920000,-0.105000000000
17.942223250000,-0.105000000000
17.949910580000,-0.103000000000
17.957597910000,-0.105000000000
17.965285240000,-0.103000000000
17.972972570000,-0.103000000000
17.980659900000,-0.103000000000
17.988347230000,-0.098000000000
17.996034560000,-0.098000000000
18.003721890000,-0.098000000000
18.011409220000,-0.096000000000
18.019096550000,-0.093000000000
18.026783880000,-0.091000000000
18.034471210000,-0.088000000000
18.042158540000,-0.088000000000
18.049845870000,-0.086000000000
18.057533200000,-0.084000000000
18.065220530000,-0.081000000000
18.072907860000,-0.081000000000
18.080595190000,-0.079000000000
18.088282520000,-0.076000000000
18.095969850000,-0.074000000000
18.103657180000,-0.074000000000
18.111344510000,-0.072000000000
18.119031840000,-0.072000000000
18.126719170000,-0.069000000000
18.134406500000,-0.067000000000
18.142093830000,-0.067000000000
18.149781160000,-0.067000000000
18.157468490000,-0.064000000000
18.165155820000,-0.062000000000
18.172843150000,-0.062000000000
18.180530480000,-0.062000000000
18.188217810000,-0.067000000000
18.195905140000,-0.074000000000
18.203592470000,-0.081000000000
18.211279800000,-0.079000000000
18.218967130000,-0.069000000000
18.226654460000,-0.050000000000
18.234341790000,-0.033000000000
18.242029120000,-0.026000000000
18.249716450000,-0.014000000000
18.257403848000,-0.014000000000
18.265091039000,-0.033000000000
18.272778230000,-0.050000000000
18.280465421000,-0.048000000000
18.288152612000,-0.048000000000
18.295839803000,-0.048000000000
18.303526994000,-0.045000000000
18.311214185000,-0.045000000000
18.318901376000,-0.055000000000
18.326588567000,-0.098000000000
18.334275758000,-0.132000000000
18.341962949000,0.101000000000
18.349650140000,0.690000000000
18.357337331000,1.120000000000
18.365024522000,0.815000000000
18.372711713000,0.012000000000
18.380398904000,-0.413000000000
18.388086095000,-0.254000000000
18.395773286000,-0.161000000000
18.403460477000,-0.233000000000
18.411147668000,-0.163000000000
18.418834859000,-0.091000000000
18.426522050000,-0.122000000000
18.434209241000,-0.117000000000
18.441896432000,-0.081000000000
18.449583623000,-0.079000000000
18.457270814000,-0.076000000000
18.464958005000,-0.060000000000
18.472645196000,-0.052000000000
18.480332387000,-0.050000000000
18.488019578000,-0.040000000000
18.495706769000,-0.031000000000
18.503393960000,-0.024000000000
18.511081151000,-0.014000000000
18.518768342000,-0.004000000000
18.526455533000,0.004000000000
18.534142724000,0.014000000000
18.541829915000,0.026000000000
18.549517106000,0.038000000000
18.557204297000,0.050000000000
18.564891488000,0.060000000000
18.572578679000,0.067000000000
18.580265870000,0.072000000000
18.587953061000,0.074000000000
18.595640252000,0.074000000000
18.603327443000,0.072000000000
18.611014634000,0.072000000000
18.618701825000,0.069000000000
18.626389016000,0.062000000000
18.634076207000,0.048000000000
18.641763398000,0.028000000000
18.649450589000,0.002000000000
18.657137780000,-0.031000000000
18.664824971000,-0.060000000000
18.672512162000,-0.081000000000
18.680199353000,-0.093000000000
18.687886544000,-0.103000000000
18.695573735000,-0.108000000000
18.703260926000,-0.108000000000
18.710948117000,-0.105000000000
18.718635308000,-0.103000000000
18.726322499000,-0.101000000000
18.734009690000,-0.096000000000
18.741696881000,-0.093000000000
18.749384072000,-0.093000000000
18.757071263000,-0.091000000000
18.764758454000,-0.093000000000
18.772445645000,-0.093000000000
18.780132836000,-0.093000000000
18.787820027000,-0.096000000000
18.795507218000,-0.096000000000
18.803194409000,-0.098000000000
18.810881600000,-0.101000000000
18.818568832000,-0.101000000000
18.826256093000,-0.101000000000
18.833943354000,-0.101000000000
18.841630615000,-0.101000000000
18.849317876000,-0.101000000000
18.857005137000,-0.101000000000
18.864692398000,-0.098000000000
18.872379659000,-0.098000000000
18.880066920000,-0.096000000000
18.887754181000,-0.093000000000
18.895441442000,-0.091000000000
18.903128703000,-0.088000000000
18.910815964000,-0.086000000000
18.918503225000,-0.084000000000
18.926190486000,-0.084000000000
18.933877747000,-0.081000000000
18.941565008000,-0.079000000000
18.949252269000,-0.079000000000
18.956939530000,-0.076000000000
18.964626791000,-0.074000000000
18.972314052000,-0.072000000000
18.980001313000,-0.069000000000
18.987688574000,-0.067000000000
18.995375835000,-0.062000000000
19.003063096000,-0.060000000000
19.010750357000,-0.060000000000
19.018437618000,-0.060000000000
19.026124879000,-0.064000000000
19.033812140000,-0.074000000000
19.041499401000,-0.079000000000
19.049186662000,-0.076000000000
19.056873923000,-0.064000000000
19.064561184000,-0.045000000000
19.072248445000,-0.031000000000
19.079935706000,-0.024000000000
19.087622967000,-0.014000000000
19.095310228000,-0.014000000000
19.102997489000,-0.036000000000
19.110684750000,-0.050000000000
19.118372011000,-0.048000000000
19.126059272000,-0.048000000000
19.133746533000,-0.048000000000
19.141433794000,-0.043000000000
19.149121055000,-0.045000000000
19.156808316000,-0.060000000000
19.164495577000,-0.108000000000
19.172182838000,-0.105000000000
19.179870099000,0.206000000000
19.187557360000,0.812000000000
19.195244621000,1.096000000000
19.202931882000,0.615000000000
19.210619143000,-0.163000000000
19.218306404000,-0.420000000000
19.225993665000,-0.221000000000
19.233680926000,-0.182000000000
19.241368187000,-0.228000000000
19.249055448000,-0.134000000000
19.256742709000,-0.088000000000
19.264429970000,-0.120000000000
19.272117231000,-0.103000000000
19.279804492000,-0.072000000000
19.287491753000,-0.074000000000
19.295179014000,-0.067000000000
19.302866275000,-0.050000000000
19.310553536000,-0.045000000000
19.318240797000,-0.040000000000
19.325928058000,-0.031000000000
19.333615319000,-0.021000000000
19.341302580000,-0.014000000000
19.348989841000,-0.004000000000
19.356677102000,0.004000000000
19.364364363000,0.014000000000
19.372051624000,0.026000000000
19.379738899000,0.038000000000
19.387426020000,0.050000000000
19.395113141000,0.062000000000
19.402800262000,0.074000000000
19.410487383000,0.084000000000
19.418174504000,0.088000000000
19.425861625000,0.088000000000
19.433548746000,0.086000000000
19.441235867000,0.084000000000
19.448922988000,0.081000000000
19.456610109000,0.074000000000
19.464297230000,0.060000000000
19.471984351000,0.043000000000
19.479671472000,0.016000000000
19.487358593000,-0.016000000000
19.495045714000,-0.052000000000
19.502732835000,-0.081000000000
19.510419956000,-0.103000000000
19.518107077000,-0.113000000000
19.525794198000,-0.120000000000
19.533481319000,-0.120000000000
19.541168440000,-0.117000000000
19.548855561000,-0.115000000000
19.556542682000,-0.113000000000
19.564229803000,-0.108000000000
19.571916924000,-0.105000000000
19.579604045000,-0.103000000000
19.587291166000,-0.101000000000
19.594978287000,-0.098000000000
19.602665408000,-0.098000000000
19.610352529000,-0.098000000000
19.618039650000,-0.101000000000
19.625726771000,-0.098000000000
19.633413892000,-0.101000000000
19.641101013000,-0.103000000000
19.648788134000,-0.103000000000
19.656475255000,-0.103000000000
19.664162376000,-0.103000000000
19.671849497000,-0.105000000000
19.679536618000,-0.103000000000
19.687223739000,-0.103000000000
19.694910860000,-0.103000000000
19.702597981000,-0.101000000000
19.710285102000,-0.098000000000
19.717972223000,-0.096000000000
19.725659344000,-0.093000000000
19.733346465000,-0.091000000000
19.741033586000,-0.088000000000
19.748720707000,-0.088000000000
19.756407828000,-0.086000000000
19.764094949000,-0.084000000000
19.771782070000,-0.081000000000
19.779469191000,-0.079000000000
19.787156312000,-0.076000000000
19.794843433000,-0.074000000000
19.802530554000,-0.074000000000
19.810217675000,-0.072000000000
19.817904796000,-0.072000000000
19.825591917000,-0.072000000000
19.833279038000,-0.069000000000
19.840966159000,-0.067000000000
19.848653280000,-0.067000000000
19.856340401000,-0.064000000000
19.864027522000,-0.064000000000
19.871714643000,-0.062000000000
19.879401764000,-0.060000000000
19.887088885000,-0.064000000000
19.894776006000,-0.074000000000
19.902463127000,-0.081000000000
19.910150248000,-0.081000000000
19.917837369000,-0.074000000000
19.925524490000,-0.057000000000
19.933211611000,-0.043000000000
19.940898796000,-0.033000000000
19.948585987000,-0.021000000000
19.956273178000,-0.014000000000
19.963960369000,-0.031000000000
19.971647560000,-0.050000000000
19.979334751000,-0.052000000000
19.987021942000,-0.050000000000
19.994709133000,-0.052000000000
20.002396324000,-0.050000000000
20.010083515000,-0.048000000000
20.017770706000,-0.055000000000
20.025457897000,-0.091000000000
20.033145088000,-0.127000000000
20.040832279000,0.048000000000
20.048519470000,0.586000000000
20.056206661000,1.053000000000
20.063893852000,0.834000000000
20.071581043000,0.072000000000
20.079268234000,-0.406000000000
20.086955425000,-0.293000000000
20.094642616000,-0.168000000000
20.102329807000,-0.226000000000
20.110016998000,-0.173000000000
20.117704189000,-0.088000000000
20.125391380000,-0.110000000000
20.133078571000,-0.115000000000
20.140765762000,-0.079000000000
20.148452953000,-0.072000000000
20.156140144000,-0.072000000000
20.163827335000,-0.057000000000
20.171514526000,-0.048000000000
20.179201717000,-0.045000000000
20.186888908000,-0.038000000000
20.194576099000,-0.028000000000
20.202263290000,-0.021000000000
20.209950481000,-0.012000000000
20.217637672000,-0.002000000000
20.225324863000,0.004000000000
20.233012054000,0.014000000000
20.240699245000,0.026000000000
20.248386436000,0.040000000000
20.256073627000,0.050000000000
20.263760818000,0.062000000000
20.271448009000,0.074000000000
20.279135200000,0.081000000000
20.286822391000,0.081000000000
20.294509582000,0.084000000000
20.302196773000,0.084000000000
20.309883964000,0.079000000000
20.317571155000,0.076000000000
20.325258346000,0.069000000000
20.332945537000,0.055000000000
20.340632728000,0.036000000000
20.348319919000,0.009000000000
20.356007110000,-0.024000000000
20.363694301000,-0.057000000000
20.371381492000,-0.081000000000
20.379068683000,-0.096000000000
20.386755874000,-0.105000000000
20.394443065000,-0.110000000000
20.402130256000,-0.110000000000
20.409817447000,-0.108000000000
20.417504638000,-0.105000000000
20.425191829000,-0.101000000000
20.432879020000,-0.098000000000
20.440566211000,-0.096000000000
20.448253402000,-0.093000000000
20.455940593000,-0.093000000000
20.463627784000,-0.093000000000
20.471314975000,-0.093000000000
20.479002166000,-0.096000000000
20.486689357000,-0.096000000000
20.494376548000,-0.098000000000
20.502063784000,-0.098000000000
20.509750975000,-0.098000000000
20.517438166000,-0.096000000000
20.525125357000,-0.098000000000
20.532812548000,-0.098000000000
20.540499739000,-0.098000000000
20.548186930000,-0.098000000000
20.555874121000,-0.098000000000
20.563561312000,-0.098000000000
20.571248503000,-0.096000000000
20.578935694000,-0.096000000000
20.586622885000,-0.093000000000
20.594310076000,-0.091000000000
20.601997267000,-0.086000000000
20.609684458000,-0.081000000000
20.617371649000,-0.084000000000
20.625058840000,-0.084000000000
20.632746031000,-0.079000000000
20.640433222000,-0.079000000000
20.648120413000,-0.079000000000
20.655807604000,-0.076000000000
20.663494795000,-0.074000000000
20.671181986000,-0.076000000000
20.678869177000,-0.081000000000
20.686556368000,-0.086000000000
20.694243559000,-0.088000000000
20.701930750000,-0.088000000000
20.709617941000,-0.079000000000
20.717305132000,-0.062000000000
20.724992323000,-0.052000000000
20.732679514000,-0.038000000000
20.740366705000,-0.021000000000
20.748053896000,-0.026000000000
20.755741087000,-0.050000000000
20.763428278000,-0.060000000000
20.771115469000,-0.057000000000
20.778802660000,-0.057000000000
20.786489851000,-0.057000000000
20.794177042000,-0.052000000000
20.801864233000,-0.055000000000
20.809551424000,-0.074000000000
20.817238615000,-0.115000000000
20.824925806000,-0.036000000000
20.832612997000,0.394000000000
20.840300188000,0.957000000000
20.847987379000,0.952000000000
20.855674570000,0.235000000000
20.863361761000,-0.425000000000
20.871048952000,-0.442000000000
20.878736143000,-0.238000000000
20.886423334000,-0.235000000000
20.894110525000,-0.214000000000
20.901797716000,-0.101000000000
20.909484907000,-0.081000000000
20.917172098000,-0.103000000000
20.924859289000,-0.076000000000
20.932546480000,-0.057000000000
20.940233671000,-0.057000000000
20.947920862000,-0.043000000000
20.955608053000,-0.036000000000
20.963295244000,-0.031000000000
20.970982435000,-0.021000000000
20.978669626000,-0.012000000000
20.986356817000,-0.004000000000
20.994044008000,0.007000000000
21.001731199000,0.019000000000
21.009418390000,0.031000000000
21.017105581000,0.045000000000
21.024792772000,0.060000000000
21.032479963000,0.074000000000
21.040167154000,0.088000000000
21.047854345000,0.105000000000
21.055541536000,0.120000000000
21.063228768000,0.129000000000
21.070916168000,0.134000000000
21.078603568000,0.134000000000
21.086290968000,0.132000000000
21.093978368000,0.125000000000
21.101665768000,0.117000000000
21.109353168000,0.108000000000
21.117040568000,0.086000000000
21.124727968000,0.055000000000
21.132415368000,0.019000000000
21.140102768000,-0.028000000000
21.147790168000,-0.076000000000
21.155477568000,-0.108000000000
21.163164968000,-0.127000000000
21.170852368000,-0.139000000000
21.178539768000,-0.141000000000
21.186227168000,-0.139000000000
21.193914568000,-0.134000000000
21.201601968000,-0.127000000000
21.209289368000,-0.122000000000
21.216976768000,-0.117000000000
21.224664168000,-0.115000000000
21.232351568000,-0.110000000000
21.240038968000,-0.105000000000
21.247726368000,-0.105000000000
21.255413768000,-0.105000000000
21.263101168000,-0.105000000000
21.270788568000,-0.108000000000
21.278475968000,-0.113000000000
21.286163368000,-0.115000000000
21.293850768000,-0.115000000000
21.301538168000,-0.117000000000
21.309225568000,-0.117000000000
21.316912968000,-0.115000000000
21.324600368000,-0.115000000000
21.332287768000,-0.115000000000
21.339975168000,-0.113000000000
21.347662568000,-0.110000000000
21.355349968000,-0.108000000000
21.363037368000,-0.110000000000
21.370724768000,-0.113000000000
21.378412168000,-0.117000000000
21.386099568000,-0.120000000000
21.393786968000,-0.120000000000
21.401474368000,-0.113000000000
21.409161768000,-0.098000000000
21.416849168000,-0.088000000000
21.424536568000,-0.081000000000
21.432223968000,-0.060000000000
21.439911368000,-0.045000000000
21.447598768000,-0.067000000000
21.455286168000,-0.086000000000
21.462973568000,-0.084000000000
21.470660968000,-0.081000000000
21.478348368000,-0.084000000000
21.486035768000,-0.076000000000
21.493723168000,-0.072000000000
21.501410568000,-0.079000000000
21.509097968000,-0.103000000000
21.516785368000,-0.101000000000
21.524472768000,0.139000000000
21.532160168000,0.728000000000
21.539847568000,1.115000000000
21.547534968000,0.668000000000
21.555222368000,-0.235000000000
21.562909768000,-0.630000000000
21.570597168000,-0.406000000000
21.578284568000,-0.262000000000
21.585971968000,-0.283000000000
21.593659368000,-0.177000000000
21.601346768000,-0.081000000000
21.609034168000,-0.098000000000
21.616721568000,-0.093000000000
21.624409009000,-0.060000000000
21.632096130000,-0.055000000000
21.639783251000,-0.052000000000
21.647470372000,-0.036000000000
21.655157493000,-0.026000000000
21.662844614000,-0.021000000000
21.670531735000,-0.009000000000
21.678218856000,0.002000000000
21.685905977000,0.009000000000
21.693593098000,0.019000000000
21.701280219000,0.033000000000
21.708967340000,0.048000000000
21.716654461000,0.060000000000
21.724341582000,0.076000000000
21.732028703000,0.096000000000
21.739715824000,0.115000000000
21.747402945000,0.134000000000
21.755090066000,0.149000000000
21.762777187000,0.156000000000
21.770464308000,0.158000000000
21.778151429000,0.156000000000
21.785838550000,0.151000000000
21.793525671000,0.141000000000
21.801212792000,0.127000000000
21.808899913000,0.103000000000
21.816587034000,0.069000000000
21.824274155000,0.028000000000
21.831961276000,-0.021000000000
21.839648397000,-0.074000000000
21.847335518000,-0.117000000000
21.855022639000,-0.141000000000
21.862709760000,-0.156000000000
21.870396881000,-0.161000000000
21.878084002000,-0.161000000000
21.885771123000,-0.153000000000
21.893458244000,-0.146000000000
21.901145365000,-0.139000000000
21.908832486000,-0.129000000000
21.916519607000,-0.122000000000
21.924206728000,-0.120000000000
21.931893849000,-0.115000000000
21.939580970000,-0.113000000000
21.947268091000,-0.115000000000
21.954955212000,-0.117000000000
21.962642333000,-0.117000000000
21.970329454000,-0.120000000000
21.978016575000,-0.125000000000
21.985703696000,-0.125000000000
21.993390817000,-0.125000000000
22.001077938000,-0.125000000000
22.008765059000,-0.125000000000
22.016452180000,-0.125000000000
22.024139301000,-0.125000000000
22.031826422000,-0.125000000000
22.039513543000,-0.125000000000
22.047200664000,-0.129000000000
22.054887785000,-0.134000000000
22.062574906000,-0.134000000000
22.070262027000,-0.132000000000
22.077949148000,-0.117000000000
22.085636269000,-0.105000000000
22.093323390000,-0.096000000000
22.101010511000,-0.072000000000
22.108697632000,-0.052000000000
22.116384753000,-0.064000000000
22.124071874000,-0.088000000000
22.131758995000,-0.091000000000
22.139446116000,-0.086000000000
22.147133237000,-0.086000000000
22.154820358000,-0.084000000000
22.162507479000,-0.079000000000
22.170194600000,-0.079000000000
22.177881721000,-0.101000000000
22.185568906000,-0.156000000000
22.193256027000,-0.115000000000
22.200943148000,0.286000000000
22.208630269000,0.925000000000
22.216317390000,1.154000000000
22.224004511000,0.574000000000
22.231691632000,-0.235000000000
22.239378753000,-0.425000000000
22.247065874000,-0.211000000000
22.254752995000,-0.209000000000
22.262440116000,-0.247000000000
22.270127237000,-0.146000000000
22.277814358000,-0.120000000000
22.285501479000,-0.151000000000
22.293188600000,-0.122000000000
22.300875721000,-0.093000000000
22.308562842000,-0.098000000000
22.316249963000,-0.088000000000
22.323937084000,-0.072000000000
22.331624205000,-0.067000000000
22.339311326000,-0.060000000000
22.346998447000,-0.050000000000
22.354685568000,-0.043000000000
22.362372689000,-0.033000000000
22.370059810000,-0.021000000000
22.377746931000,-0.012000000000
22.385434052000,0.000000000000
22.393121173000,0.014000000000
22.400808294000,0.028000000000
22.408495415000,0.043000000000
22.416182536000,0.060000000000
22.423869657000,0.072000000000
22.431556778000,0.079000000000
22.439243899000,0.081000000000
22.446931020000,0.081000000000
22.454618141000,0.076000000000
22.462305262000,0.069000000000
22.469992383000,0.062000000000
22.477679504000,0.050000000000
22.485366625000,0.028000000000
22.493053746000,0.004000000000
22.500740867000,-0.024000000000
22.508427988000,-0.057000000000
22.516115109000,-0.091000000000
22.523802230000,-0.113000000000
22.531489351000,-0.125000000000
22.539176472000,-0.129000000000
22.546863593000,-0.132000000000
22.554550714000,-0.129000000000
22.562237835000,-0.127000000000
22.569924956000,-0.125000000000
22.577612077000,-0.122000000000
22.585299198000,-0.120000000000
22.592986319000,-0.115000000000
22.600673440000,-0.113000000000
22.608360561000,-0.113000000000
22.616047682000,-0.113000000000
22.623734803000,-0.110000000000
22.631421924000,-0.110000000000
22.639109045000,-0.113000000000
22.646796166000,-0.113000000000
22.654483287000,-0.110000000000
22.662170408000,-0.113000000000
22.669857529000,-0.110000000000
22.677544650000,-0.110000000000
22.685231771000,-0.113000000000
22.692918892000,-0.110000000000
22.700606013000,-0.108000000000
22.708293134000,-0.105000000000
22.715980255000,-0.105000000000
22.723667376000,-0.103000000000
22.731354497000,-0.098000000000
22.739041618000,-0.096000000000
22.746728803000,-0.093000000000
22.754415924000,-0.093000000000
22.762103045000,-0.101000000000
22.769790166000,-0.108000000000
22.777477287000,-0.110000000000
22.785164408000,-0.110000000000
22.792851529000,-0.101000000000
22.800538650000,-0.084000000000
22.808225771000,-0.074000000000
22.815912892000,-0.062000000000
22.823600013000,-0.038000000000
22.831287134000,-0.038000000000
22.838974255000,-0.062000000000
22.846661376000,-0.072000000000
22.854348497000,-0.067000000000
22.862035618000,-0.067000000000
22.869722739000,-0.069000000000
22.877409860000,-0.064000000000
22.885096981000,-0.062000000000
22.892784102000,-0.074000000000
22.900471223000,-0.122000000000
22.908158344000,-0.161000000000
22.915845465000,0.055000000000
22.923532586000,0.644000000000
22.931219707000,1.130000000000
22.938906828000,0.887000000000
22.946593949000,0.069000000000
22.954281070000,-0.411000000000
22.961968191000,-0.269000000000
22.969655312000,-0.165000000000
22.977342433000,-0.238000000000
22.985029554000,-0.175000000000
22.992716675000,-0.103000000000
23.000403796000,-0.132000000000
23.008090917000,-0.127000000000
23.015778038000,-0.091000000000
23.023465159000,-0.086000000000
23.031152280000,-0.086000000000
23.038839401000,-0.069000000000
23.046526522000,-0.062000000000
23.054213643000,-0.057000000000
23.061900764000,-0.048000000000
23.069587885000,-0.038000000000
23.077275006000,-0.031000000000
23.084962127000,-0.024000000000
23.092649248000,-0.012000000000
23.100336369000,-0.002000000000
23.108023490000,0.007000000000
23.115710611000,0.016000000000
23.123397732000,0.028000000000
23.131084853000,0.040000000000
23.138771974000,0.052000000000
23.146459095000,0.060000000000
23.154146216000,0.064000000000
23.161833337000,0.064000000000
23.169520458000,0.062000000000
23.177207579000,0.060000000000
23.184894700000,0.052000000000
23.192581821000,0.045000000000
23.200268942000,0.033000000000
23.207956063000,0.016000000000
23.215643184000,-0.004000000000
23.223330305000,-0.031000000000
23.231017426000,-0.062000000000
23.238704547000,-0.088000000000
23.246391668000,-0.108000000000
23.254078789000,-0.120000000000
23.261765910000,-0.127000000000
23.269453031000,-0.129000000000
23.277140152000,-0.129000000000
23.284827273000,-0.132000000000
23.292514394000,-0.129000000000
23.300201515000,-0.127000000000
23.307888700000,-0.127000000000
23.315575891000,-0.129000000000
23.323263082000,-0.129000000000
23.330950273000,-0.129000000000
23.338637464000,-0.132000000000
23.346324655000,-0.134000000000
23.354011846000,-0.137000000000
23.361699037000,-0.139000000000
23.369386228000,-0.144000000000
23.377073419000,-0.146000000000
23.384760610000,-0.149000000000
23.392447801000,-0.151000000000
23.400134992000,-0.153000000000
23.407822183000,-0.153000000000
23.415509374000,-0.156000000000
23.423196565000,-0.158000000000
23.430883756000,-0.156000000000
23.438570947000,-0.156000000000
23.446258138000,-0.156000000000
23.453945329000,-0.156000000000
23.461632520000,-0.156000000000
23.469319711000,-0.156000000000
23.477006902000,-0.156000000000
23.484694093000,-0.156000000000
23.492381284000,-0.156000000000
23.500068475000,-0.156000000000
23.507755666000,-0.153000000000
23.515442857000,-0.153000000000
23.523130048000,-0.153000000000
23.530817239000,-0.156000000000
23.538504430000,-0.153000000000
23.546191621000,-0.156000000000
23.553878812000,-0.163000000000
23.561566003000,-0.173000000000
23.569253194000,-0.177000000000
23.576940385000,-0.177000000000
23.584627576000,-0.168000000000
23.592314767000,-0.156000000000
23.600001958000,-0.146000000000
23.607689149000,-0.134000000000
23.615376340000,-0.117000000000
23.623063531000,-0.122000000000
23.630750722000,-0.146000000000
23.638437913000,-0.158000000000
23.646125104000,-0.158000000000
23.653812295000,-0.161000000000
23.661499486000,-0.163000000000
23.669186677000,-0.161000000000
23.676873868000,-0.161000000000
23.684561059000,-0.170000000000
23.692248250000,-0.214000000000
23.699935441000,-0.254000000000
23.707622632000,-0.055000000000
23.715309823000,0.514000000000
23.722997014000,0.981000000000
23.730684205000,0.731000000000
23.738371396000,-0.064000000000
23.746058587000,-0.529000000000
23.753745778000,-0.384000000000
23.761432969000,-0.274000000000
23.769120160000,-0.343000000000
23.776807351000,-0.281000000000
23.784494542000,-0.206000000000
23.792181733000,-0.235000000000
23.799868924000,-0.233000000000
23.807556115000,-0.197000000000
23.815243306000,-0.197000000000
23.822930497000,-0.197000000000
23.830617688000,-0.180000000000
23.838304879000,-0.173000000000
23.845992070000,-0.170000000000
23.853679261000,-0.161000000000
23.861366452000,-0.151000000000
23.869053688000,-0.144000000000
23.876740879000,-0.134000000000
23.884428070000,-0.125000000000
23.892115261000,-0.115000000000
23.899802452000,-0.105000000000
23.907489643000,-0.096000000000
23.915176834000,-0.084000000000
23.922864025000,-0.074000000000
23.930551216000,-0.067000000000
23.938238407000,-0.060000000000
23.945925598000,-0.055000000000
23.953612789000,-0.055000000000
23.961299980000,-0.055000000000
23.968987171000,-0.057000000000
23.976674362000,-0.060000000000
23.984361553000,-0.062000000000
23.992048744000,-0.067000000000
23.999735935000,-0.076000000000
24.007423126000,-0.093000000000
24.015110317000,-0.117000000000
24.022797508000,-0.144000000000
24.030484699000,-0.168000000000
24.038171890000,-0.187000000000
24.045859081000,-0.202000000000
24.053546272000,-0.209000000000
24.061233463000,-0.214000000000
24.068920654000,-0.214000000000
24.076607845000,-0.211000000000
24.084295036000,-0.206000000000
24.091982227000,-0.202000000000
24.099669418000,-0.202000000000
24.107356609000,-0.199000000000
24.115043800000,-0.197000000000
24.122730991000,-0.197000000000
24.130418182000,-0.197000000000
24.138105373000,-0.194000000000
24.145792564000,-0.194000000000
24.153479755000,-0.194000000000
24.161166946000,-0.194000000000
24.168854137000,-0.194000000000
24.176541328000,-0.192000000000
24.184228519000,-0.192000000000
24.191915710000,-0.192000000000
24.199602901000,-0.189000000000
24.207290092000,-0.189000000000
24.214977283000,-0.187000000000
24.222664474000,-0.185000000000
24.230351665000,-0.180000000000
24.238038856000,-0.177000000000
24.245726047000,-0.175000000000
24.253413238000,-0.170000000000
24.261100429000,-0.170000000000
24.268787620000,-0.165000000000
24.276474811000,-0.161000000000
24.284162002000,-0.158000000000
24.291849193000,-0.156000000000
24.299536384000,-0.153000000000
24.307223575000,-0.151000000000
24.314910766000,-0.146000000000
24.322597957000,-0.144000000000
24.330285148000,-0.141000000000
24.337972339000,-0.139000000000
24.345659530000,-0.137000000000
24.353346721000,-0.132000000000
24.361033912000,-0.129000000000
24.368721103000,-0.127000000000
24.376408294000,-0.125000000000
24.384095485000,-0.122000000000
24.391782676000,-0.120000000000
24.399469867000,-0.117000000000
24.407157058000,-0.115000000000
24.414844249000,-0.113000000000
24.422531440000,-0.113000000000
24.430218672000,-0.110000000000
24.437906072000,-0.108000000000
24.445593472000,-0.108000000000
24.453280872000,-0.115000000000
24.460968272000,-0.122000000000
24.468655672000,-0.122000000000
24.476343072000,-0.120000000000
24.484030472000,-0.108000000000
24.491717872000,-0.086000000000
24.499405272000,-0.069000000000
24.507092672000,-0.064000000000
24.514780072000,-0.055000000000
24.522467472000,-0.055000000000
24.530154872000,-0.072000000000
24.537842272000,-0.086000000000
24.545529672000,-0.086000000000
24.553217072000,-0.084000000000
24.560904472000,-0.084000000000
24.568591872000,-0.081000000000
24.576279272000,-0.079000000000
24.583966672000,-0.086000000000
24.591654072000,-0.122000000000
24.599341472000,-0.165000000000
24.607028872000,0.009000000000
24.614716272000,0.560000000000
24.622403672000,1.058000000000
24.630091072000,0.875000000000
24.637778472000,0.108000000000
24.645465872000,-0.401000000000
24.653153272000,-0.295000000000
24.660840672000,-0.168000000000
24.668528072000,-0.238000000000
24.676215472000,-0.192000000000
24.683902872000,-0.110000000000
24.691590272000,-0.132000000000
24.699277672000,-0.137000000000
24.706965072000,-0.098000000000
24.714652472000,-0.088000000000
24.722339872000,-0.088000000000
24.730027272000,-0.074000000000
24.737714672000,-0.064000000000
24.745402072000,-0.060000000000
24.753089472000,-0.050000000000
24.760776872000,-0.040000000000
24.768464272000,-0.036000000000
24.776151672000,-0.026000000000
24.783839072000,-0.014000000000
24.791526472000,-0.007000000000
24.799213872000,0.002000000000
24.806901272000,0.012000000000
24.814588672000,0.021000000000
24.822276072000,0.031000000000
24.829963472000,0.038000000000
24.837650872000,0.045000000000
24.845338272000,0.052000000000
24.853025672000,0.055000000000
24.860713072000,0.052000000000
24.868400472000,0.052000000000
24.876087872000,0.052000000000
24.883775272000,0.055000000000
24.891462672000,0.052000000000
24.899150072000,0.048000000000
24.906837472000,0.038000000000
24.914524872000,0.021000000000
24.922212272000,-0.002000000000
24.929899672000,-0.028000000000
24.937587072000,-0.050000000000
24.945274472000,-0.067000000000
24.952961872000,-0.079000000000
24.960649272000,-0.084000000000
24.968336672000,-0.088000000000
24.976024072000,-0.088000000000
24.983711472000,-0.086000000000
24.991398913000,-0.081000000000
24.999086034000,-0.081000000000
25.006773155000,-0.081000000000
25.014460276000,-0.079000000000
25.022147397000,-0.079000000000
25.029834518000,-0.079000000000
25.037521639000,-0.079000000000
25.045208760000,-0.081000000000
25.052895881000,-0.084000000000
25.060583002000,-0.084000000000
25.068270123000,-0.084000000000
25.075957244000,-0.086000000000
25.083644365000,-0.086000000000
25.091331486000,-0.084000000000
25.099018607000,-0.086000000000
25.106705728000,-0.084000000000
25.114392849000,-0.081000000000
25.122079970000,-0.081000000000
25.129767091000,-0.081000000000
25.137454212000,-0.076000000000
25.145141333000,-0.074000000000
25.152828454000,-0.074000000000
25.160515575000,-0.072000000000
25.168202696000,-0.069000000000
25.175889817000,-0.069000000000
25.183576938000,-0.067000000000
25.191264059000,-0.064000000000
25.198951180000,-0.062000000000
25.206638301000,-0.062000000000
25.214325422000,-0.060000000000
25.222012543000,-0.055000000000
25.229699664000,-0.055000000000
25.237386785000,-0.052000000000
25.245073906000,-0.050000000000
25.252761027000,-0.048000000000
25.260448148000,-0.045000000000
25.268135269000,-0.043000000000
25.275822390000,-0.043000000000
25.283509511000,-0.043000000000
25.291196632000,-0.045000000000
25.298883753000,-0.055000000000
25.306570874000,-0.062000000000
25.314257995000,-0.060000000000
25.321945116000,-0.052000000000
25.329632237000,-0.036000000000
25.337319358000,-0.016000000000
25.345006479000,-0.007000000000
25.352693600000,0.002000000000
25.360380721000,0.007000000000
25.368067842000,-0.007000000000
25.375754963000,-0.026000000000
25.383442084000,-0.028000000000
25.391129205000,-0.026000000000
25.398816326000,-0.026000000000
25.406503447000,-0.024000000000
25.414190568000,-0.021000000000
25.421877689000,-0.026000000000
25.429564810000,-0.057000000000
25.437251931000,-0.103000000000
25.444939052000,0.028000000000
25.452626173000,0.538000000000
25.460313294000,1.067000000000
25.468000415000,0.952000000000
25.475687536000,0.202000000000
25.483374657000,-0.363000000000
25.491061778000,-0.290000000000
25.498748899000,-0.134000000000
25.506436020000,-0.192000000000
25.514123141000,-0.156000000000
25.521810262000,-0.062000000000
25.529497383000,-0.076000000000
25.537184504000,-0.088000000000
25.544871625000,-0.052000000000
25.552558810000,-0.043000000000
25.560245931000,-0.045000000000
25.567933052000,-0.028000000000
25.575620173000,-0.016000000000
25.583307294000,-0.014000000000
25.590994415000,-0.007000000000
25.598681536000,0.004000000000
25.606368657000,0.009000000000
25.614055778000,0.021000000000
25.621742899000,0.031000000000
25.629430020000,0.040000000000
25.637117141000,0.050000000000
25.644804262000,0.064000000000
25.652491383000,0.074000000000
25.660178504000,0.084000000000
25.667865625000,0.096000000000
25.675552746000,0.101000000000
25.683239867000,0.105000000000
25.690926988000,0.105000000000
25.698614109000,0.103000000000
25.706301230000,0.101000000000
25.713988351000,0.096000000000
25.721675472000,0.088000000000
25.729362593000,0.079000000000
25.737049714000,0.072000000000
25.744736835000,0.055000000000
25.752423956000,0.031000000000
25.760111077000,-0.002000000000
25.767798198000,-0.033000000000
25.775485319000,-0.057000000000
25.783172440000,-0.072000000000
25.790859561000,-0.081000000000
25.798546682000,-0.086000000000
25.806233803000,-0.088000000000
25.813920924000,-0.086000000000
25.821608045000,-0.081000000000
25.829295166000,-0.079000000000
25.836982287000,-0.076000000000
25.844669408000,-0.074000000000
25.852356529000,-0.072000000000
25.860043650000,-0.072000000000
25.867730771000,-0.072000000000
25.875417892000,-0.069000000000
25.883105013000,-0.069000000000
25.890792134000,-0.069000000000
25.898479255000,-0.069000000000
25.906166376000,-0.072000000000
25.913853497000,-0.074000000000
25.921540618000,-0.074000000000
25.929227739000,-0.076000000000
25.936914860000,-0.076000000000
25.944601981000,-0.074000000000
25.952289102000,-0.072000000000
25.959976223000,-0.072000000000
25.967663344000,-0.072000000000
25.975350465000,-0.072000000000
25.983037586000,-0.072000000000
25.990724707000,-0.069000000000
25.998411828000,-0.067000000000
26.006098949000,-0.064000000000
26.013786070000,-0.064000000000
26.021473191000,-0.062000000000
26.029160312000,-0.060000000000
26.036847433000,-0.057000000000
26.044534554000,-0.055000000000
26.052221675000,-0.055000000000
26.059908796000,-0.055000000000
26.067595917000,-0.055000000000
26.075283038000,-0.052000000000
26.082970159000,-0.048000000000
26.090657280000,-0.050000000000
26.098344401000,-0.060000000000
26.106031522000,-0.062000000000
26.113718707000,-0.060000000000
26.121405828000,-0.064000000000
26.129092949000,-0.055000000000
26.136780070000,-0.038000000000
26.144467191000,-0.028000000000
26.152154312000,-0.016000000000
26.159841433000,-0.002000000000
26.167528554000,-0.009000000000
26.175215675000,-0.031000000000
26.182902796000,-0.038000000000
26.190589917000,-0.036000000000
26.198277038000,-0.040000000000
26.205964159000,-0.040000000000
26.213651280000,-0.033000000000
26.221338401000,-0.036000000000
26.229025522000,-0.050000000000
26.236712643000,-0.084000000000
26.244399764000,-0.048000000000
26.252086885000,0.305000000000
26.259774006000,0.896000000000
26.267461127000,1.036000000000
26.275148248000,0.399000000000
26.282835369000,-0.343000000000
26.290522490000,-0.466000000000
26.298209611000,-0.242000000000
26.305896732000,-0.209000000000
26.313583853000,-0.211000000000
26.321270974000,-0.098000000000
26.328958095000,-0.060000000000
26.336645216000,-0.088000000000
26.344332337000,-0.067000000000
26.352019458000,-0.040000000000
26.359706579000,-0.040000000000
26.367393700000,-0.036000000000
26.375080821000,-0.019000000000
26.382767942000,-0.012000000000
26.390455063000,-0.009000000000
26.398142184000,0.000000000000
26.405829305000,0.012000000000
26.413516426000,0.019000000000
26.421203547000,0.031000000000
26.428890668000,0.043000000000
26.436577789000,0.052000000000
26.444264910000,0.062000000000
26.451952031000,0.076000000000
26.459639152000,0.093000000000
26.467326273000,0.108000000000
26.475013394000,0.122000000000
26.482700515000,0.132000000000
26.490387636000,0.137000000000
26.498074757000,0.137000000000
26.505761878000,0.134000000000
26.513448999000,0.129000000000
26.521136120000,0.122000000000
26.528823241000,0.113000000000
26.536510362000,0.098000000000
26.544197483000,0.076000000000
26.551884604000,0.045000000000
26.559571725000,0.002000000000
26.567258846000,-0.043000000000
26.574945967000,-0.079000000000
26.582633088000,-0.103000000000
26.590320209000,-0.117000000000
26.598007330000,-0.122000000000
26.605694451000,-0.125000000000
26.613381572000,-0.120000000000
26.621068693000,-0.115000000000
26.628755814000,-0.110000000000
26.636442935000,-0.103000000000
26.644130056000,-0.098000000000
26.651817177000,-0.093000000000
26.659504298000,-0.091000000000
26.667191419000,-0.091000000000
26.674878604000,-0.091000000000
26.682566143000,-0.091000000000
26.690253682000,-0.093000000000
26.697941221000,-0.098000000000
26.705628760000,-0.101000000000
26.713316299000,-0.103000000000
26.721003838000,-0.105000000000
26.728691377000,-0.108000000000
26.736378916000,-0.108000000000
26.744066455000,-0.105000000000
26.751753994000,-0.103000000000
26.759441533000,-0.105000000000
26.767129072000,-0.103000000000
26.774816611000,-0.101000000000
26.782504150000,-0.101000000000
26.790191689000,-0.098000000000
26.797879228000,-0.096000000000
26.805566767000,-0.093000000000
26.813254306000,-0.091000000000
26.820941845000,-0.088000000000
26.828629384000,-0.086000000000
26.836316923000,-0.084000000000
26.844004462000,-0.081000000000
26.851692001000,-0.079000000000
26.859379540000,-0.079000000000
26.867067079000,-0.084000000000
26.874754618000,-0.091000000000
26.882442157000,-0.093000000000
26.890129696000,-0.093000000000
26.897817235000,-0.086000000000
26.905504774000,-0.069000000000
26.913192313000,-0.057000000000
26.920879852000,-0.048000000000
26.928567391000,-0.031000000000
26.936254930000,-0.024000000000
26.943942469000,-0.040000000000
26.951630008000,-0.057000000000
26.959317547000,-0.057000000000
26.967005086000,-0.060000000000
26.974692625000,-0.060000000000
26.982380164000,-0.055000000000
26.990067703000,-0.055000000000
26.997755242000,-0.060000000000
27.005442781000,-0.086000000000
27.013130320000,-0.134000000000
27.020817859000,-0.002000000000
27.028505398000,0.514000000000
27.036192937000,1.062000000000
27.043880476000,0.961000000000
27.051568015000,0.197000000000
27.059255554000,-0.416000000000
27.066943093000,-0.365000000000
27.074630632000,-0.180000000000
27.082318171000,-0.218000000000
27.090005710000,-0.189000000000
27.097693249000,-0.093000000000
27.105380788000,-0.101000000000
27.113068327000,-0.115000000000
27.120755866000,-0.079000000000
27.128443405000,-0.064000000000
27.136130944000,-0.067000000000
27.143818483000,-0.052000000000
27.151506022000,-0.040000000000
27.159193561000,-0.038000000000
27.166881100000,-0.028000000000
27.174568639000,-0.016000000000
27.182256178000,-0.012000000000
27.189943717000,-0.002000000000
27.197631256000,0.009000000000
27.205318795000,0.019000000000
27.213006334000,0.028000000000
27.220693873000,0.043000000000
27.228381412000,0.055000000000
27.236069023000,0.069000000000
27.243756144000,0.084000000000
27.251443265000,0.096000000000
27.259130386000,0.103000000000
27.266817507000,0.108000000000
27.274504628000,0.105000000000
27.282191749000,0.101000000000
27.289878870000,0.096000000000
27.297565991000,0.088000000000
27.305253112000,0.076000000000
27.312940233000,0.057000000000
27.320627354000,0.036000000000
27.328314475000,0.007000000000
27.336001596000,-0.028000000000
27.343688717000,-0.062000000000
27.351375838000,-0.091000000000
27.359062959000,-0.105000000000
27.366750080000,-0.113000000000
27.374437201000,-0.117000000000
27.382124322000,-0.117000000000
27.389811443000,-0.115000000000
27.397498564000,-0.108000000000
27.405185685000,-0.105000000000
27.412872806000,-0.103000000000
27.420559927000,-0.098000000000
27.428247048000,-0.096000000000
27.435934169000,-0.096000000000
27.443621290000,-0.096000000000
27.451308411000,-0.093000000000
27.458995532000,-0.093000000000
27.466682653000,-0.093000000000
27.474369774000,-0.093000000000
27.482056895000,-0.096000000000
27.489744016000,-0.098000000000
27.497431137000,-0.098000000000
27.505118258000,-0.096000000000
27.512805379000,-0.096000000000
27.520492500000,-0.098000000000
27.528179621000,-0.098000000000
27.535866742000,-0.098000000000
27.543553863000,-0.093000000000
27.551240984000,-0.091000000000
27.558928105000,-0.091000000000
27.566615226000,-0.088000000000
27.574302347000,-0.086000000000
27.581989468000,-0.084000000000
27.589676589000,-0.081000000000
27.597363710000,-0.079000000000
27.605050831000,-0.076000000000
27.612737952000,-0.074000000000
27.620425073000,-0.072000000000
27.628112194000,-0.072000000000
27.635799315000,-0.069000000000
27.643486436000,-0.067000000000
27.651173557000,-0.067000000000
27.658860678000,-0.072000000000
27.666547799000,-0.081000000000
27.674234920000,-0.086000000000
27.681922041000,-0.086000000000
27.689609162000,-0.079000000000
27.697296283000,-0.060000000000
27.704983404000,-0.048000000000
27.712670525000,-0.038000000000
27.720357646000,-0.021000000000
27.728044767000,-0.014000000000
27.735731888000,-0.031000000000
27.743419009000,-0.048000000000
27.751106130000,-0.050000000000
27.758793251000,-0.050000000000
27.766480372000,-0.050000000000
27.774167493000,-0.048000000000
27.781854614000,-0.045000000000
27.789541735000,-0.050000000000
27.797228920000,-0.084000000000
27.804916041000,-0.139000000000
27.812603162000,-0.019000000000
27.820290283000,0.485000000000
27.827977404000,1.053000000000
27.835664525000,1.026000000000
27.843351646000,0.305000000000
27.851038767000,-0.336000000000
27.858725888000,-0.319000000000
27.866413009000,-0.149000000000
27.874100130000,-0.206000000000
27.881787251000,-0.192000000000
27.889474372000,-0.101000000000
27.897161493000,-0.108000000000
27.904848614000,-0.125000000000
27.912535735000,-0.088000000000
27.920222856000,-0.074000000000
27.927909977000,-0.076000000000
27.935597098000,-0.062000000000
27.943284219000,-0.050000000000
27.950971340000,-0.045000000000
27.958658461000,-0.038000000000
27.966345582000,-0.028000000000
27.974032703000,-0.019000000000
27.981719824000,-0.012000000000
27.989406945000,0.000000000000
27.997094066000,0.009000000000
28.004781187000,0.019000000000
28.012468308000,0.031000000000
28.020155429000,0.043000000000
28.027842550000,0.052000000000
28.035529671000,0.064000000000
28.043216792000,0.074000000000
28.050903913000,0.081000000000
28.058591034000,0.084000000000
28.066278155000,0.081000000000
28.073965276000,0.079000000000
28.081652397000,0.074000000000
28.089339518000,0.067000000000
28.097026639000,0.057000000000
28.104713760000,0.045000000000
28.112400881000,0.028000000000
28.120088002000,0.007000000000
28.127775123000,-0.021000000000
28.135462244000,-0.052000000000
28.143149365000,-0.076000000000
28.150836486000,-0.093000000000
28.158523607000,-0.101000000000
28.166210728000,-0.105000000000
28.173897849000,-0.105000000000
28.181584970000,-0.105000000000
28.189272091000,-0.103000000000
28.196959212000,-0.101000000000
28.204646333000,-0.098000000000
28.212333454000,-0.096000000000
28.220020575000,-0.093000000000
28.227707696000,-0.093000000000
28.235394817000,-0.091000000000
28.243081938000,-0.091000000000
28.250769059000,-0.091000000000
28.258456180000,-0.093000000000
28.266143301000,-0.093000000000
28.273830422000,-0.093000000000
28.281517543000,-0.096000000000
28.289204664000,-0.096000000000
28.296891785000,-0.096000000000
28.304578906000,-0.096000000000
28.312266027000,-0.096000000000
28.319953148000,-0.096000000000
28.327640269000,-0.093000000000
28.335327390000,-0.093000000000
28.343014511000,-0.091000000000
28.350701632000,-0.091000000000
28.358388817000,-0.088000000000
28.366075938000,-0.088000000000
28.373763059000,-0.086000000000
28.381450180000,-0.081000000000
28.389137301000,-0.079000000000
28.396824422000,-0.079000000000
28.404511543000,-0.076000000000
28.412198664000,-0.074000000000
28.419885785000,-0.072000000000
28.427572906000,-0.067000000000
28.435260027000,-0.067000000000
28.442947148000,-0.064000000000
28.450634269000,-0.062000000000
28.458321390000,-0.060000000000
28.466008511000,-0.057000000000
28.473695632000,-0.055000000000
28.481382753000,-0.052000000000
28.489069874000,-0.050000000000
28.496756995000,-0.050000000000
28.504444116000,-0.055000000000
28.512131237000,-0.062000000000
28.519818358000,-0.067000000000
28.527505479000,-0.062000000000
28.535192600000,-0.055000000000
28.542879721000,-0.040000000000
28.550566842000,-0.026000000000
28.558253963000,-0.019000000000
28.565941084000,-0.002000000000
28.573628205000,0.002000000000
28.581315326000,-0.019000000000
28.589002447000,-0.036000000000
28.596689568000,-0.036000000000
28.604376689000,-0.033000000000
28.612063810000,-0.036000000000
28.619750931000,-0.033000000000
28.627438052000,-0.033000000000
28.635125173000,-0.040000000000
28.642812294000,-0.079000000000
28.650499415000,-0.117000000000
28.658186536000,0.064000000000
28.665873657000,0.610000000000
28.673560778000,1.084000000000
28.681247899000,0.880000000000
28.688935020000,0.113000000000
28.696622141000,-0.384000000000
28.704309262000,-0.271000000000
28.711996383000,-0.144000000000
28.719683504000,-0.209000000000
28.727370625000,-0.161000000000
28.735057746000,-0.081000000000
28.742744867000,-0.103000000000
28.750431988000,-0.105000000000
28.758119109000,-0.069000000000
28.765806230000,-0.064000000000
28.773493351000,-0.064000000000
28.781180472000,-0.050000000000
28.788867593000,-0.040000000000
28.796554714000,-0.038000000000
28.804241835000,-0.028000000000
28.811928956000,-0.019000000000
28.819616077000,-0.014000000000
28.827303198000,-0.004000000000
28.834990319000,0.007000000000
28.842677440000,0.014000000000
28.850364561000,0.024000000000
28.858051682000,0.036000000000
28.865738803000,0.045000000000
28.873425924000,0.055000000000
28.881113045000,0.064000000000
28.888800166000,0.072000000000
28.896487287000,0.076000000000
28.904174408000,0.079000000000
28.911861529000,0.076000000000
28.919548714000,0.072000000000
28.927236184000,0.067000000000
28.934923654000,0.064000000000
28.942611124000,0.057000000000
28.950298594000,0.045000000000
28.957986064000,0.028000000000
28.965673534000,0.007000000000
28.973361004000,-0.019000000000
28.981048474000,-0.048000000000
28.988735944000,-0.072000000000
28.996423414000,-0.086000000000
29.004110884000,-0.098000000000
29.011798354000,-0.103000000000
29.019485824000,-0.105000000000
29.027173294000,-0.103000000000
29.034860764000,-0.101000000000
29.042548234000,-0.101000000000
29.050235704000,-0.098000000000
29.057923174000,-0.093000000000
29.065610644000,-0.093000000000
29.073298114000,-0.093000000000
29.080985584000,-0.091000000000
29.088673054000,-0.091000000000
29.096360524000,-0.093000000000
29.104047994000,-0.093000000000
29.111735464000,-0.096000000000
29.119422934000,-0.096000000000
29.127110404000,-0.098000000000
29.134797874000,-0.098000000000
29.142485344000,-0.098000000000
29.150172814000,-0.101000000000
29.157860284000,-0.098000000000
29.165547754000,-0.098000000000
29.173235224000,-0.098000000000
29.180922694000,-0.096000000000
29.188610164000,-0.093000000000
29.196297634000,-0.093000000000
29.203985104000,-0.091000000000
29.211672574000,-0.091000000000
29.219360044000,-0.088000000000
29.227047514000,-0.088000000000
29.234734984000,-0.086000000000
29.242422454000,-0.084000000000
29.250109924000,-0.081000000000
29.257797394000,-0.079000000000
29.265484864000,-0.079000000000
29.273172334000,-0.076000000000
29.280859804000,-0.074000000000
29.288547274000,-0.074000000000
29.296234744000,-0.072000000000
29.303922214000,-0.069000000000
29.311609684000,-0.072000000000
29.319297154000,-0.076000000000
29.326984624000,-0.086000000000
