time,LSB
0.000000000000,0.964000000000
0.007687539000,0.216000000000
0.015375078000,-0.387000000000
0.023062617000,-0.324000000000
0.030750156000,-0.153000000000
0.038437695000,-0.211000000000
0.046125234000,-0.185000000000
0.053812773000,-0.096000000000
0.061500312000,-0.113000000000
0.069187851000,-0.125000000000
0.076875390000,-0.086000000000
0.084562929000,-0.074000000000
0.092250468000,-0.076000000000
0.099938007000,-0.062000000000
0.107625546000,-0.052000000000
0.115313085000,-0.048000000000
0.123000624000,-0.038000000000
0.130688163000,-0.031000000000
0.138375702000,-0.028000000000
0.146063241000,-0.019000000000
0.153750780000,-0.009000000000
0.161438319000,-0.002000000000
0.169125858000,0.007000000000
0.176813397000,0.014000000000
0.184500936000,0.024000000000
0.192188475000,0.033000000000
0.199876014000,0.043000000000
0.207563553000,0.052000000000
0.215251092000,0.060000000000
0.222938631000,0.064000000000
0.230626170000,0.067000000000
0.238313709000,0.067000000000
0.246001248000,0.064000000000
0.253688787000,0.062000000000
0.261376326000,0.057000000000
0.269063865000,0.055000000000
0.276751404000,0.048000000000
0.284438943000,0.036000000000
0.292126482000,0.014000000000
0.299814021000,-0.012000000000
0.307501560000,-0.038000000000
0.315189099000,-0.062000000000
0.322876638000,-0.084000000000
0.330564177000,-0.101000000000
0.338251716000,-0.113000000000
0.345939255000,-0.117000000000
0.353626794000,-0.120000000000
0.361314333000,-0.117000000000
0.369001872000,-0.115000000000
0.376689411000,-0.113000000000
0.384376950000,-0.113000000000
0.392064489000,-0.113000000000
0.399752028000,-0.110000000000
0.407439567000,-0.110000000000
0.415127106000,-0.110000000000
0.422814645000,-0.113000000000
0.430502184000,-0.110000000000
0.438189723000,-0.110000000000
0.445877262000,-0.113000000000
0.453564801000,-0.113000000000
0.461252340000,-0.113000000000
0.468939879000,-0.115000000000
0.476627418000,-0.113000000000
0.484315029000,-0.110000000000
0.492002220000,-0.110000000000
0.499689411000,-0.110000000000
0.507376602000,-0.108000000000
0.515063793000,-0.105000000000
0.522750984000,-0.105000000000
0.530438175000,-0.105000000000
0.538125366000,-0.103000000000
0.545812557000,-0.101000000000
0.553499748000,-0.101000000000
0.561186939000,-0.098000000000
0.568874130000,-0.096000000000
0.576561321000,-0.096000000000
0.584248512000,-0.093000000000
0.591935703000,-0.093000000000
0.599622894000,-0.091000000000
0.607310085000,-0.088000000000
0.614997276000,-0.086000000000
0.622684467000,-0.086000000000
0.630371658000,-0.084000000000
0.638058849000,-0.084000000000
0.645746040000,-0.081000000000
0.653433231000,-0.079000000000
0.661120422000,-0.079000000000
0.668807613000,-0.076000000000
0.676494804000,-0.074000000000
0.684181995000,-0.074000000000
0.691869186000,-0.074000000000
0.699556377000,-0.074000000000
0.707243568000,-0.074000000000
0.714930759000,-0.074000000000
0.722617950000,-0.074000000000
0.730305141000,-0.076000000000
0.737992332000,-0.086000000000
0.745679523000,-0.091000000000
0.753366714000,-0.091000000000
0.761053905000,-0.081000000000
0.768741096000,-0.062000000000
0.776428287000,-0.045000000000
0.784115478000,-0.040000000000
0.791802669000,-0.036000000000
0.799489860000,-0.031000000000
0.807177051000,-0.048000000000
0.814864242000,-0.067000000000
0.822551433000,-0.064000000000
0.830238624000,-0.064000000000
0.837925815000,-0.067000000000
0.845613006000,-0.064000000000
0.853300197000,-0.062000000000
0.860987388000,-0.067000000000
0.868674579000,-0.096000000000
0.876361770000,-0.139000000000
0.884048961000,-0.033000000000
0.891736152000,0.435000000000
0.899423343000,0.966000000000
0.907110534000,0.913000000000
0.914797725000,0.204000000000
0.922484916000,-0.401000000000
0.930172107000,-0.365000000000
0.937859298000,-0.185000000000
0.945546489000,-0.223000000000
0.953233680000,-0.199000000000
0.960920871000,-0.105000000000
0.968608062000,-0.115000000000
0.976295253000,-0.129000000000
0.983982444000,-0.093000000000
0.991669635000,-0.081000000000
0.999356826000,-0.084000000000
1.007044017000,-0.072000000000
1.014731208000,-0.060000000000
1.022418399000,-0.057000000000
1.030105590000,-0.048000000000
1.037792781000,-0.038000000000
1.045480013000,-0.033000000000
1.053167483000,-0.024000000000
1.060854953000,-0.014000000000
1.068542423000,-0.009000000000
1.076229893000,-0.002000000000
1.083917363000,0.007000000000
1.091604833000,0.016000000000
1.099292303000,0.026000000000
1.106979773000,0.036000000000
1.114667243000,0.045000000000
1.122354713000,0.055000000000
1.130042183000,0.057000000000
1.137729653000,0.060000000000
1.145417123000,0.060000000000
1.153104593000,0.060000000000
1.160792063000,0.057000000000
1.168479533000,0.055000000000
1.176167003000,0.052000000000
1.183854473000,0.048000000000
1.191541943000,0.033000000000
1.199229413000,0.012000000000
1.206916883000,-0.014000000000
1.214604353000,-0.040000000000
1.222291823000,-0.067000000000
1.229979293000,-0.088000000000
1.237666763000,-0.105000000000
1.245354233000,-0.117000000000
1.253041703000,-0.122000000000
1.260729173000,-0.125000000000
1.268416643000,-0.125000000000
1.276104113000,-0.125000000000
1.283791583000,-0.120000000000
1.291479053000,-0.117000000000
1.299166523000,-0.115000000000
1.306853993000,-0.115000000000
1.314541463000,-0.113000000000
1.322228933000,-0.113000000000
1.329916403000,-0.115000000000
1.337603873000,-0.117000000000
1.345291343000,-0.117000000000
1.352978813000,-0.117000000000
1.360666283000,-0.117000000000
1.368353753000,-0.117000000000
1.376041223000,-0.117000000000
1.383728693000,-0.117000000000
1.391416163000,-0.115000000000
1.399103633000,-0.115000000000
1.406791103000,-0.110000000000
1.414478573000,-0.108000000000
1.422166043000,-0.108000000000
1.429853513000,-0.108000000000
1.437540983000,-0.103000000000
1.445228453000,-0.103000000000
1.452915923000,-0.101000000000
1.460603393000,-0.098000000000
1.468290863000,-0.101000000000
1.475978333000,-0.096000000000
1.483665803000,-0.093000000000
1.491353273000,-0.093000000000
1.499040743000,-0.091000000000
1.506728213000,-0.088000000000
1.514415683000,-0.086000000000
1.522103153000,-0.084000000000
1.529790623000,-0.084000000000
1.537478093000,-0.081000000000
1.545165563000,-0.079000000000
1.552853033000,-0.076000000000
1.560540503000,-0.074000000000
1.568227973000,-0.072000000000
1.575915443000,-0.072000000000
1.583602913000,-0.069000000000
1.591290383000,-0.069000000000
1.598977853000,-0.069000000000
1.606665341000,-0.069000000000
1.614352671000,-0.067000000000
1.622040001000,-0.064000000000
1.629727331000,-0.064000000000
1.637414661000,-0.064000000000
1.645101991000,-0.072000000000
1.652789321000,-0.079000000000
1.660476651000,-0.079000000000
1.668163981000,-0.076000000000
1.675851311000,-0.067000000000
1.683538641000,-0.045000000000
1.691225971000,-0.031000000000
1.698913301000,-0.026000000000
1.706600631000,-0.021000000000
1.714287961000,-0.028000000000
1.721975291000,-0.050000000000
1.729662621000,-0.060000000000
1.737349951000,-0.057000000000
1.745037281000,-0.057000000000
1.752724611000,-0.057000000000
1.760411941000,-0.052000000000
1.768099271000,-0.050000000000
1.775786601000,-0.064000000000
1.783473931000,-0.105000000000
1.791161261000,-0.096000000000
1.798848591000,0.204000000000
1.806535921000,0.781000000000
1.814223251000,1.031000000000
1.821910581000,0.531000000000
1.829597911000,-0.233000000000
1.837285241000,-0.466000000000
1.844972571000,-0.252000000000
1.852659901000,-0.192000000000
1.860347231000,-0.223000000000
1.868034561000,-0.127000000000
1.875721891000,-0.084000000000
1.883409221000,-0.115000000000
1.891096551000,-0.096000000000
1.898783881000,-0.067000000000
1.906471211000,-0.067000000000
1.914158541000,-0.060000000000
1.921845871000,-0.045000000000
1.929533201000,-0.040000000000
1.937220531000,-0.036000000000
1.944907861000,-0.024000000000
1.952595191000,-0.016000000000
1.960282521000,-0.012000000000
1.967969851000,-0.004000000000
1.975657181000,0.004000000000
1.983344511000,0.014000000000
1.991031841000,0.021000000000
1.998719171000,0.033000000000
2.006406501000,0.043000000000
2.014093831000,0.055000000000
2.021781161000,0.064000000000
2.029468491000,0.074000000000
2.037155821000,0.081000000000
2.044843151000,0.086000000000
2.052530481000,0.088000000000
2.060217811000,0.086000000000
2.067905141000,0.084000000000
2.075592471000,0.084000000000
2.083279801000,0.081000000000
2.090967131000,0.076000000000
2.098654461000,0.064000000000
2.106341791000,0.043000000000
2.114029121000,0.016000000000
2.121716451000,-0.014000000000
2.129403781000,-0.045000000000
2.137091111000,-0.074000000000
2.144778441000,-0.096000000000
2.152465771000,-0.108000000000
2.160153101000,-0.115000000000
2.167840499000,-0.117000000000
2.175527829000,-0.117000000000
2.183215159000,-0.115000000000
2.190902489000,-0.115000000000
2.198589819000,-0.115000000000
2.206277149000,-0.110000000000
2.213964479000,-0.108000000000
2.221651809000,-0.110000000000
2.229339139000,-0.113000000000
2.237026469000,-0.113000000000
2.244713799000,-0.110000000000
2.252401129000,-0.110000000000
2.260088459000,-0.115000000000
2.267775789000,-0.117000000000
2.275463119000,-0.115000000000
2.283150449000,-0.117000000000
2.290837779000,-0.117000000000
2.298525109000,-0.115000000000
2.306212439000,-0.115000000000
2.313899769000,-0.115000000000
2.321587099000,-0.113000000000
2.329274429000,-0.110000000000
2.336961759000,-0.108000000000
2.344649089000,-0.108000000000
2.352336419000,-0.105000000000
2.360023749000,-0.101000000000
2.367711079000,-0.101000000000
2.375398409000,-0.098000000000
2.383085739000,-0.096000000000
2.390773069000,-0.096000000000
2.398460399000,-0.093000000000
2.406147729000,-0.091000000000
2.413835059000,-0.088000000000
2.421522389000,-0.086000000000
2.429209719000,-0.084000000000
2.436897049000,-0.084000000000
2.444584379000,-0.081000000000
2.452271709000,-0.079000000000
2.459959039000,-0.076000000000
2.467646369000,-0.079000000000
2.475333699000,-0.084000000000
2.483021029000,-0.088000000000
2.490708359000,-0.091000000000
2.498395689000,-0.088000000000
2.506083019000,-0.079000000000
2.513770349000,-0.062000000000
2.521457679000,-0.050000000000
2.529145009000,-0.040000000000
2.536832339000,-0.028000000000
2.544519669000,-0.036000000000
2.552206999000,-0.055000000000
2.559894329000,-0.064000000000
2.567581659000,-0.064000000000
2.575268989000,-0.064000000000
2.582956319000,-0.064000000000
2.590643649000,-0.062000000000
2.598330979000,-0.060000000000
2.606018309000,-0.069000000000
2.613705639000,-0.096000000000
2.621392969000,-0.079000000000
2.629080299000,0.214000000000
2.636767629000,0.791000000000
2.644454959000,1.022000000000
2.652142289000,0.452000000000
2.659829619000,-0.346000000000
2.667516949000,-0.555000000000
2.675204279000,-0.317000000000
2.682891609000,-0.235000000000
2.690578939000,-0.242000000000
2.698266269000,-0.129000000000
2.705953599000,-0.072000000000
2.713640929000,-0.098000000000
2.721328259000,-0.084000000000
2.729015653000,-0.055000000000
2.736703192000,-0.055000000000
2.744390731000,-0.048000000000
2.752078270000,-0.033000000000
2.759765809000,-0.026000000000
2.767453348000,-0.021000000000
2.775140887000,-0.014000000000
2.782828426000,-0.004000000000
2.790515965000,0.002000000000
2.798203504000,0.012000000000
2.805891043000,0.021000000000
2.813578582000,0.026000000000
2.821266121000,0.036000000000
2.828953660000,0.048000000000
2.836641199000,0.060000000000
2.844328738000,0.072000000000
2.852016277000,0.086000000000
2.859703816000,0.098000000000
2.867391355000,0.110000000000
2.875078894000,0.120000000000
2.882766433000,0.125000000000
2.890453972000,0.125000000000
2.898141511000,0.122000000000
2.905829050000,0.120000000000
2.913516589000,0.117000000000
2.921204128000,0.105000000000
2.928891667000,0.081000000000
2.936579206000,0.050000000000
2.944266745000,0.012000000000
2.951954284000,-0.031000000000
2.959641823000,-0.074000000000
2.967329362000,-0.103000000000
2.975016901000,-0.122000000000
2.982704440000,-0.134000000000
2.990391979000,-0.139000000000
2.998079518000,-0.139000000000
3.005767057000,-0.137000000000
3.013454596000,-0.134000000000
3.021142135000,-0.129000000000
3.028829674000,-0.125000000000
3.036517213000,-0.122000000000
3.044204752000,-0.122000000000
3.051892291000,-0.122000000000
3.059579830000,-0.122000000000
3.067267369000,-0.122000000000
3.074954908000,-0.122000000000
3.082642447000,-0.125000000000
3.090329986000,-0.125000000000
3.098017525000,-0.125000000000
3.105705064000,-0.125000000000
3.113392603000,-0.125000000000
3.121080142000,-0.125000000000
3.128767681000,-0.125000000000
3.136455220000,-0.122000000000
3.144142759000,-0.120000000000
3.151830298000,-0.117000000000
3.159517837000,-0.115000000000
3.167205376000,-0.110000000000
3.174892915000,-0.110000000000
3.182580454000,-0.110000000000
3.190267993000,-0.105000000000
3.197955532000,-0.103000000000
3.205643071000,-0.103000000000
3.213330610000,-0.101000000000
3.221018149000,-0.098000000000
3.228705688000,-0.096000000000
3.236393227000,-0.093000000000
3.244080766000,-0.091000000000
3.251768305000,-0.088000000000
3.259455844000,-0.086000000000
3.267143383000,-0.084000000000
3.274830922000,-0.084000000000
3.282518461000,-0.081000000000
3.290206068000,-0.079000000000
3.297893607000,-0.079000000000
3.305581146000,-0.084000000000
3.313268685000,-0.091000000000
3.320956224000,-0.098000000000
3.328643763000,-0.098000000000
3.336331302000,-0.086000000000
3.344018841000,-0.067000000000
3.351706380000,-0.050000000000
3.359393919000,-0.028000000000
3.367081458000,0.000000000000
3.374768997000,-0.009000000000
3.382456536000,-0.069000000000
3.390144075000,-0.096000000000
3.397831614000,-0.076000000000
3.405519153000,-0.067000000000
3.413206692000,-0.072000000000
3.420894231000,-0.067000000000
3.428581770000,-0.060000000000
3.436269309000,-0.072000000000
3.443956848000,-0.105000000000
3.451644387000,-0.134000000000
3.459331926000,0.050000000000
3.467019465000,0.591000000000
3.474707004000,1.050000000000
3.482394543000,0.824000000000
3.490082082000,0.050000000000
3.497769621000,-0.430000000000
3.505457160000,-0.300000000000
3.513144699000,-0.170000000000
3.520832238000,-0.228000000000
3.528519777000,-0.173000000000
3.536207316000,-0.101000000000
3.543894855000,-0.125000000000
3.551582394000,-0.125000000000
3.559269933000,-0.086000000000
3.566957472000,-0.076000000000
3.574645011000,-0.069000000000
3.582332550000,-0.038000000000
3.590020089000,-0.028000000000
3.597707628000,-0.050000000000
3.605395167000,-0.062000000000
3.613082706000,-0.045000000000
3.620770245000,-0.028000000000
3.628457784000,-0.021000000000
3.636145323000,-0.012000000000
3.643832862000,0.000000000000
3.651520401000,0.009000000000
3.659207940000,0.019000000000
3.666895479000,0.028000000000
3.674583018000,0.038000000000
3.682270557000,0.050000000000
3.689958096000,0.060000000000
3.697645635000,0.069000000000
3.705333174000,0.076000000000
3.713020713000,0.079000000000
3.720708252000,0.076000000000
3.728395791000,0.074000000000
3.736083330000,0.072000000000
3.743770869000,0.069000000000
3.751458408000,0.062000000000
3.759145947000,0.048000000000
3.766833486000,0.028000000000
3.774521025000,0.004000000000
3.782208564000,-0.024000000000
3.789896103000,-0.052000000000
3.797583642000,-0.079000000000
3.805271181000,-0.096000000000
3.812958720000,-0.110000000000
3.820646259000,-0.117000000000
3.828333798000,-0.120000000000
3.836021337000,-0.120000000000
3.843708876000,-0.117000000000
3.851396487000,-0.115000000000
3.859083608000,-0.113000000000
3.866770729000,-0.113000000000
3.874457850000,-0.110000000000
3.882144971000,-0.108000000000
3.889832092000,-0.108000000000
3.897519213000,-0.110000000000
3.905206334000,-0.110000000000
3.912893455000,-0.110000000000
3.920580576000,-0.113000000000
3.928267697000,-0.115000000000
3.935954818000,-0.113000000000
3.943641939000,-0.113000000000
3.951329060000,-0.115000000000
3.959016181000,-0.110000000000
3.966703302000,-0.108000000000
3.974390423000,-0.108000000000
3.982077544000,-0.105000000000
3.989764665000,-0.103000000000
3.997451786000,-0.101000000000
4.005138907000,-0.101000000000
4.012826028000,-0.098000000000
4.020513149000,-0.096000000000
4.028200270000,-0.093000000000
4.035887391000,-0.091000000000
4.043574512000,-0.088000000000
4.051261633000,-0.088000000000
4.058948754000,-0.088000000000
4.066635875000,-0.086000000000
4.074322996000,-0.086000000000
4.082010117000,-0.084000000000
4.089697238000,-0.084000000000
4.097384359000,-0.081000000000
4.105071480000,-0.081000000000
4.112758601000,-0.081000000000
4.120445722000,-0.084000000000
4.128132843000,-0.091000000000
4.135819964000,-0.098000000000
4.143507085000,-0.103000000000
4.151194206000,-0.101000000000
4.158881327000,-0.088000000000
4.166568448000,-0.074000000000
4.174255569000,-0.064000000000
4.181942690000,-0.052000000000
4.189629811000,-0.043000000000
4.197316932000,-0.057000000000
4.205004053000,-0.079000000000
4.212691174000,-0.086000000000
4.220378295000,-0.086000000000
4.228065416000,-0.088000000000
4.235752537000,-0.088000000000
4.243439658000,-0.086000000000
4.251126779000,-0.088000000000
4.258813900000,-0.103000000000
4.266501021000,-0.144000000000
4.274188142000,-0.122000000000
4.281875263000,0.204000000000
4.289562384000,0.774000000000
4.297249505000,0.964000000000
4.304936626000,0.420000000000
4.312623747000,-0.310000000000
4.320310868000,-0.480000000000
4.327997989000,-0.269000000000
4.335685110000,-0.235000000000
4.343372231000,-0.254000000000
4.351059352000,-0.158000000000
4.358746473000,-0.129000000000
4.366433594000,-0.158000000000
4.374120715000,-0.137000000000
4.381807836000,-0.113000000000
4.389494957000,-0.115000000000
4.397182078000,-0.105000000000
4.404869199000,-0.091000000000
4.412556384000,-0.086000000000
4.420243923000,-0.084000000000
4.427931462000,-0.076000000000
4.435619001000,-0.069000000000
4.443306540000,-0.062000000000
4.450994079000,-0.055000000000
4.458681618000,-0.048000000000
4.466369157000,-0.038000000000
4.474056696000,-0.031000000000
4.481744235000,-0.024000000000
4.489431774000,-0.014000000000
4.497119313000,-0.004000000000
4.504806852000,0.007000000000
4.512494391000,0.016000000000
4.520181930000,0.024000000000
4.527869469000,0.028000000000
4.535557008000,0.028000000000
4.543244547000,0.026000000000
4.550932086000,0.026000000000
4.558619625000,0.021000000000
4.566307164000,0.016000000000
4.573994703000,0.007000000000
4.581682242000,-0.009000000000
4.589369781000,-0.033000000000
4.597057320000,-0.062000000000
4.604744859000,-0.091000000000
4.612432398000,-0.122000000000
4.620119937000,-0.144000000000
4.627807476000,-0.161000000000
4.635495015000,-0.170000000000
4.643182554000,-0.173000000000
4.650870093000,-0.173000000000
4.658557632000,-0.170000000000
4.666245171000,-0.168000000000
4.673932710000,-0.163000000000
4.681620249000,-0.161000000000
4.689307788000,-0.156000000000
4.696995327000,-0.153000000000
4.704682866000,-0.153000000000
4.712370405000,-0.151000000000
4.720057944000,-0.151000000000
4.727745483000,-0.149000000000
4.735433022000,-0.149000000000
4.743120561000,-0.146000000000
4.750808100000,-0.144000000000
4.758495639000,-0.144000000000
4.766183178000,-0.141000000000
4.773870717000,-0.139000000000
4.781558256000,-0.139000000000
4.789245795000,-0.134000000000
4.796933334000,-0.129000000000
4.804620873000,-0.125000000000
4.812308412000,-0.120000000000
4.819995951000,-0.115000000000
4.827683490000,-0.113000000000
4.835371029000,-0.113000000000
4.843058568000,-0.108000000000
4.850746107000,-0.103000000000
4.858433646000,-0.098000000000
4.866121185000,-0.096000000000
4.873808724000,-0.091000000000
4.881496263000,-0.086000000000
4.889183802000,-0.084000000000
4.896871341000,-0.081000000000
4.904558880000,-0.079000000000
4.912246419000,-0.074000000000
4.919933958000,-0.069000000000
4.927621497000,-0.072000000000
4.935309036000,-0.081000000000
4.942996575000,-0.084000000000
4.950684114000,-0.079000000000
4.958371653000,-0.067000000000
4.966059192000,-0.048000000000
4.973746799000,-0.036000000000
4.981434129000,-0.021000000000
4.989121459000,-0.002000000000
4.996808789000,-0.004000000000
5.004496119000,-0.028000000000
5.012183449000,-0.038000000000
5.019870779000,-0.033000000000
5.027558109000,-0.033000000000
5.035245439000,-0.033000000000
5.042932769000,-0.026000000000
5.050620099000,-0.024000000000
5.058307429000,-0.033000000000
5.065994759000,-0.069000000000
5.073682089000,-0.076000000000
5.081369419000,0.173000000000
5.089056749000,0.735000000000
5.096744079000,1.065000000000
5.104431409000,0.654000000000
5.112118739000,-0.125000000000
5.119806069000,-0.440000000000
5.127493399000,-0.242000000000
5.135180729000,-0.151000000000
5.142868059000,-0.182000000000
5.150555389000,-0.096000000000
5.158242719000,-0.040000000000
5.165930049000,-0.067000000000
5.173617379000,-0.052000000000
5.181304709000,-0.021000000000
5.188992039000,-0.019000000000
5.196679369000,-0.014000000000
5.204366699000,0.000000000000
5.212054029000,0.004000000000
5.219741359000,0.009000000000
5.227428689000,0.021000000000
5.235116019000,0.031000000000
5.242803349000,0.038000000000
5.250490679000,0.045000000000
5.258178009000,0.052000000000
5.265865339000,0.062000000000
5.273552669000,0.074000000000
5.281239999000,0.086000000000
5.288927329000,0.093000000000
5.296614659000,0.103000000000
5.304301989000,0.117000000000
5.311989319000,0.129000000000
5.319676649000,0.139000000000
5.327363979000,0.141000000000
5.335051309000,0.139000000000
5.342738639000,0.139000000000
5.350425969000,0.139000000000
5.358113299000,0.134000000000
5.365800629000,0.127000000000
5.373487959000,0.120000000000
5.381175289000,0.103000000000
5.388862619000,0.076000000000
5.396549949000,0.043000000000
5.404237279000,0.007000000000
5.411924609000,-0.024000000000
5.419611939000,-0.048000000000
5.427299269000,-0.067000000000
5.434986599000,-0.081000000000
5.442673929000,-0.084000000000
5.450361259000,-0.084000000000
5.458048589000,-0.084000000000
5.465735919000,-0.081000000000
5.473423249000,-0.074000000000
5.481110579000,-0.072000000000
5.488797909000,-0.072000000000
5.496485239000,-0.072000000000
5.504172569000,-0.067000000000
5.511859899000,-0.067000000000
5.519547229000,-0.069000000000
5.527234559000,-0.072000000000
5.534921957000,-0.076000000000
5.542609287000,-0.076000000000
5.550296617000,-0.076000000000
5.557983947000,-0.076000000000
5.565671277000,-0.076000000000
5.573358607000,-0.076000000000
5.581045937000,-0.076000000000
5.588733267000,-0.076000000000
5.596420597000,-0.074000000000
5.604107927000,-0.067000000000
5.611795257000,-0.067000000000
5.619482587000,-0.067000000000
5.627169917000,-0.064000000000
5.634857247000,-0.060000000000
5.642544577000,-0.060000000000
5.650231907000,-0.057000000000
5.657919237000,-0.055000000000
5.665606567000,-0.060000000000
5.673293897000,-0.067000000000
5.680981227000,-0.069000000000
5.688668557000,-0.069000000000
5.696355887000,-0.060000000000
5.704043217000,-0.045000000000
5.711730547000,-0.040000000000
5.719417877000,-0.021000000000
5.727105207000,0.002000000000
5.734792537000,-0.004000000000
5.742479867000,-0.028000000000
5.750167197000,-0.033000000000
5.757854527000,-0.028000000000
5.765541857000,-0.033000000000
5.773229187000,-0.031000000000
5.780916517000,-0.026000000000
5.788603847000,-0.031000000000
5.796291177000,-0.043000000000
5.803978507000,-0.072000000000
5.811665837000,-0.036000000000
5.819353167000,0.319000000000
5.827040497000,0.928000000000
5.834727827000,1.089000000000
5.842415157000,0.423000000000
5.850102487000,-0.377000000000
5.857789817000,-0.519000000000
5.865477147000,-0.266000000000
5.873164477000,-0.202000000000
5.880851807000,-0.192000000000
5.888539137000,-0.074000000000
5.896226467000,-0.031000000000
5.903913797000,-0.050000000000
5.911601127000,-0.028000000000
5.919288457000,-0.004000000000
5.926975787000,-0.004000000000
5.934663117000,0.004000000000
5.942350447000,0.021000000000
5.950037777000,0.026000000000
5.957725107000,0.031000000000
5.965412437000,0.043000000000
5.973099767000,0.055000000000
5.980787097000,0.064000000000
5.988474427000,0.072000000000
5.996161757000,0.081000000000
6.003849087000,0.093000000000
6.011536417000,0.105000000000
6.019223747000,0.120000000000
6.026911077000,0.137000000000
6.034598407000,0.156000000000
6.042285737000,0.175000000000
6.049973067000,0.192000000000
6.057660397000,0.204000000000
6.065347727000,0.214000000000
6.073035057000,0.216000000000
6.080722387000,0.218000000000
6.088409717000,0.221000000000
6.096097111000,0.214000000000
6.103784581000,0.202000000000
6.111472051000,0.180000000000
6.119159521000,0.146000000000
6.126846991000,0.098000000000
6.134534461000,0.043000000000
6.142221931000,-0.002000000000
6.149909401000,-0.038000000000
6.157596871000,-0.069000000000
6.165284341000,-0.088000000000
6.172971811000,-0.096000000000
6.180659281000,-0.098000000000
6.188346751000,-0.096000000000
6.196034221000,-0.096000000000
6.203721691000,-0.093000000000
6.211409161000,-0.086000000000
6.219096631000,-0.084000000000
6.226784101000,-0.084000000000
6.234471571000,-0.081000000000
6.242159041000,-0.079000000000
6.249846511000,-0.074000000000
6.257533981000,-0.076000000000
6.265221451000,-0.084000000000
6.272908921000,-0.088000000000
6.280596391000,-0.086000000000
6.288283861000,-0.088000000000
6.295971331000,-0.088000000000
6.303658801000,-0.086000000000
6.311346271000,-0.084000000000
6.319033741000,-0.084000000000
6.326721211000,-0.086000000000
6.334408681000,-0.088000000000
6.342096151000,-0.093000000000
6.349783621000,-0.093000000000
6.357471091000,-0.088000000000
6.365158561000,-0.091000000000
6.372846031000,-0.084000000000
6.380533501000,-0.067000000000
6.388220971000,-0.060000000000
6.395908441000,-0.050000000000
6.403595911000,-0.026000000000
6.411283381000,-0.024000000000
6.418970851000,-0.045000000000
6.426658321000,-0.055000000000
6.434345791000,-0.055000000000
6.442033261000,-0.055000000000
6.449720731000,-0.050000000000
6.457408201000,-0.048000000000
6.465095671000,-0.048000000000
6.472783141000,-0.052000000000
6.480470611000,-0.072000000000
6.488158081000,-0.045000000000
6.495845551000,0.271000000000
6.503533021000,0.909000000000
6.511220491000,1.187000000000
6.518907961000,0.548000000000
6.526595431000,-0.379000000000
6.534282901000,-0.615000000000
6.541970371000,-0.331000000000
6.549657841000,-0.242000000000
6.557345311000,-0.257000000000
6.565032781000,-0.120000000000
6.572720251000,-0.048000000000
6.580407721000,-0.074000000000
6.588095191000,-0.057000000000
6.595782661000,-0.026000000000
6.603470131000,-0.026000000000
6.611157601000,-0.019000000000
6.618845071000,-0.002000000000
6.626532541000,0.007000000000
6.634220011000,0.012000000000
6.641907481000,0.021000000000
6.649594951000,0.031000000000
6.657282443000,0.043000000000
6.664969634000,0.052000000000
6.672656825000,0.064000000000
6.680344016000,0.079000000000
6.688031207000,0.091000000000
6.695718398000,0.103000000000
6.703405589000,0.120000000000
6.711092780000,0.137000000000
6.718779971000,0.156000000000
6.726467162000,0.175000000000
6.734154353000,0.192000000000
6.741841544000,0.204000000000
6.749528735000,0.209000000000
6.757215926000,0.211000000000
6.764903117000,0.209000000000
6.772590308000,0.204000000000
6.780277499000,0.189000000000
6.787964690000,0.161000000000
6.795651881000,0.117000000000
6.803339072000,0.064000000000
6.811026263000,0.004000000000
6.818713454000,-0.052000000000
6.826400645000,-0.093000000000
6.834087836000,-0.122000000000
6.841775027000,-0.141000000000
6.849462218000,-0.151000000000
6.857149409000,-0.151000000000
6.864836600000,-0.146000000000
6.872523791000,-0.144000000000
6.880210982000,-0.137000000000
6.887898173000,-0.127000000000
6.895585364000,-0.122000000000
6.903272555000,-0.122000000000
6.910959746000,-0.120000000000
6.918646937000,-0.120000000000
6.926334128000,-0.120000000000
6.934021319000,-0.122000000000
6.941708510000,-0.122000000000
6.949395701000,-0.125000000000
6.957082892000,-0.125000000000
6.964770083000,-0.125000000000
6.972457274000,-0.122000000000
6.980144465000,-0.125000000000
6.987831656000,-0.125000000000
6.995518847000,-0.125000000000
7.003206038000,-0.122000000000
7.010893229000,-0.125000000000
7.018580420000,-0.129000000000
7.026267611000,-0.134000000000
7.033954802000,-0.132000000000
7.041641993000,-0.122000000000
7.049329184000,-0.110000000000
7.057016375000,-0.108000000000
7.064703566000,-0.098000000000
7.072390757000,-0.072000000000
7.080077948000,-0.055000000000
7.087765139000,-0.074000000000
7.095452330000,-0.091000000000
7.103139521000,-0.086000000000
7.110826712000,-0.086000000000
7.118513903000,-0.088000000000
7.126201094000,-0.084000000000
7.133888285000,-0.079000000000
7.141575476000,-0.081000000000
7.149262667000,-0.103000000000
7.156949858000,-0.151000000000
7.164637049000,-0.062000000000
7.172324240000,0.418000000000
7.180011431000,1.053000000000
7.187698622000,1.120000000000
7.195385813000,0.379000000000
7.203073004000,-0.401000000000
7.210760195000,-0.459000000000
7.218447423000,-0.218000000000
7.226134962000,-0.230000000000
7.233822501000,-0.233000000000
7.241510040000,-0.125000000000
7.249197579000,-0.115000000000
7.256885118000,-0.137000000000
7.264572657000,-0.103000000000
7.272260196000,-0.081000000000
7.279947735000,-0.084000000000
7.287635274000,-0.069000000000
7.295322813000,-0.052000000000
7.303010352000,-0.050000000000
7.310697891000,-0.043000000000
7.318385430000,-0.031000000000
7.326072969000,-0.026000000000
7.333760508000,-0.019000000000
7.341448047000,-0.004000000000
7.349135586000,0.007000000000
7.356823125000,0.019000000000
7.364510664000,0.031000000000
7.372198203000,0.040000000000
7.379885742000,0.055000000000
7.387573281000,0.069000000000
7.395260820000,0.084000000000
7.402948359000,0.101000000000
7.410635898000,0.115000000000
7.418323437000,0.120000000000
7.426010976000,0.120000000000
7.433698515000,0.120000000000
7.441386054000,0.120000000000
7.449073593000,0.113000000000
7.456761132000,0.101000000000
7.464448671000,0.076000000000
7.472136210000,0.048000000000
7.479823749000,0.009000000000
7.487511288000,-0.033000000000
7.495198827000,-0.069000000000
7.502886366000,-0.093000000000
7.510573905000,-0.113000000000
7.518261444000,-0.125000000000
7.525948983000,-0.129000000000
7.533636522000,-0.132000000000
7.541324061000,-0.129000000000
7.549011600000,-0.129000000000
7.556699139000,-0.127000000000
7.564386678000,-0.125000000000
7.572074217000,-0.122000000000
7.579761756000,-0.120000000000
7.587449295000,-0.117000000000
7.595136834000,-0.120000000000
7.602824373000,-0.120000000000
7.610511912000,-0.120000000000
7.618199451000,-0.120000000000
7.625886990000,-0.122000000000
7.633574529000,-0.122000000000
7.641262068000,-0.122000000000
7.648949607000,-0.122000000000
7.656637146000,-0.120000000000
7.664324685000,-0.120000000000
7.672012224000,-0.117000000000
7.679699763000,-0.115000000000
7.687387302000,-0.117000000000
7.695074841000,-0.122000000000
7.702762380000,-0.127000000000
7.710449919000,-0.129000000000
7.718137458000,-0.127000000000
7.725824997000,-0.113000000000
7.733512536000,-0.098000000000
7.741200075000,-0.086000000000
7.748887614000,-0.067000000000
7.756575153000,-0.045000000000
7.764262692000,-0.057000000000
7.771950231000,-0.081000000000
7.779637842000,-0.086000000000
7.787325103000,-0.081000000000
7.795012364000,-0.081000000000
7.802699625000,-0.079000000000
7.810386886000,-0.076000000000
7.818074147000,-0.076000000000
7.825761408000,-0.086000000000
7.833448669000,-0.132000000000
7.841135930000,-0.173000000000
7.848823191000,0.043000000000
7.856510452000,0.651000000000
7.864197713000,1.168000000000
7.871884974000,0.928000000000
7.879572235000,0.052000000000
7.887259496000,-0.485000000000
7.894946757000,-0.322000000000
7.902634018000,-0.175000000000
7.910321279000,-0.247000000000
7.918008540000,-0.187000000000
7.925695801000,-0.105000000000
7.933383062000,-0.132000000000
7.941070323000,-0.129000000000
7.948757584000,-0.088000000000
7.956444845000,-0.084000000000
7.964132106000,-0.084000000000
7.971819367000,-0.064000000000
7.979506628000,-0.055000000000
7.987193889000,-0.052000000000
7.994881150000,-0.043000000000
8.002568411000,-0.033000000000
8.010255672000,-0.026000000000
8.017942933000,-0.016000000000
8.025630194000,-0.004000000000
8.033317455000,0.002000000000
8.041004716000,0.014000000000
8.048691977000,0.026000000000
8.056379238000,0.038000000000
8.064066499000,0.050000000000
8.071753760000,0.067000000000
8.079441021000,0.079000000000
8.087128282000,0.091000000000
8.094815543000,0.096000000000
8.102502804000,0.098000000000
8.110190065000,0.098000000000
8.117877326000,0.096000000000
8.125564587000,0.093000000000
8.133251848000,0.084000000000
8.140939109000,0.072000000000
8.148626370000,0.050000000000
8.156313631000,0.019000000000
8.164000892000,-0.016000000000
8.171688153000,-0.050000000000
8.179375414000,-0.081000000000
8.187062675000,-0.105000000000
8.194749936000,-0.117000000000
8.202437197000,-0.127000000000
8.210124458000,-0.132000000000
8.217811719000,-0.132000000000
8.225498980000,-0.132000000000
8.233186241000,-0.129000000000
8.240873502000,-0.125000000000
8.248560763000,-0.122000000000
8.256248024000,-0.120000000000
8.263935285000,-0.120000000000
8.271622546000,-0.117000000000
8.279309807000,-0.117000000000
8.286997068000,-0.117000000000
8.294684329000,-0.117000000000
8.302371590000,-0.120000000000
8.310058851000,-0.122000000000
8.317746112000,-0.122000000000
8.325433373000,-0.120000000000
8.333120634000,-0.120000000000
8.340807913000,-0.120000000000
8.348495313000,-0.117000000000
8.356182713000,-0.117000000000
8.363870113000,-0.115000000000
8.371557513000,-0.113000000000
8.379244913000,-0.110000000000
8.386932313000,-0.110000000000
8.394619713000,-0.108000000000
8.402307113000,-0.103000000000
8.409994513000,-0.101000000000
8.417681913000,-0.098000000000
8.425369313000,-0.096000000000
8.433056713000,-0.096000000000
8.440744113000,-0.093000000000
8.448431513000,-0.088000000000
8.456118913000,-0.084000000000
8.463806313000,-0.084000000000
8.471493713000,-0.084000000000
8.479181113000,-0.081000000000
8.486868513000,-0.084000000000
8.494555913000,-0.091000000000
8.502243313000,-0.098000000000
8.509930713000,-0.098000000000
8.517618113000,-0.093000000000
8.525305513000,-0.084000000000
8.532992913000,-0.069000000000
8.540680313000,-0.060000000000
8.548367713000,-0.043000000000
8.556055113000,-0.028000000000
8.563742513000,-0.043000000000
8.571429913000,-0.062000000000
8.579117313000,-0.067000000000
8.586804713000,-0.067000000000
8.594492113000,-0.067000000000
8.602179513000,-0.067000000000
8.609866913000,-0.064000000000
8.617554313000,-0.064000000000
8.625241713000,-0.076000000000
8.632929113000,-0.120000000000
8.640616513000,-0.134000000000
8.648303913000,0.129000000000
8.655991313000,0.723000000000
8.663678713000,1.086000000000
8.671366113000,0.692000000000
8.679053513000,-0.115000000000
8.686740913000,-0.464000000000
8.694428313000,-0.262000000000
8.702115713000,-0.177000000000
8.709803113000,-0.235000000000
8.717490513000,-0.153000000000
8.725177913000,-0.098000000000
8.732865313000,-0.129000000000
8.740552713000,-0.115000000000
8.748240113000,-0.084000000000
8.755927513000,-0.081000000000
8.763614913000,-0.076000000000
8.771302313000,-0.062000000000
8.778989713000,-0.055000000000
8.786677113000,-0.050000000000
8.794364513000,-0.040000000000
8.802051913000,-0.033000000000
8.809739313000,-0.026000000000
8.817426713000,-0.021000000000
8.825114113000,-0.014000000000
8.832801513000,-0.004000000000
8.840488913000,0.004000000000
8.848176313000,0.014000000000
8.855863713000,0.024000000000
8.863551113000,0.036000000000
8.871238513000,0.048000000000
8.878925913000,0.055000000000
8.886613313000,0.064000000000
8.894300713000,0.072000000000
8.901988154000,0.072000000000
8.909675554000,0.074000000000
8.917362954000,0.076000000000
8.925050354000,0.076000000000
8.932737754000,0.074000000000
8.940425154000,0.072000000000
8.948112554000,0.057000000000
8.955799954000,0.038000000000
8.963487354000,0.014000000000
8.971174754000,-0.012000000000
8.978862154000,-0.040000000000
8.986549554000,-0.069000000000
8.994236954000,-0.091000000000
9.001924354000,-0.105000000000
9.009611754000,-0.115000000000
9.017299154000,-0.120000000000
9.024986554000,-0.120000000000
9.032673954000,-0.120000000000
9.040361354000,-0.117000000000
9.048048754000,-0.115000000000
9.055736154000,-0.115000000000
9.063423554000,-0.115000000000
9.071110954000,-0.115000000000
9.078798354000,-0.115000000000
9.086485754000,-0.117000000000
9.094173154000,-0.117000000000
9.101860554000,-0.117000000000
9.109547954000,-0.117000000000
9.117235354000,-0.120000000000
9.124922754000,-0.120000000000
9.132610154000,-0.122000000000
9.140297554000,-0.120000000000
9.147984954000,-0.117000000000
9.155672354000,-0.117000000000
9.163359754000,-0.117000000000
9.171047154000,-0.115000000000
9.178734554000,-0.113000000000
9.186421954000,-0.110000000000
9.194109354000,-0.108000000000
9.201796754000,-0.103000000000
9.209484154000,-0.103000000000
9.217171554000,-0.101000000000
9.224858954000,-0.098000000000
9.232546354000,-0.096000000000
9.240233754000,-0.096000000000
9.247921154000,-0.091000000000
9.255608554000,-0.088000000000
9.263295954000,-0.088000000000
9.270983354000,-0.088000000000
9.278670754000,-0.086000000000
9.286358154000,-0.084000000000
9.294045554000,-0.084000000000
9.301732954000,-0.081000000000
9.309420354000,-0.079000000000
9.317107754000,-0.076000000000
9.324795154000,-0.084000000000
9.332482554000,-0.093000000000
9.340169954000,-0.096000000000
9.347857354000,-0.093000000000
9.355544754000,-0.084000000000
9.363232154000,-0.069000000000
9.370919554000,-0.062000000000
9.378606954000,-0.050000000000
9.386294354000,-0.028000000000
9.393981754000,-0.028000000000
9.401669154000,-0.052000000000
9.409356554000,-0.064000000000
9.417043954000,-0.062000000000
9.424731354000,-0.064000000000
9.432418754000,-0.062000000000
9.440106154000,-0.057000000000
9.447793554000,-0.057000000000
9.455480954000,-0.069000000000
9.463168399000,-0.105000000000
9.470855660000,-0.127000000000
9.478542921000,0.098000000000
9.486230182000,0.675000000000
9.493917443000,1.070000000000
9.501604704000,0.711000000000
9.509291965000,-0.105000000000
9.516979226000,-0.495000000000
9.524666487000,-0.303000000000
9.532353748000,-0.187000000000
9.540041009000,-0.238000000000
9.547728270000,-0.158000000000
9.555415531000,-0.091000000000
9.563102792000,-0.122000000000
9.570790053000,-0.117000000000
9.578477314000,-0.084000000000
9.586164575000,-0.081000000000
9.593851836000,-0.079000000000
9.601539097000,-0.062000000000
9.609226358000,-0.057000000000
9.616913619000,-0.057000000000
9.624600880000,-0.048000000000
9.632288141000,-0.040000000000
9.639975402000,-0.038000000000
9.647662663000,-0.031000000000
9.655349924000,-0.019000000000
9.663037185000,-0.012000000000
9.670724446000,-0.004000000000
9.678411707000,0.007000000000
9.686098968000,0.014000000000
9.693786229000,0.021000000000
9.701473490000,0.031000000000
9.709160751000,0.040000000000
9.716848012000,0.048000000000
9.724535273000,0.048000000000
9.732222534000,0.050000000000
9.739909795000,0.050000000000
9.747597056000,0.050000000000
9.755284317000,0.045000000000
9.762971578000,0.043000000000
9.770658839000,0.038000000000
9.778346100000,0.021000000000
9.786033361000,-0.004000000000
9.793720622000,-0.033000000000
9.801407883000,-0.067000000000
9.809095144000,-0.101000000000
9.816782405000,-0.129000000000
9.824469666000,-0.156000000000
9.832156927000,-0.170000000000
9.839844188000,-0.177000000000
9.847531449000,-0.185000000000
9.855218710000,-0.189000000000
9.862905971000,-0.192000000000
9.870593232000,-0.189000000000
9.878280493000,-0.185000000000
9.885967754000,-0.185000000000
9.893655015000,-0.187000000000
9.901342276000,-0.187000000000
9.909029537000,-0.187000000000
9.916716798000,-0.187000000000
9.924404059000,-0.189000000000
9.932091320000,-0.194000000000
9.939778581000,-0.194000000000
9.947465842000,-0.194000000000
9.955153103000,-0.199000000000
9.962840364000,-0.202000000000
9.970527625000,-0.197000000000
9.978214886000,-0.197000000000
9.985902147000,-0.194000000000
9.993589408000,-0.194000000000
10.001276669000,-0.194000000000
10.008963930000,-0.192000000000
10.016651191000,-0.189000000000
10.024338466000,-0.192000000000
10.032026005000,-0.189000000000
10.039713544000,-0.185000000000
10.047401083000,-0.182000000000
10.055088622000,-0.182000000000
10.062776161000,-0.177000000000
10.070463700000,-0.175000000000
10.078151239000,-0.175000000000
10.085838778000,-0.173000000000
10.093526317000,-0.175000000000
10.101213856000,-0.180000000000
10.108901395000,-0.180000000000
10.116588934000,-0.173000000000
10.124276473000,-0.165000000000
10.131964012000,-0.153000000000
10.139651551000,-0.146000000000
10.147339090000,-0.137000000000
10.155026629000,-0.110000000000
10.162714168000,-0.101000000000
10.170401707000,-0.125000000000
10.178089246000,-0.139000000000
10.185776785000,-0.132000000000
10.193464324000,-0.129000000000
10.201151863000,-0.127000000000
10.208839402000,-0.122000000000
10.216526941000,-0.122000000000
10.224214480000,-0.129000000000
10.231902019000,-0.153000000000
10.239589558000,-0.134000000000
10.247277097000,0.170000000000
10.254964636000,0.793000000000
10.262652175000,1.079000000000
10.270339714000,0.488000000000
10.278027253000,-0.404000000000
10.285714792000,-0.661000000000
10.293402331000,-0.384000000000
10.301089870000,-0.278000000000
10.308777409000,-0.295000000000
10.316464948000,-0.170000000000
10.324152487000,-0.096000000000
10.331840026000,-0.125000000000
10.339527565000,-0.108000000000
10.347215104000,-0.072000000000
10.354902643000,-0.069000000000
10.362590182000,-0.060000000000
10.370277721000,-0.040000000000
10.377965260000,-0.033000000000
10.385652799000,-0.026000000000
10.393340338000,-0.014000000000
10.401027877000,-0.004000000000
10.408715416000,0.002000000000
10.416402955000,0.016000000000
10.424090494000,0.028000000000
10.431778033000,0.038000000000
10.439465572000,0.050000000000
10.447153111000,0.067000000000
10.454840650000,0.086000000000
10.462528189000,0.103000000000
10.470215728000,0.120000000000
10.477903267000,0.141000000000
10.485590806000,0.161000000000
10.493278345000,0.170000000000
10.500965884000,0.173000000000
10.508653423000,0.177000000000
10.516340962000,0.182000000000
10.524028501000,0.177000000000
10.531716040000,0.168000000000
10.539403579000,0.151000000000
10.547091118000,0.120000000000
10.554778657000,0.076000000000
10.562466196000,0.026000000000
10.570153735000,-0.024000000000
10.577841274000,-0.064000000000
10.585528885000,-0.096000000000
10.593216006000,-0.115000000000
10.600903127000,-0.125000000000
10.608590248000,-0.125000000000
10.616277369000,-0.122000000000
10.623964490000,-0.115000000000
10.631651611000,-0.108000000000
10.639338732000,-0.101000000000
10.647025853000,-0.098000000000
10.654712974000,-0.093000000000
10.662400095000,-0.091000000000
10.670087216000,-0.088000000000
10.677774337000,-0.091000000000
10.685461458000,-0.091000000000
10.693148579000,-0.093000000000
10.700835700000,-0.096000000000
10.708522821000,-0.098000000000
10.716209942000,-0.101000000000
10.723897063000,-0.101000000000
10.731584184000,-0.098000000000
10.739271305000,-0.098000000000
10.746958426000,-0.101000000000
10.754645547000,-0.098000000000
10.762332668000,-0.096000000000
10.770019789000,-0.093000000000
10.777706910000,-0.088000000000
10.785394031000,-0.086000000000
10.793081152000,-0.084000000000
10.800768273000,-0.081000000000
10.808455394000,-0.076000000000
10.816142515000,-0.076000000000
10.823829636000,-0.072000000000
10.831516757000,-0.072000000000
10.839203878000,-0.079000000000
10.846890999000,-0.086000000000
10.854578120000,-0.086000000000
10.862265241000,-0.081000000000
10.869952362000,-0.069000000000
10.877639483000,-0.055000000000
10.885326604000,-0.050000000000
10.893013725000,-0.038000000000
10.900700846000,-0.014000000000
10.908387967000,-0.016000000000
10.916075088000,-0.040000000000
10.923762209000,-0.048000000000
10.931449330000,-0.043000000000
10.939136451000,-0.045000000000
10.946823572000,-0.045000000000
10.954510693000,-0.038000000000
10.962197814000,-0.036000000000
10.969884935000,-0.052000000000
10.977572056000,-0.096000000000
10.985259177000,-0.076000000000
10.992946298000,0.278000000000
11.000633419000,0.918000000000
11.008320540000,1.173000000000
11.016007661000,0.598000000000
11.023694782000,-0.252000000000
11.031381903000,-0.488000000000
11.039069024000,-0.238000000000
11.046756145000,-0.177000000000
11.054443266000,-0.211000000000
11.062130387000,-0.108000000000
11.069817508000,-0.062000000000
11.077504629000,-0.091000000000
11.085191750000,-0.072000000000
11.092878871000,-0.040000000000
11.100565992000,-0.043000000000
11.108253113000,-0.036000000000
11.115940234000,-0.019000000000
11.123627355000,-0.012000000000
11.131314476000,-0.009000000000
11.139001597000,0.002000000000
11.146688782000,0.012000000000
11.154376321000,0.016000000000
11.162063860000,0.026000000000
11.169751399000,0.038000000000
11.177438938000,0.045000000000
11.185126477000,0.055000000000
11.192814016000,0.067000000000
11.200501555000,0.079000000000
11.208189094000,0.096000000000
11.215876633000,0.110000000000
11.223564172000,0.125000000000
11.231251711000,0.137000000000
11.238939250000,0.144000000000
11.246626789000,0.146000000000
11.254314328000,0.146000000000
11.262001867000,0.146000000000
11.269689406000,0.141000000000
11.277376945000,0.134000000000
11.285064484000,0.117000000000
11.292752023000,0.093000000000
11.300439562000,0.060000000000
11.308127101000,0.019000000000
11.315814640000,-0.021000000000
11.323502179000,-0.057000000000
11.331189718000,-0.081000000000
11.338877257000,-0.096000000000
11.346564796000,-0.103000000000
11.354252335000,-0.105000000000
11.361939874000,-0.105000000000
11.369627413000,-0.105000000000
11.377314952000,-0.105000000000
11.385002491000,-0.101000000000
11.392690030000,-0.098000000000
11.400377569000,-0.093000000000
11.408065108000,-0.091000000000
11.415752647000,-0.088000000000
11.423440186000,-0.088000000000
11.431127725000,-0.088000000000
11.438815264000,-0.088000000000
11.446502803000,-0.091000000000
11.454190342000,-0.093000000000
11.461877881000,-0.093000000000
11.469565420000,-0.096000000000
11.477252959000,-0.093000000000
11.484940498000,-0.091000000000
11.492628037000,-0.091000000000
11.500315576000,-0.091000000000
11.508003115000,-0.086000000000
11.515690654000,-0.084000000000
11.523378193000,-0.081000000000
11.531065732000,-0.079000000000
11.538753271000,-0.074000000000
11.546440810000,-0.072000000000
11.554128349000,-0.072000000000
11.561815888000,-0.069000000000
11.569503427000,-0.064000000000
11.577190966000,-0.062000000000
11.584878505000,-0.060000000000
11.592566044000,-0.060000000000
11.600253583000,-0.057000000000
11.607941122000,-0.055000000000
11.615628661000,-0.052000000000
11.623316200000,-0.052000000000
11.631003739000,-0.052000000000
11.638691278000,-0.048000000000
11.646378817000,-0.045000000000
11.654066356000,-0.048000000000
11.661753895000,-0.043000000000
11.669441434000,-0.043000000000
11.677128973000,-0.048000000000
11.684816512000,-0.052000000000
11.692504051000,-0.057000000000
11.700191590000,-0.055000000000
11.707879197000,-0.045000000000
11.715566318000,-0.028000000000
11.723253439000,-0.021000000000
11.730940560000,-0.012000000000
11.738627681000,0.007000000000
11.746314802000,0.012000000000
11.754001923000,-0.009000000000
11.761689044000,-0.026000000000
11.769376165000,-0.026000000000
11.777063286000,-0.028000000000
11.784750407000,-0.028000000000
11.792437528000,-0.021000000000
11.800124649000,-0.021000000000
11.807811770000,-0.033000000000
11.815498891000,-0.067000000000
11.823186012000,-0.110000000000
11.830873133000,0.040000000000
11.838560254000,0.577000000000
11.846247375000,1.106000000000
11.853934496000,0.983000000000
11.861621617000,0.214000000000
11.869308738000,-0.367000000000
11.876995859000,-0.281000000000
11.884682980000,-0.122000000000
11.892370101000,-0.192000000000
11.900057222000,-0.156000000000
11.907744343000,-0.069000000000
11.915431464000,-0.088000000000
11.923118585000,-0.098000000000
11.930805706000,-0.062000000000
11.938492827000,-0.052000000000
11.946179948000,-0.052000000000
11.953867069000,-0.038000000000
11.961554190000,-0.028000000000
11.969241311000,-0.026000000000
11.976928432000,-0.019000000000
11.984615553000,-0.009000000000
11.992302674000,-0.004000000000
11.999989795000,0.000000000000
12.007676916000,0.009000000000
12.015364037000,0.016000000000
12.023051158000,0.024000000000
12.030738279000,0.036000000000
12.038425400000,0.045000000000
12.046112521000,0.052000000000
12.053799642000,0.064000000000
12.061486763000,0.076000000000
12.069173884000,0.086000000000
12.076861005000,0.093000000000
12.084548126000,0.098000000000
12.092235247000,0.098000000000
12.099922368000,0.096000000000
12.107609489000,0.096000000000
12.115296610000,0.091000000000
12.122983731000,0.086000000000
12.130670852000,0.074000000000
12.138357973000,0.057000000000
12.146045094000,0.036000000000
12.153732215000,0.009000000000
12.161419336000,-0.019000000000
12.169106457000,-0.048000000000
12.176793578000,-0.072000000000
12.184480699000,-0.088000000000
12.192167820000,-0.098000000000
12.199854941000,-0.105000000000
12.207542062000,-0.108000000000
12.215229183000,-0.108000000000
12.222916304000,-0.103000000000
12.230603425000,-0.101000000000
12.238290546000,-0.101000000000
12.245977667000,-0.098000000000
12.253664788000,-0.098000000000
12.261351909000,-0.098000000000
12.269039094000,-0.098000000000
12.276726494000,-0.101000000000
12.284413894000,-0.101000000000
12.292101294000,-0.101000000000
12.299788694000,-0.103000000000
12.307476094000,-0.103000000000
12.315163494000,-0.103000000000
12.322850894000,-0.105000000000
12.330538294000,-0.105000000000
12.338225694000,-0.101000000000
12.345913094000,-0.101000000000
12.353600494000,-0.101000000000
12.361287894000,-0.098000000000
12.368975294000,-0.096000000000
12.376662694000,-0.093000000000
12.384350094000,-0.091000000000
12.392037494000,-0.088000000000
12.399724894000,-0.088000000000
12.407412294000,-0.084000000000
12.415099694000,-0.084000000000
12.422787094000,-0.086000000000
12.430474494000,-0.084000000000
12.438161894000,-0.081000000000
12.445849294000,-0.081000000000
12.453536694000,-0.079000000000
12.461224094000,-0.076000000000
12.468911494000,-0.074000000000
12.476598894000,-0.072000000000
12.484286294000,-0.069000000000
12.491973694000,-0.067000000000
12.499661094000,-0.067000000000
12.507348494000,-0.067000000000
12.515035894000,-0.064000000000
12.522723294000,-0.064000000000
12.530410694000,-0.062000000000
12.538098094000,-0.060000000000
12.545785494000,-0.057000000000
12.553472894000,-0.057000000000
12.561160294000,-0.055000000000
12.568847694000,-0.052000000000
12.576535094000,-0.055000000000
12.584222494000,-0.055000000000
12.591909894000,-0.052000000000
12.599597294000,-0.052000000000
12.607284694000,-0.052000000000
12.614972094000,-0.052000000000
12.622659494000,-0.052000000000
12.630346894000,-0.052000000000
12.638034294000,-0.052000000000
12.645721694000,-0.050000000000
12.653409094000,-0.052000000000
12.661096494000,-0.060000000000
12.668783894000,-0.067000000000
12.676471294000,-0.069000000000
12.684158694000,-0.067000000000
12.691846094000,-0.050000000000
12.699533494000,-0.028000000000
12.707220894000,-0.024000000000
12.714908294000,-0.021000000000
12.722595694000,-0.014000000000
12.730283094000,-0.026000000000
12.737970494000,-0.045000000000
12.745657894000,-0.050000000000
12.753345294000,-0.045000000000
12.761032694000,-0.048000000000
12.768720094000,-0.048000000000
12.776407494000,-0.045000000000
12.784094894000,-0.048000000000
12.791782294000,-0.074000000000
12.799469694000,-0.132000000000
12.807157094000,-0.076000000000
12.814844494000,0.339000000000
12.822531894000,0.930000000000
12.830219339000,1.065000000000
12.837906600000,0.459000000000
12.845593861000,-0.269000000000
12.853281122000,-0.379000000000
12.860968383000,-0.173000000000
12.868655644000,-0.189000000000
12.876342905000,-0.216000000000
12.884030166000,-0.117000000000
12.891717427000,-0.105000000000
12.899404688000,-0.129000000000
12.907091949000,-0.098000000000
12.914779210000,-0.079000000000
12.922466471000,-0.084000000000
12.930153732000,-0.074000000000
12.937840993000,-0.060000000000
12.945528254000,-0.057000000000
12.953215515000,-0.052000000000
12.960902776000,-0.040000000000
12.968590037000,-0.036000000000
12.976277298000,-0.031000000000
12.983964559000,-0.021000000000
12.991651820000,-0.014000000000
12.999339081000,-0.009000000000
13.007026342000,-0.002000000000
13.014713603000,0.007000000000
13.022400864000,0.016000000000
13.030088125000,0.026000000000
13.037775386000,0.036000000000
13.045462647000,0.043000000000
13.053149908000,0.048000000000
13.060837169000,0.055000000000
13.068524430000,0.055000000000
13.076211691000,0.055000000000
13.083898952000,0.052000000000
13.091586213000,0.052000000000
13.099273474000,0.052000000000
13.106960735000,0.052000000000
13.114647996000,0.043000000000
13.122335257000,0.028000000000
13.130022518000,0.009000000000
13.137709779000,-0.014000000000
13.145397040000,-0.040000000000
13.153084301000,-0.064000000000
13.160771562000,-0.084000000000
13.168458823000,-0.098000000000
13.176146084000,-0.110000000000
13.183833345000,-0.113000000000
13.191520606000,-0.115000000000
13.199207867000,-0.115000000000
13.206895128000,-0.113000000000
13.214582389000,-0.110000000000
13.222269650000,-0.110000000000
13.229956911000,-0.110000000000
13.237644172000,-0.110000000000
13.245331433000,-0.108000000000
13.253018694000,-0.110000000000
13.260705955000,-0.113000000000
13.268393216000,-0.113000000000
13.276080477000,-0.113000000000
13.283767738000,-0.113000000000
13.291454999000,-0.115000000000
13.299142260000,-0.115000000000
13.306829521000,-0.115000000000
13.314516782000,-0.113000000000
13.322204043000,-0.113000000000
13.329891304000,-0.110000000000
13.337578565000,-0.108000000000
13.345265826000,-0.105000000000
13.352953087000,-0.105000000000
13.360640348000,-0.103000000000
13.368327609000,-0.101000000000
13.376014870000,-0.098000000000
13.383702131000,-0.096000000000
13.391389406000,-0.093000000000
13.399076945000,-0.091000000000
13.406764484000,-0.088000000000
13.414452023000,-0.086000000000
13.422139562000,-0.086000000000
13.429827101000,-0.084000000000
13.437514640000,-0.081000000000
13.445202179000,-0.081000000000
13.452889718000,-0.081000000000
13.460577257000,-0.079000000000
13.468264796000,-0.076000000000
13.475952335000,-0.074000000000
13.483639874000,-0.072000000000
13.491327413000,-0.072000000000
13.499014952000,-0.069000000000
13.506702491000,-0.069000000000
13.514390030000,-0.069000000000
13.522077569000,-0.064000000000
13.529765108000,-0.062000000000
13.537452647000,-0.064000000000
13.545140186000,-0.064000000000
13.552827725000,-0.062000000000
13.560515264000,-0.067000000000
13.568202803000,-0.074000000000
13.575890342000,-0.074000000000
13.583577881000,-0.072000000000
13.591265420000,-0.062000000000
13.598952959000,-0.040000000000
13.606640498000,-0.024000000000
13.614328037000,-0.021000000000
13.622015576000,-0.016000000000
13.629703115000,-0.021000000000
13.637390654000,-0.043000000000
13.645078193000,-0.055000000000
13.652765732000,-0.050000000000
13.660453271000,-0.050000000000
13.668140810000,-0.052000000000
13.675828349000,-0.048000000000
13.683515888000,-0.045000000000
13.691203427000,-0.055000000000
13.698890966000,-0.093000000000
13.706578505000,-0.110000000000
13.714266044000,0.132000000000
13.721953583000,0.704000000000
13.729641122000,1.062000000000
13.737328661000,0.675000000000
13.745016200000,-0.120000000000
13.752703739000,-0.478000000000
13.760391278000,-0.283000000000
13.768078817000,-0.173000000000
13.775766356000,-0.221000000000
13.783453895000,-0.141000000000
13.791141434000,-0.074000000000
13.798828973000,-0.103000000000
13.806516512000,-0.096000000000
13.814204051000,-0.064000000000
13.821891590000,-0.062000000000
13.829579129000,-0.057000000000
13.837266668000,-0.043000000000
13.844954207000,-0.036000000000
13.852641746000,-0.031000000000
13.860329285000,-0.021000000000
13.868016824000,-0.014000000000
13.875704363000,-0.007000000000
13.883391902000,0.002000000000
13.891079441000,0.012000000000
13.898766980000,0.019000000000
13.906454519000,0.028000000000
13.914142058000,0.038000000000
13.921829597000,0.048000000000
13.929517136000,0.057000000000
13.937204675000,0.072000000000
13.944892214000,0.086000000000
13.952579825000,0.098000000000
13.960267016000,0.103000000000
13.967954207000,0.105000000000
13.975641398000,0.103000000000
13.983328589000,0.101000000000
13.991015780000,0.101000000000
13.998702971000,0.093000000000
14.006390162000,0.088000000000
14.014077353000,0.076000000000
14.021764544000,0.057000000000
14.029451735000,0.026000000000
14.037138926000,-0.007000000000
14.044826117000,-0.043000000000
14.052513308000,-0.072000000000
14.060200499000,-0.096000000000
14.067887690000,-0.110000000000
14.075574881000,-0.120000000000
14.083262072000,-0.122000000000
14.090949263000,-0.122000000000
14.098636454000,-0.120000000000
14.106323645000,-0.117000000000
14.114010836000,-0.113000000000
14.121698027000,-0.110000000000
14.129385218000,-0.110000000000
14.137072409000,-0.110000000000
14.144759600000,-0.110000000000
14.152446791000,-0.108000000000
14.160133982000,-0.108000000000
14.167821173000,-0.110000000000
14.175508364000,-0.113000000000
14.183195555000,-0.115000000000
14.190882746000,-0.115000000000
14.198569937000,-0.117000000000
14.206257128000,-0.117000000000
14.213944319000,-0.115000000000
14.221631510000,-0.115000000000
14.229318701000,-0.115000000000
14.237005892000,-0.113000000000
14.244693083000,-0.110000000000
14.252380274000,-0.108000000000
14.260067465000,-0.105000000000
14.267754656000,-0.103000000000
14.275441847000,-0.103000000000
14.283129038000,-0.098000000000
14.290816229000,-0.096000000000
14.298503420000,-0.096000000000
14.306190611000,-0.093000000000
14.313877802000,-0.091000000000
14.321564993000,-0.088000000000
14.329252184000,-0.086000000000
14.336939375000,-0.086000000000
14.344626566000,-0.084000000000
14.352313757000,-0.081000000000
14.360000948000,-0.081000000000
14.367688139000,-0.081000000000
14.375375330000,-0.084000000000
14.383062521000,-0.091000000000
14.390749712000,-0.093000000000
14.398436903000,-0.091000000000
14.406124094000,-0.086000000000
14.413811285000,-0.069000000000
14.421498476000,-0.048000000000
14.429185667000,-0.040000000000
14.436872858000,-0.033000000000
14.444560049000,-0.031000000000
14.452247240000,-0.045000000000
14.459934431000,-0.062000000000
14.467621622000,-0.064000000000
14.475308813000,-0.060000000000
14.482996004000,-0.052000000000
14.490683195000,-0.048000000000
14.498370386000,-0.045000000000
14.506057577000,-0.045000000000
14.513744809000,-0.067000000000
14.521432279000,-0.088000000000
14.529119749000,0.084000000000
14.536807219000,0.620000000000
14.544494689000,1.084000000000
14.552182159000,0.795000000000
14.559869629000,-0.067000000000
14.567557099000,-0.574000000000
14.575244569000,-0.411000000000
14.582932039000,-0.223000000000
14.590619509000,-0.252000000000
14.598306979000,-0.173000000000
14.605994449000,-0.064000000000
14.613681919000,-0.079000000000
14.621369389000,-0.086000000000
14.629056859000,-0.050000000000
14.636744329000,-0.040000000000
14.644431799000,-0.043000000000
14.652119269000,-0.026000000000
14.659806739000,-0.016000000000
14.667494209000,-0.012000000000
14.675181679000,-0.004000000000
14.682869149000,0.002000000000
14.690556619000,0.009000000000
14.698244089000,0.019000000000
14.705931559000,0.026000000000
14.713619029000,0.036000000000
14.721306499000,0.045000000000
14.728993969000,0.055000000000
14.736681439000,0.067000000000
14.744368909000,0.079000000000
14.752056379000,0.093000000000
14.759743849000,0.108000000000
14.767431319000,0.120000000000
14.775118789000,0.132000000000
14.782806259000,0.139000000000
14.790493729000,0.141000000000
14.798181199000,0.139000000000
14.805868669000,0.137000000000
14.813556139000,0.132000000000
14.821243609000,0.122000000000
14.828931079000,0.103000000000
14.836618549000,0.072000000000
14.844306019000,0.031000000000
14.851993489000,-0.014000000000
14.859680959000,-0.060000000000
14.867368429000,-0.098000000000
14.875055899000,-0.127000000000
14.882743369000,-0.141000000000
14.890430839000,-0.146000000000
14.898118309000,-0.149000000000
14.905805779000,-0.146000000000
14.913493249000,-0.139000000000
14.921180719000,-0.134000000000
14.928868189000,-0.129000000000
14.936555659000,-0.127000000000
14.944243129000,-0.125000000000
14.951930599000,-0.122000000000
14.959618069000,-0.125000000000
14.967305539000,-0.125000000000
14.974993009000,-0.125000000000
14.982680479000,-0.127000000000
14.990367949000,-0.129000000000
14.998055419000,-0.129000000000
15.005742889000,-0.129000000000
15.013430359000,-0.129000000000
15.021117829000,-0.129000000000
15.028805299000,-0.129000000000
15.036492769000,-0.129000000000
15.044180239000,-0.127000000000
15.051867709000,-0.125000000000
15.059555179000,-0.122000000000
15.067242649000,-0.120000000000
15.074930137000,-0.117000000000
15.082617676000,-0.115000000000
15.090305215000,-0.113000000000
15.097992754000,-0.108000000000
15.105680293000,-0.105000000000
15.113367832000,-0.105000000000
15.121055371000,-0.103000000000
15.128742910000,-0.098000000000
15.136430449000,-0.098000000000
15.144117988000,-0.093000000000
15.151805527000,-0.091000000000
15.159493066000,-0.088000000000
15.167180605000,-0.088000000000
15.174868144000,-0.088000000000
15.182555683000,-0.096000000000
15.190243222000,-0.105000000000
15.197930761000,-0.110000000000
15.205618300000,-0.105000000000
15.213305839000,-0.088000000000
15.220993378000,-0.064000000000
15.228680917000,-0.052000000000
15.236368456000,-0.048000000000
15.244055995000,-0.040000000000
15.251743534000,-0.045000000000
15.259431073000,-0.067000000000
15.267118612000,-0.076000000000
15.274806151000,-0.072000000000
15.282493690000,-0.072000000000
15.290181229000,-0.072000000000
15.297868768000,-0.069000000000
15.305556307000,-0.069000000000
15.313243846000,-0.084000000000
15.320931385000,-0.132000000000
15.328618924000,-0.115000000000
15.336306463000,0.218000000000
15.343994002000,0.822000000000
15.351681541000,1.086000000000
15.359369080000,0.581000000000
15.367056619000,-0.211000000000
15.374744158000,-0.449000000000
15.382431697000,-0.230000000000
15.390119236000,-0.189000000000
15.397806775000,-0.230000000000
15.405494314000,-0.137000000000
15.413181853000,-0.101000000000
15.420869392000,-0.132000000000
15.428556931000,-0.110000000000
15.436244470000,-0.081000000000
15.443932009000,-0.084000000000
15.451619548000,-0.076000000000
15.459307087000,-0.060000000000
15.466994626000,-0.055000000000
15.474682165000,-0.048000000000
15.482369704000,-0.038000000000
15.490057243000,-0.033000000000
15.497744782000,-0.026000000000
15.505432321000,-0.016000000000
15.513119860000,-0.007000000000
15.520807399000,0.000000000000
15.528494938000,0.012000000000
15.536182477000,0.021000000000
15.543870016000,0.031000000000
15.551557555000,0.045000000000
15.559245094000,0.057000000000
15.566932633000,0.067000000000
15.574620172000,0.076000000000
15.582307711000,0.084000000000
15.589995250000,0.086000000000
15.597682789000,0.084000000000
15.605370328000,0.081000000000
15.613057867000,0.079000000000
15.620745406000,0.074000000000
15.628432945000,0.062000000000
15.636120552000,0.048000000000
15.643807673000,0.024000000000
15.651494794000,-0.002000000000
15.659181915000,-0.036000000000
15.666869036000,-0.067000000000
15.674556157000,-0.091000000000
15.682243278000,-0.108000000000
15.689930399000,-0.120000000000
15.697617520000,-0.125000000000
15.705304641000,-0.127000000000
15.712991762000,-0.125000000000
15.720678883000,-0.125000000000
15.728366004000,-0.122000000000
15.736053125000,-0.120000000000
15.743740246000,-0.120000000000
15.751427367000,-0.120000000000
15.759114488000,-0.115000000000
15.766801609000,-0.115000000000
15.774488730000,-0.115000000000
15.782175851000,-0.115000000000
15.789862972000,-0.115000000000
15.797550093000,-0.115000000000
15.805237214000,-0.117000000000
15.812924335000,-0.117000000000
15.820611456000,-0.117000000000
15.828298577000,-0.117000000000
15.835985698000,-0.115000000000
15.843672819000,-0.113000000000
15.851359940000,-0.110000000000
15.859047061000,-0.108000000000
15.866734182000,-0.105000000000
15.874421303000,-0.103000000000
15.882108424000,-0.101000000000
15.889795545000,-0.101000000000
15.897482666000,-0.098000000000
15.905169787000,-0.096000000000
15.912856908000,-0.093000000000
15.920544029000,-0.091000000000
15.928231150000,-0.088000000000
15.935918271000,-0.086000000000
15.943605392000,-0.086000000000
15.951292513000,-0.084000000000
15.958979634000,-0.081000000000
15.966666755000,-0.079000000000
15.974353876000,-0.076000000000
15.982040997000,-0.076000000000
15.989728118000,-0.076000000000
15.997415239000,-0.079000000000
16.005102360000,-0.086000000000
16.012789481000,-0.093000000000
16.020476602000,-0.096000000000
16.028163723000,-0.091000000000
16.035850844000,-0.076000000000
16.043537965000,-0.052000000000
16.051225086000,-0.040000000000
16.058912207000,-0.038000000000
16.066599328000,-0.031000000000
16.074286449000,-0.036000000000
16.081973570000,-0.057000000000
16.089660691000,-0.067000000000
16.097347812000,-0.062000000000
16.105034933000,-0.062000000000
16.112722054000,-0.064000000000
16.120409175000,-0.060000000000
16.128096296000,-0.057000000000
16.135783417000,-0.069000000000
16.143470538000,-0.113000000000
16.151157659000,-0.120000000000
16.158844780000,0.149000000000
16.166531901000,0.723000000000
16.174219022000,1.046000000000
16.181906143000,0.627000000000
16.189593264000,-0.146000000000
16.197280449000,-0.447000000000
16.204967988000,-0.247000000000
16.212655527000,-0.175000000000
16.220343066000,-0.223000000000
16.228030605000,-0.137000000000
16.235718144000,-0.088000000000
16.243405683000,-0.120000000000
16.251093222000,-0.103000000000
16.258780761000,-0.069000000000
16.266468300000,-0.072000000000
16.274155839000,-0.067000000000
16.281843378000,-0.050000000000
16.289530917000,-0.043000000000
16.297218456000,-0.040000000000
16.304905995000,-0.031000000000
16.312593534000,-0.021000000000
16.320281073000,-0.016000000000
16.327968612000,-0.009000000000
16.335656151000,0.000000000000
16.343343690000,0.007000000000
16.351031229000,0.016000000000
16.358718768000,0.026000000000
16.366406307000,0.033000000000
16.374093846000,0.043000000000
16.381781385000,0.052000000000
16.389468924000,0.064000000000
16.397156463000,0.072000000000
16.404844002000,0.076000000000
16.412531541000,0.079000000000
16.420219080000,0.079000000000
16.427906619000,0.079000000000
16.435594158000,0.074000000000
16.443281697000,0.072000000000
16.450969236000,0.067000000000
16.458656775000,0.055000000000
16.466344314000,0.033000000000
16.474031853000,0.009000000000
16.481719392000,-0.021000000000
16.489406931000,-0.055000000000
16.497094470000,-0.079000000000
16.504782009000,-0.098000000000
16.512469548000,-0.113000000000
16.520157087000,-0.120000000000
16.527844626000,-0.122000000000
16.535532165000,-0.122000000000
16.543219704000,-0.120000000000
16.550907243000,-0.117000000000
16.558594782000,-0.115000000000
16.566282321000,-0.115000000000
16.573969860000,-0.113000000000
16.581657399000,-0.113000000000
16.589344938000,-0.113000000000
16.597032477000,-0.115000000000
16.604720016000,-0.115000000000
16.612407555000,-0.115000000000
16.620095094000,-0.115000000000
16.627782633000,-0.117000000000
16.635470172000,-0.115000000000
16.643157711000,-0.115000000000
16.650845250000,-0.115000000000
16.658532789000,-0.115000000000
16.666220328000,-0.113000000000
16.673907867000,-0.110000000000
16.681595406000,-0.110000000000
16.689282945000,-0.108000000000
16.696970484000,-0.108000000000
16.704658023000,-0.103000000000
16.712345562000,-0.101000000000
16.720033101000,-0.098000000000
16.727720640000,-0.096000000000
16.735408179000,-0.096000000000
16.743095718000,-0.091000000000
16.750783257000,-0.088000000000
16.758470864000,-0.088000000000
16.766158403000,-0.086000000000
16.773845942000,-0.086000000000
16.781533481000,-0.084000000000
16.789221020000,-0.084000000000
16.796908559000,-0.081000000000
16.804596098000,-0.079000000000
16.812283637000,-0.079000000000
16.819971176000,-0.079000000000
16.827658715000,-0.084000000000
16.835346254000,-0.093000000000
16.843033793000,-0.098000000000
16.850721332000,-0.093000000000
16.858408871000,-0.081000000000
16.866096410000,-0.060000000000
16.873783949000,-0.043000000000
16.881471488000,-0.038000000000
16.889159027000,-0.031000000000
16.896846566000,-0.033000000000
16.904534105000,-0.055000000000
16.912221644000,-0.067000000000
16.919909183000,-0.064000000000
16.927596722000,-0.062000000000
16.935284261000,-0.064000000000
16.942971800000,-0.062000000000
16.950659339000,-0.060000000000
16.958346878000,-0.072000000000
16.966034417000,-0.108000000000
16.973721956000,-0.117000000000
16.981409495000,0.134000000000
16.989097034000,0.697000000000
16.996784573000,1.026000000000
17.004472112000,0.615000000000
17.012159651000,-0.156000000000
17.019847190000,-0.459000000000
17.027534729000,-0.262000000000
17.035222268000,-0.189000000000
17.042909807000,-0.230000000000
17.050597346000,-0.144000000000
17.058284885000,-0.091000000000
17.065972424000,-0.122000000000
17.073659963000,-0.110000000000
17.081347502000,-0.079000000000
17.089035041000,-0.081000000000
17.096722580000,-0.076000000000
17.104410119000,-0.060000000000
17.112097658000,-0.052000000000
17.119785197000,-0.048000000000
17.127472736000,-0.038000000000
17.135160275000,-0.031000000000
17.142847814000,-0.028000000000
17.150535353000,-0.019000000000
17.158222892000,-0.012000000000
17.165910431000,-0.007000000000
17.173597970000,0.000000000000
17.181285509000,0.009000000000
17.188973048000,0.019000000000
17.196660587000,0.026000000000
17.204348126000,0.038000000000
17.212035665000,0.045000000000
17.219723204000,0.055000000000
17.227410743000,0.060000000000
17.235098282000,0.062000000000
17.242785821000,0.062000000000
17.250473360000,0.062000000000
17.258160899000,0.060000000000
17.265848438000,0.060000000000
17.273535977000,0.055000000000
17.281223516000,0.040000000000
17.288911055000,0.014000000000
17.296598594000,-0.014000000000
17.304286133000,-0.045000000000
17.311973672000,-0.074000000000
17.319661283000,-0.101000000000
17.327348474000,-0.122000000000
17.335035665000,-0.137000000000
17.342722856000,-0.146000000000
17.350410047000,-0.149000000000
17.358097238000,-0.146000000000
17.365784429000,-0.144000000000
17.373471620000,-0.144000000000
17.381158811000,-0.144000000000
17.388846002000,-0.144000000000
17.396533193000,-0.141000000000
17.404220384000,-0.144000000000
17.411907575000,-0.144000000000
17.419594766000,-0.144000000000
17.427281957000,-0.144000000000
17.434969148000,-0.146000000000
17.442656339000,-0.146000000000
17.450343530000,-0.149000000000
17.458030721000,-0.149000000000
17.465717912000,-0.149000000000
17.473405103000,-0.149000000000
17.481092294000,-0.146000000000
17.488779485000,-0.144000000000
17.496466676000,-0.141000000000
17.504153867000,-0.139000000000
17.511841058000,-0.137000000000
17.519528249000,-0.134000000000
17.527215440000,-0.132000000000
17.534902631000,-0.132000000000
17.542589822000,-0.129000000000
17.550277013000,-0.127000000000
17.557964204000,-0.125000000000
17.565651395000,-0.122000000000
17.573338586000,-0.122000000000
17.581025777000,-0.125000000000
17.588712968000,-0.132000000000
17.596400159000,-0.137000000000
17.604087350000,-0.137000000000
17.611774541000,-0.127000000000
17.619461732000,-0.113000000000
17.627148923000,-0.096000000000
17.634836114000,-0.081000000000
17.642523305000,-0.067000000000
17.650210496000,-0.064000000000
17.657897687000,-0.084000000000
17.665584878000,-0.098000000000
17.673272069000,-0.098000000000
17.680959260000,-0.093000000000
17.688646451000,-0.093000000000
17.696333642000,-0.091000000000
17.704020833000,-0.091000000000
17.711708024000,-0.098000000000
17.719395215000,-0.125000000000
17.727082406000,-0.139000000000
17.734769597000,0.064000000000
17.742456788000,0.608000000000
17.750143979000,0.995000000000
17.757831170000,0.627000000000
17.765518361000,-0.173000000000
17.773205552000,-0.531000000000
17.780892743000,-0.341000000000
17.788579934000,-0.228000000000
17.796267125000,-0.257000000000
17.803954316000,-0.165000000000
17.811641507000,-0.091000000000
17.819328698000,-0.115000000000
17.827015889000,-0.110000000000
17.834703080000,-0.076000000000
17.842390271000,-0.074000000000
17.850077462000,-0.072000000000
17.857764653000,-0.055000000000
17.865451844000,-0.043000000000
17.873139035000,-0.040000000000
17.880826267000,-0.033000000000
17.888513737000,-0.021000000000
17.896201207000,-0.012000000000
17.903888677000,-0.002000000000
17.911576147000,0.004000000000
17.919263617000,0.014000000000
17.926951087000,0.021000000000
17.934638557000,0.033000000000
17.942326027000,0.048000000000
17.950013497000,0.060000000000
17.957700967000,0.072000000000
17.965388437000,0.088000000000
17.973075907000,0.101000000000
17.980763377000,0.108000000000
17.988450847000,0.110000000000
17.996138317000,0.113000000000
18.003825787000,0.113000000000
18.011513257000,0.113000000000
18.019200727000,0.110000000000
18.026888197000,0.103000000000
18.034575667000,0.074000000000
18.042263137000,0.040000000000
18.049950607000,0.004000000000
18.057638077000,-0.033000000000
18.065325547000,-0.072000000000
18.073013017000,-0.101000000000
18.080700487000,-0.120000000000
18.088387957000,-0.134000000000
18.096075427000,-0.137000000000
18.103762897000,-0.139000000000
18.111450367000,-0.137000000000
18.119137837000,-0.132000000000
18.126825307000,-0.132000000000
18.134512777000,-0.134000000000
18.142200247000,-0.132000000000
18.149887717000,-0.127000000000
18.157575187000,-0.127000000000
18.165262657000,-0.129000000000
18.172950127000,-0.132000000000
18.180637597000,-0.129000000000
18.188325067000,-0.132000000000
18.196012537000,-0.132000000000
18.203700007000,-0.129000000000
18.211387477000,-0.129000000000
18.219074947000,-0.129000000000
18.226762417000,-0.129000000000
18.234449887000,-0.129000000000
18.242137357000,-0.125000000000
18.249824827000,-0.122000000000
18.257512297000,-0.120000000000
18.265199767000,-0.115000000000
18.272887237000,-0.113000000000
18.280574707000,-0.115000000000
18.288262177000,-0.113000000000
18.295949647000,-0.108000000000
18.303637117000,-0.110000000000
18.311324587000,-0.117000000000
18.319012057000,-0.120000000000
18.326699527000,-0.117000000000
18.334386997000,-0.113000000000
18.342074467000,-0.098000000000
18.349761937000,-0.084000000000
18.357449407000,-0.074000000000
18.365136877000,-0.055000000000
18.372824347000,-0.045000000000
18.380511817000,-0.062000000000
18.388199287000,-0.079000000000
18.395886757000,-0.079000000000
18.403574227000,-0.079000000000
18.411261697000,-0.079000000000
18.418949167000,-0.074000000000
18.426636637000,-0.072000000000
18.434324107000,-0.076000000000
18.442011595000,-0.091000000000
18.449698925000,-0.105000000000
18.457386255000,0.040000000000
18.465073585000,0.541000000000
18.472760915000,1.034000000000
18.480448245000,0.803000000000
18.488135575000,-0.060000000000
18.495822905000,-0.596000000000
18.503510235000,-0.442000000000
18.511197565000,-0.252000000000
18.518884895000,-0.274000000000
18.526572225000,-0.189000000000
18.534259555000,-0.074000000000
18.541946885000,-0.086000000000
18.549634215000,-0.093000000000
18.557321545000,-0.055000000000
18.565008875000,-0.045000000000
18.572696205000,-0.048000000000
18.580383535000,-0.031000000000
18.588070865000,-0.016000000000
18.595758195000,-0.016000000000
18.603445525000,-0.007000000000
18.611132855000,0.002000000000
18.618820185000,0.012000000000
18.626507515000,0.021000000000
18.634194845000,0.031000000000
18.641882175000,0.043000000000
18.649569505000,0.055000000000
18.657256835000,0.064000000000
18.664944165000,0.076000000000
18.672631495000,0.091000000000
18.680318825000,0.110000000000
18.688006155000,0.127000000000
18.695693485000,0.144000000000
18.703380815000,0.158000000000
18.711068145000,0.168000000000
18.718755475000,0.170000000000
18.726442805000,0.173000000000
18.734130135000,0.175000000000
18.741817465000,0.173000000000
18.749504795000,0.158000000000
18.757192125000,0.129000000000
18.764879455000,0.088000000000
18.772566785000,0.040000000000
18.780254115000,-0.014000000000
18.787941445000,-0.062000000000
18.795628775000,-0.096000000000
18.803316105000,-0.120000000000
18.811003435000,-0.134000000000
18.818690765000,-0.141000000000
18.826378095000,-0.141000000000
18.834065425000,-0.141000000000
18.841752755000,-0.139000000000
18.849440085000,-0.134000000000
18.857127415000,-0.132000000000
18.864814745000,-0.127000000000
18.872502075000,-0.127000000000
18.880189405000,-0.127000000000
18.887876735000,-0.125000000000
18.895564065000,-0.127000000000
18.903251395000,-0.129000000000
18.910938725000,-0.132000000000
18.918626055000,-0.132000000000
18.926313385000,-0.132000000000
18.934000715000,-0.132000000000
18.941688045000,-0.129000000000
18.949375375000,-0.129000000000
18.957062705000,-0.127000000000
18.964750035000,-0.125000000000
18.972437365000,-0.122000000000
18.980124695000,-0.120000000000
18.987812025000,-0.115000000000
18.995499355000,-0.113000000000
19.003186753000,-0.113000000000
19.010874083000,-0.117000000000
19.018561413000,-0.122000000000
19.026248743000,-0.122000000000
19.033936073000,-0.122000000000
19.041623403000,-0.113000000000
19.049310733000,-0.098000000000
19.056998063000,-0.088000000000
19.064685393000,-0.074000000000
19.072372723000,-0.050000000000
19.080060053000,-0.048000000000
19.087747383000,-0.072000000000
19.095434713000,-0.081000000000
19.103122043000,-0.076000000000
19.110809373000,-0.076000000000
19.118496703000,-0.079000000000
19.126184033000,-0.074000000000
19.133871363000,-0.072000000000
19.141558693000,-0.079000000000
19.149246023000,-0.110000000000
19.156933353000,-0.120000000000
19.164620683000,0.125000000000
19.172308013000,0.716000000000
19.179995343000,1.089000000000
19.187682673000,0.663000000000
19.195370003000,-0.180000000000
19.203057333000,-0.531000000000
19.210744663000,-0.317000000000
19.218431993000,-0.206000000000
19.226119323000,-0.240000000000
19.233806653000,-0.149000000000
19.241493983000,-0.079000000000
19.249181313000,-0.105000000000
19.256868643000,-0.093000000000
19.264555973000,-0.057000000000
19.272243303000,-0.055000000000
19.279930633000,-0.050000000000
19.287617963000,-0.033000000000
19.295305293000,-0.024000000000
19.302992623000,-0.021000000000
19.310679953000,-0.012000000000
19.318367283000,-0.002000000000
19.326054613000,0.004000000000
19.333741943000,0.014000000000
19.341429273000,0.024000000000
19.349116603000,0.031000000000
19.356803933000,0.043000000000
19.364491263000,0.055000000000
19.372178593000,0.064000000000
19.379865923000,0.076000000000
19.387553253000,0.096000000000
19.395240583000,0.108000000000
19.402927913000,0.117000000000
19.410615243000,0.127000000000
19.418302573000,0.129000000000
19.425989903000,0.132000000000
19.433677233000,0.132000000000
19.441364563000,0.129000000000
19.449051893000,0.122000000000
19.456739223000,0.110000000000
19.464426553000,0.084000000000
19.472113883000,0.048000000000
19.479801213000,0.007000000000
19.487488543000,-0.033000000000
19.495175873000,-0.069000000000
19.502863203000,-0.093000000000
19.510550533000,-0.110000000000
19.518237863000,-0.117000000000
19.525925193000,-0.122000000000
19.533612523000,-0.122000000000
19.541299853000,-0.122000000000
19.548987183000,-0.120000000000
19.556674513000,-0.117000000000
19.564361907000,-0.113000000000
19.572049377000,-0.113000000000
19.579736847000,-0.113000000000
19.587424317000,-0.113000000000
19.595111787000,-0.113000000000
19.602799257000,-0.115000000000
19.610486727000,-0.117000000000
19.618174197000,-0.117000000000
19.625861667000,-0.115000000000
19.633549137000,-0.117000000000
19.641236607000,-0.117000000000
19.648924077000,-0.115000000000
19.656611547000,-0.113000000000
19.664299017000,-0.113000000000
19.671986487000,-0.110000000000
19.679673957000,-0.110000000000
19.687361427000,-0.108000000000
19.695048897000,-0.105000000000
19.702736367000,-0.103000000000
19.710423837000,-0.098000000000
19.718111307000,-0.098000000000
19.725798777000,-0.096000000000
19.733486247000,-0.093000000000
19.741173717000,-0.093000000000
19.748861187000,-0.096000000000
19.756548657000,-0.101000000000
19.764236127000,-0.103000000000
19.771923597000,-0.103000000000
19.779611067000,-0.093000000000
19.787298537000,-0.076000000000
19.794986007000,-0.067000000000
19.802673477000,-0.057000000000
19.810360947000,-0.036000000000
19.818048417000,-0.036000000000
19.825735887000,-0.060000000000
19.833423357000,-0.072000000000
19.841110827000,-0.067000000000
19.848798297000,-0.067000000000
19.856485767000,-0.069000000000
19.864173237000,-0.062000000000
19.871860707000,-0.060000000000
19.879548177000,-0.069000000000
19.887235647000,-0.105000000000
19.894923117000,-0.144000000000
19.902610587000,0.033000000000
19.910298057000,0.581000000000
19.917985527000,1.053000000000
19.925672997000,0.817000000000
19.933360467000,0.024000000000
19.941047937000,-0.456000000000
19.948735407000,-0.317000000000
19.956422877000,-0.175000000000
19.964110347000,-0.228000000000
19.971797817000,-0.165000000000
19.979485287000,-0.086000000000
19.987172757000,-0.108000000000
19.994860227000,-0.108000000000
20.002547697000,-0.072000000000
20.010235167000,-0.067000000000
20.017922637000,-0.067000000000
20.025610107000,-0.050000000000
20.033297577000,-0.040000000000
20.040985047000,-0.038000000000
20.048672517000,-0.028000000000
20.056359987000,-0.019000000000
20.064047457000,-0.012000000000
20.071734927000,-0.002000000000
20.079422397000,0.007000000000
20.087109867000,0.014000000000
20.094797337000,0.024000000000
20.102484807000,0.036000000000
20.110172277000,0.045000000000
20.117859747000,0.057000000000
20.125547239000,0.069000000000
20.133234848000,0.079000000000
20.140922457000,0.088000000000
20.148610066000,0.093000000000
20.156297675000,0.096000000000
20.163985284000,0.096000000000
20.171672893000,0.096000000000
20.179360502000,0.096000000000
20.187048111000,0.091000000000
20.194735720000,0.084000000000
20.202423329000,0.067000000000
20.210110938000,0.043000000000
20.217798547000,0.012000000000
20.225486156000,-0.019000000000
20.233173765000,-0.050000000000
20.240861374000,-0.079000000000
20.248548983000,-0.098000000000
20.256236592000,-0.110000000000
20.263924201000,-0.115000000000
20.271611810000,-0.117000000000
20.279299419000,-0.117000000000
20.286987028000,-0.117000000000
20.294674637000,-0.115000000000
20.302362246000,-0.113000000000
20.310049855000,-0.110000000000
20.317737464000,-0.108000000000
20.325425073000,-0.108000000000
20.333112682000,-0.108000000000
20.340800291000,-0.110000000000
20.348487900000,-0.110000000000
20.356175509000,-0.113000000000
20.363863118000,-0.113000000000
20.371550727000,-0.113000000000
20.379238336000,-0.113000000000
20.386925945000,-0.113000000000
20.394613554000,-0.110000000000
20.402301163000,-0.108000000000
20.409988772000,-0.110000000000
20.417676381000,-0.110000000000
20.425363990000,-0.108000000000
20.433051599000,-0.105000000000
20.440739208000,-0.105000000000
20.448426817000,-0.101000000000
20.456114426000,-0.098000000000
20.463802035000,-0.098000000000
20.471489644000,-0.096000000000
20.479177253000,-0.093000000000
20.486864862000,-0.093000000000
20.494552471000,-0.091000000000
20.502240080000,-0.088000000000
20.509927689000,-0.088000000000
20.517615298000,-0.088000000000
20.525302907000,-0.086000000000
20.532990516000,-0.084000000000
20.540678125000,-0.081000000000
20.548365734000,-0.081000000000
20.556053343000,-0.079000000000
20.563740952000,-0.079000000000
20.571428561000,-0.084000000000
20.579116170000,-0.091000000000
20.586803779000,-0.093000000000
20.594491388000,-0.093000000000
20.602178997000,-0.088000000000
20.609866606000,-0.074000000000
20.617554215000,-0.064000000000
20.625241824000,-0.057000000000
20.632929433000,-0.038000000000
20.640617042000,-0.031000000000
20.648304651000,-0.050000000000
20.655992260000,-0.067000000000
20.663679869000,-0.067000000000
20.671367478000,-0.067000000000
20.679055087000,-0.069000000000
20.686742741000,-0.064000000000
20.694429862000,-0.062000000000
20.702116983000,-0.067000000000
20.709804104000,-0.096000000000
20.717491225000,-0.137000000000
20.725178346000,-0.004000000000
20.732865467000,0.492000000000
20.740552588000,0.997000000000
20.748239709000,0.863000000000
20.755926830000,0.115000000000
20.763613951000,-0.430000000000
20.771301072000,-0.339000000000
20.778988193000,-0.177000000000
20.786675314000,-0.226000000000
20.794362435000,-0.185000000000
20.802049556000,-0.098000000000
20.809736677000,-0.115000000000
20.817423798000,-0.122000000000
20.825110919000,-0.084000000000
20.832798040000,-0.074000000000
20.840485161000,-0.076000000000
20.848172282000,-0.060000000000
20.855859403000,-0.050000000000
20.863546524000,-0.048000000000
20.871233645000,-0.040000000000
20.878920766000,-0.028000000000
20.886607887000,-0.021000000000
20.894295008000,-0.016000000000
20.901982129000,-0.007000000000
20.909669250000,0.002000000000
20.917356371000,0.009000000000
20.925043492000,0.014000000000
20.932730613000,0.024000000000
20.940417734000,0.036000000000
20.948104855000,0.045000000000
20.955791976000,0.055000000000
20.963479097000,0.062000000000
20.971166218000,0.069000000000
20.978853339000,0.074000000000
20.986540460000,0.074000000000
20.994227581000,0.074000000000
21.001914702000,0.076000000000
21.009601823000,0.079000000000
21.017288944000,0.076000000000
21.024976065000,0.067000000000
21.032663186000,0.050000000000
21.040350307000,0.028000000000
21.048037428000,0.000000000000
21.055724549000,-0.033000000000
21.063411670000,-0.060000000000
21.071098791000,-0.084000000000
21.078785912000,-0.101000000000
21.086473033000,-0.110000000000
21.094160154000,-0.115000000000
21.101847275000,-0.117000000000
21.109534396000,-0.117000000000
21.117221517000,-0.115000000000
21.124908638000,-0.115000000000
21.132595759000,-0.113000000000
21.140282880000,-0.113000000000
21.147970001000,-0.113000000000
21.155657122000,-0.110000000000
21.163344243000,-0.113000000000
21.171031364000,-0.117000000000
21.178718485000,-0.117000000000
21.186405606000,-0.117000000000
21.194092727000,-0.120000000000
21.201779848000,-0.122000000000
21.209466969000,-0.122000000000
21.217154090000,-0.120000000000
21.224841211000,-0.117000000000
21.232528332000,-0.120000000000
21.240215453000,-0.120000000000
21.247902638000,-0.117000000000
21.255590177000,-0.115000000000
21.263277716000,-0.115000000000
21.270965255000,-0.117000000000
21.278652794000,-0.115000000000
21.286340333000,-0.110000000000
21.294027872000,-0.105000000000
21.301715411000,-0.105000000000
21.309402950000,-0.105000000000
21.317090489000,-0.105000000000
21.324778028000,-0.113000000000
21.332465567000,-0.120000000000
21.340153106000,-0.125000000000
21.347840645000,-0.125000000000
21.355528184000,-0.117000000000
21.363215723000,-0.098000000000
21.370903262000,-0.091000000000
21.378590801000,-0.084000000000
21.386278340000,-0.060000000000
21.393965879000,-0.055000000000
21.401653418000,-0.079000000000
21.409340957000,-0.093000000000
21.417028496000,-0.091000000000
21.424716035000,-0.091000000000
21.432403574000,-0.093000000000
21.440091113000,-0.088000000000
21.447778652000,-0.086000000000
21.455466191000,-0.096000000000
21.463153730000,-0.129000000000
21.470841269000,-0.151000000000
21.478528808000,0.064000000000
21.486216347000,0.622000000000
21.493903886000,1.017000000000
21.501591425000,0.666000000000
21.509278964000,-0.141000000000
21.516966503000,-0.526000000000
21.524654042000,-0.339000000000
21.532341581000,-0.218000000000
21.540029120000,-0.254000000000
21.547716659000,-0.170000000000
21.555404198000,-0.096000000000
21.563091737000,-0.120000000000
21.570779276000,-0.115000000000
21.578466815000,-0.084000000000
21.586154354000,-0.081000000000
21.593841893000,-0.079000000000
21.601529432000,-0.064000000000
21.609216971000,-0.052000000000
21.616904510000,-0.048000000000
21.624592049000,-0.040000000000
21.632279588000,-0.031000000000
21.639967127000,-0.024000000000
21.647654666000,-0.012000000000
21.655342205000,-0.002000000000
21.663029744000,0.009000000000
21.670717283000,0.019000000000
21.678404822000,0.026000000000
21.686092361000,0.036000000000
21.693779900000,0.050000000000
21.701467439000,0.064000000000
21.709154978000,0.076000000000
21.716842517000,0.088000000000
21.724530056000,0.096000000000
21.732217595000,0.098000000000
21.739905134000,0.096000000000
21.747592673000,0.093000000000
21.755280212000,0.093000000000
21.762967751000,0.093000000000
21.770655290000,0.081000000000
21.778342829000,0.057000000000
21.786030368000,0.026000000000
21.793717907000,-0.009000000000
21.801405446000,-0.045000000000
21.809093053000,-0.079000000000
21.816780174000,-0.108000000000
21.824467295000,-0.122000000000
21.832154416000,-0.129000000000
21.839841537000,-0.137000000000
21.847528658000,-0.139000000000
21.855215779000,-0.137000000000
21.862902900000,-0.127000000000
21.870590021000,-0.125000000000
21.878277142000,-0.127000000000
21.885964263000,-0.120000000000
21.893651384000,-0.115000000000
21.901338505000,-0.117000000000
21.909025626000,-0.117000000000
21.916712747000,-0.115000000000
21.924399868000,-0.117000000000
21.932086989000,-0.117000000000
21.939774110000,-0.117000000000
21.947461231000,-0.115000000000
21.955148352000,-0.115000000000
21.962835473000,-0.115000000000
21.970522594000,-0.117000000000
21.978209715000,-0.113000000000
21.985896836000,-0.108000000000
21.993583957000,-0.105000000000
22.001271078000,-0.105000000000
22.008958199000,-0.105000000000
22.016645320000,-0.105000000000
22.024332441000,-0.105000000000
22.032019562000,-0.108000000000
22.039706683000,-0.115000000000
22.047393804000,-0.115000000000
22.055080925000,-0.103000000000
22.062768046000,-0.088000000000
22.070455167000,-0.084000000000
22.078142288000,-0.069000000000
22.085829409000,-0.045000000000
22.093516530000,-0.043000000000
22.101203651000,-0.067000000000
22.108890772000,-0.076000000000
22.116577893000,-0.069000000000
22.124265014000,-0.072000000000
22.131952135000,-0.072000000000
22.139639256000,-0.064000000000
22.147326377000,-0.062000000000
22.155013498000,-0.069000000000
22.162700619000,-0.098000000000
22.170387740000,-0.074000000000
22.178074861000,0.245000000000
22.185761982000,0.860000000000
22.193449103000,1.111000000000
22.201136224000,0.490000000000
22.208823345000,-0.384000000000
22.216510466000,-0.608000000000
22.224197587000,-0.336000000000
22.231884708000,-0.245000000000
22.239571829000,-0.254000000000
22.247258950000,-0.127000000000
22.254946071000,-0.060000000000
22.262633192000,-0.091000000000
22.270320313000,-0.074000000000
22.278007434000,-0.038000000000
22.285694555000,-0.038000000000
22.293381676000,-0.033000000000
22.301068797000,-0.012000000000
22.308755918000,-0.002000000000
22.316443039000,0.002000000000
22.324130160000,0.009000000000
22.331817281000,0.021000000000
22.339504402000,0.033000000000
22.347191523000,0.043000000000
22.354878644000,0.052000000000
22.362565765000,0.067000000000
22.370252950000,0.081000000000
22.377940350000,0.093000000000
22.385627750000,0.108000000000
22.393315150000,0.127000000000
22.401002550000,0.149000000000
22.408689950000,0.170000000000
22.416377350000,0.187000000000
22.424064750000,0.197000000000
22.431752150000,0.204000000000
22.439439550000,0.209000000000
22.447126950000,0.204000000000
22.454814350000,0.197000000000
22.462501750000,0.189000000000
22.470189150000,0.163000000000
22.477876550000,0.117000000000
22.485563950000,0.064000000000
22.493251350000,0.009000000000
22.500938750000,-0.045000000000
22.508626150000,-0.086000000000
22.516313550000,-0.113000000000
22.524000950000,-0.132000000000
22.531688350000,-0.139000000000
22.539375750000,-0.139000000000
22.547063150000,-0.137000000000
22.554750550000,-0.129000000000
22.562437950000,-0.122000000000
22.570125350000,-0.117000000000
22.577812750000,-0.113000000000
22.585500150000,-0.108000000000
22.593187550000,-0.108000000000
22.600874950000,-0.113000000000
22.608562350000,-0.115000000000
22.616249750000,-0.115000000000
22.623937150000,-0.117000000000
22.631624550000,-0.120000000000
22.639311950000,-0.122000000000
22.646999350000,-0.122000000000
22.654686750000,-0.122000000000
22.662374150000,-0.122000000000
22.670061550000,-0.122000000000
22.677748950000,-0.125000000000
22.685436350000,-0.125000000000
22.693123750000,-0.125000000000
22.700811150000,-0.127000000000
22.708498550000,-0.122000000000
22.716185950000,-0.108000000000
22.723873350000,-0.101000000000
22.731560750000,-0.088000000000
22.739248150000,-0.060000000000
22.746935550000,-0.052000000000
22.754622950000,-0.074000000000
22.762310350000,-0.086000000000
22.769997750000,-0.081000000000
22.777685150000,-0.081000000000
22.785372550000,-0.079000000000
22.793059950000,-0.072000000000
22.800747350000,-0.072000000000
22.808434750000,-0.079000000000
22.816122150000,-0.101000000000
22.823809550000,-0.086000000000
22.831496950000,0.204000000000
22.839184350000,0.841000000000
22.846871750000,1.183000000000
22.854559150000,0.618000000000
22.862246550000,-0.317000000000
22.869933950000,-0.622000000000
22.877621350000,-0.353000000000
22.885308750000,-0.235000000000
22.892996150000,-0.259000000000
22.900683550000,-0.139000000000
22.908370950000,-0.057000000000
22.916058350000,-0.084000000000
22.923745750000,-0.074000000000
22.931433195000,-0.038000000000
22.939120456000,-0.036000000000
22.946807717000,-0.028000000000
22.954494978000,-0.012000000000
22.962182239000,-0.004000000000
22.969869500000,0.000000000000
22.977556761000,0.012000000000
22.985244022000,0.024000000000
22.992931283000,0.036000000000
23.000618544000,0.048000000000
23.008305805000,0.057000000000
23.015993066000,0.069000000000
23.023680327000,0.084000000000
23.031367588000,0.098000000000
23.039054849000,0.115000000000
23.046742110000,0.132000000000
23.054429371000,0.151000000000
23.062116632000,0.173000000000
23.069803893000,0.192000000000
23.077491154000,0.204000000000
23.085178415000,0.209000000000
23.092865676000,0.211000000000
23.100552937000,0.211000000000
23.108240198000,0.204000000000
23.115927459000,0.192000000000
23.123614720000,0.168000000000
23.131301981000,0.125000000000
23.138989242000,0.069000000000
23.146676503000,0.009000000000
23.154363764000,-0.045000000000
23.162051025000,-0.088000000000
23.169738286000,-0.117000000000
23.177425547000,-0.134000000000
23.185112808000,-0.139000000000
23.192800069000,-0.137000000000
23.200487330000,-0.132000000000
23.208174591000,-0.125000000000
23.215861852000,-0.117000000000
23.223549113000,-0.110000000000
23.231236374000,-0.103000000000
23.238923635000,-0.101000000000
23.246610896000,-0.101000000000
23.254298157000,-0.101000000000
23.261985418000,-0.098000000000
23.269672679000,-0.103000000000
23.277359940000,-0.103000000000
23.285047201000,-0.103000000000
23.292734462000,-0.103000000000
23.300421723000,-0.103000000000
23.308108984000,-0.103000000000
23.315796245000,-0.105000000000
23.323483506000,-0.105000000000
23.331170767000,-0.110000000000
23.338858028000,-0.115000000000
23.346545289000,-0.115000000000
23.354232550000,-0.113000000000
23.361919811000,-0.105000000000
23.369607072000,-0.093000000000
23.377294333000,-0.084000000000
23.384981594000,-0.067000000000
23.392668855000,-0.040000000000
23.400356116000,-0.043000000000
23.408043377000,-0.067000000000
23.415730638000,-0.074000000000
23.423417899000,-0.067000000000
23.431105160000,-0.067000000000
23.438792421000,-0.067000000000
23.446479682000,-0.064000000000
23.454166943000,-0.064000000000
23.461854204000,-0.074000000000
23.469541465000,-0.120000000000
23.477228726000,-0.129000000000
23.484915987000,0.163000000000
23.492603262000,0.812000000000
23.500290801000,1.233000000000
23.507978340000,0.834000000000
23.515665879000,-0.064000000000
23.523353418000,-0.476000000000
23.531040957000,-0.257000000000
23.538728496000,-0.163000000000
23.546416035000,-0.240000000000
23.554103574000,-0.153000000000
23.561791113000,-0.086000000000
23.569478652000,-0.120000000000
23.577166191000,-0.108000000000
23.584853730000,-0.072000000000
23.592541269000,-0.069000000000
23.600228808000,-0.064000000000
23.607916347000,-0.045000000000
23.615603886000,-0.038000000000
23.623291425000,-0.033000000000
23.630978964000,-0.021000000000
23.638666503000,-0.014000000000
23.646354042000,-0.004000000000
23.654041581000,0.007000000000
23.661729120000,0.016000000000
23.669416659000,0.026000000000
23.677104198000,0.036000000000
23.684791737000,0.050000000000
23.692479276000,0.064000000000
23.700166815000,0.081000000000
23.707854354000,0.098000000000
23.715541893000,0.115000000000
23.723229432000,0.129000000000
23.730916971000,0.141000000000
23.738604510000,0.149000000000
23.746292049000,0.149000000000
23.753979588000,0.149000000000
23.761667127000,0.144000000000
23.769354666000,0.132000000000
23.777042205000,0.110000000000
23.784729744000,0.081000000000
23.792417283000,0.043000000000
23.800104822000,0.002000000000
23.807792361000,-0.040000000000
23.815479900000,-0.074000000000
23.823167439000,-0.096000000000
23.830854978000,-0.110000000000
23.838542517000,-0.117000000000
23.846230056000,-0.117000000000
23.853917595000,-0.117000000000
23.861605134000,-0.117000000000
23.869292673000,-0.115000000000
23.876980212000,-0.115000000000
23.884667751000,-0.110000000000
23.892355290000,-0.110000000000
23.900042829000,-0.108000000000
23.907730368000,-0.105000000000
23.915417907000,-0.105000000000
23.923105446000,-0.105000000000
23.930792985000,-0.105000000000
23.938480524000,-0.105000000000
23.946168063000,-0.108000000000
23.953855602000,-0.108000000000
23.961543141000,-0.108000000000
23.969230680000,-0.108000000000
23.976918219000,-0.105000000000
23.984605758000,-0.105000000000
23.992293297000,-0.105000000000
23.999980836000,-0.105000000000
24.007668375000,-0.110000000000
24.015355914000,-0.117000000000
24.023043453000,-0.120000000000
24.030730992000,-0.113000000000
24.038418531000,-0.098000000000
24.046106070000,-0.086000000000
24.053793681000,-0.076000000000
24.061480872000,-0.052000000000
24.069168063000,-0.038000000000
24.076855254000,-0.057000000000
24.084542445000,-0.076000000000
24.092229636000,-0.074000000000
24.099916827000,-0.072000000000
24.107604018000,-0.076000000000
24.115291209000,-0.072000000000
24.122978400000,-0.069000000000
24.130665591000,-0.072000000000
24.138352782000,-0.093000000000
24.146039973000,-0.153000000000
24.153727164000,-0.108000000000
24.161414355000,0.319000000000
24.169101546000,0.973000000000
24.176788737000,1.166000000000
24.184475928000,0.521000000000
24.192163119000,-0.300000000000
24.199850310000,-0.435000000000
24.207537501000,-0.192000000000
24.215224692000,-0.199000000000
24.222911883000,-0.226000000000
24.230599074000,-0.120000000000
24.238286265000,-0.101000000000
24.245973456000,-0.132000000000
24.253660647000,-0.101000000000
24.261347838000,-0.074000000000
24.269035029000,-0.079000000000
24.276722220000,-0.067000000000
24.284409411000,-0.050000000000
24.292096602000,-0.048000000000
24.299783793000,-0.040000000000
24.307470984000,-0.028000000000
24.315158175000,-0.024000000000
24.322845366000,-0.016000000000
24.330532557000,-0.007000000000
24.338219748000,0.004000000000
24.345906939000,0.014000000000
24.353594130000,0.024000000000
24.361281321000,0.038000000000
24.368968512000,0.052000000000
24.376655703000,0.067000000000
24.384342894000,0.084000000000
24.392030085000,0.096000000000
24.399717276000,0.105000000000
24.407404467000,0.113000000000
24.415091658000,0.120000000000
24.422778849000,0.120000000000
24.430466040000,0.117000000000
24.438153231000,0.113000000000
24.445840422000,0.105000000000
24.453527613000,0.084000000000
24.461214804000,0.052000000000
24.468901995000,0.019000000000
24.476589186000,-0.019000000000
24.484276377000,-0.055000000000
24.491963568000,-0.086000000000
24.499650759000,-0.108000000000
24.507337950000,-0.120000000000
24.515025141000,-0.129000000000
24.522712332000,-0.132000000000
24.530399523000,-0.129000000000
24.538086714000,-0.127000000000
24.545773905000,-0.125000000000
24.553461096000,-0.120000000000
24.561148287000,-0.117000000000
24.568835478000,-0.117000000000
24.576522669000,-0.117000000000
24.584209860000,-0.115000000000
24.591897051000,-0.113000000000
24.599584242000,-0.110000000000
24.607271433000,-0.113000000000
24.614958665000,-0.113000000000
24.622646135000,-0.113000000000
24.630333605000,-0.113000000000
24.638021075000,-0.113000000000
24.645708545000,-0.113000000000
24.653396015000,-0.113000000000
24.661083485000,-0.110000000000
24.668770955000,-0.108000000000
24.676458425000,-0.108000000000
24.684145895000,-0.108000000000
24.691833365000,-0.105000000000
24.699520835000,-0.103000000000
24.707208305000,-0.101000000000
24.714895775000,-0.098000000000
24.722583245000,-0.093000000000
24.730270715000,-0.091000000000
24.737958185000,-0.086000000000
24.745645655000,-0.086000000000
24.753333125000,-0.086000000000
24.761020595000,-0.088000000000
24.768708065000,-0.096000000000
24.776395535000,-0.101000000000
24.784083005000,-0.101000000000
24.791770475000,-0.086000000000
24.799457945000,-0.074000000000
24.807145415000,-0.067000000000
24.814832885000,-0.050000000000
24.822520355000,-0.028000000000
24.830207825000,-0.033000000000
24.837895295000,-0.055000000000
24.845582765000,-0.060000000000
24.853270235000,-0.060000000000
24.860957705000,-0.062000000000
24.868645175000,-0.060000000000
24.876332645000,-0.057000000000
24.884020115000,-0.057000000000
24.891707585000,-0.074000000000
24.899395055000,-0.125000000000
24.907082525000,-0.122000000000
24.914769995000,0.202000000000
24.922457465000,0.834000000000
24.930144935000,1.144000000000
24.937832405000,0.642000000000
24.945519875000,-0.202000000000
24.953207345000,-0.478000000000
24.960894815000,-0.238000000000
24.968582285000,-0.177000000000
24.976269755000,-0.228000000000
24.983957225000,-0.132000000000
24.991644695000,-0.086000000000
24.999332165000,-0.120000000000
25.007019635000,-0.098000000000
25.014707105000,-0.069000000000
25.022394575000,-0.072000000000
25.030082045000,-0.062000000000
25.037769515000,-0.045000000000
25.045456985000,-0.040000000000
25.053144455000,-0.036000000000
25.060831925000,-0.026000000000
25.068519395000,-0.019000000000
25.076206865000,-0.014000000000
25.083894335000,-0.004000000000
25.091581805000,0.007000000000
25.099269275000,0.014000000000
25.106956745000,0.021000000000
25.114644215000,0.033000000000
25.122331685000,0.045000000000
25.130019155000,0.057000000000
25.137706625000,0.072000000000
25.145394095000,0.086000000000
25.153081565000,0.098000000000
25.160769035000,0.108000000000
25.168456505000,0.110000000000
25.176143993000,0.110000000000
25.183831532000,0.115000000000
25.191519071000,0.117000000000
25.199206610000,0.113000000000
25.206894149000,0.105000000000
25.214581688000,0.086000000000
25.222269227000,0.062000000000
25.229956766000,0.031000000000
25.237644305000,-0.007000000000
25.245331844000,-0.043000000000
25.253019383000,-0.069000000000
25.260706922000,-0.091000000000
25.268394461000,-0.105000000000
25.276082000000,-0.113000000000
25.283769539000,-0.117000000000
25.291457078000,-0.120000000000
25.299144617000,-0.117000000000
25.306832156000,-0.115000000000
25.314519695000,-0.113000000000
25.322207234000,-0.113000000000
25.329894773000,-0.113000000000
25.337582312000,-0.115000000000
25.345269851000,-0.115000000000
25.352957390000,-0.115000000000
25.360644929000,-0.113000000000
25.368332468000,-0.115000000000
25.376020007000,-0.117000000000
25.383707546000,-0.117000000000
25.391395085000,-0.117000000000
25.399082624000,-0.117000000000
25.406770163000,-0.117000000000
25.414457702000,-0.113000000000
25.422145241000,-0.113000000000
25.429832780000,-0.115000000000
25.437520319000,-0.110000000000
25.445207858000,-0.108000000000
25.452895397000,-0.110000000000
25.460582936000,-0.108000000000
25.468270475000,-0.101000000000
25.475958014000,-0.096000000000
25.483645553000,-0.096000000000
25.491333092000,-0.096000000000
25.499020631000,-0.093000000000
25.506708170000,-0.091000000000
25.514395709000,-0.088000000000
25.522083248000,-0.086000000000
25.529770787000,-0.081000000000
25.537458326000,-0.081000000000
25.545145865000,-0.088000000000
25.552833404000,-0.096000000000
25.560520943000,-0.091000000000
25.568208482000,-0.088000000000
25.575896021000,-0.084000000000
25.583583560000,-0.074000000000
25.591271099000,-0.069000000000
25.598958638000,-0.052000000000
25.606646177000,-0.028000000000
25.614333716000,-0.033000000000
25.622021255000,-0.057000000000
25.629708794000,-0.062000000000
25.637396333000,-0.062000000000
25.645083872000,-0.067000000000
25.652771411000,-0.062000000000
25.660458950000,-0.057000000000
25.668146489000,-0.060000000000
25.675834028000,-0.076000000000
25.683521567000,-0.120000000000
25.691209106000,-0.052000000000
25.698896645000,0.394000000000
25.706584184000,1.026000000000
25.714271723000,1.089000000000
25.721959262000,0.324000000000
25.729646801000,-0.488000000000
25.737334408000,-0.548000000000
25.745021529000,-0.252000000000
25.752708650000,-0.230000000000
25.760395771000,-0.233000000000
25.768082892000,-0.105000000000
25.775770013000,-0.081000000000
25.783457134000,-0.110000000000
25.791144255000,-0.076000000000
25.798831376000,-0.050000000000
25.806518497000,-0.055000000000
25.814205618000,-0.045000000000
25.821892739000,-0.028000000000
25.829579860000,-0.026000000000
25.837266981000,-0.024000000000
25.844954102000,-0.014000000000
25.852641223000,-0.007000000000
25.860328344000,0.002000000000
25.868015465000,0.014000000000
25.875702586000,0.021000000000
25.883389707000,0.026000000000
25.891076828000,0.038000000000
25.898763949000,0.055000000000
25.906451070000,0.069000000000
25.914138191000,0.081000000000
25.921825312000,0.098000000000
25.929512433000,0.113000000000
25.937199554000,0.125000000000
25.944886675000,0.132000000000
25.952573796000,0.137000000000
25.960260917000,0.139000000000
25.967948038000,0.141000000000
25.975635159000,0.139000000000
25.983322280000,0.134000000000
25.991009401000,0.117000000000
25.998696522000,0.091000000000
26.006383643000,0.052000000000
26.014070764000,0.007000000000
26.021757885000,-0.038000000000
26.029445006000,-0.076000000000
26.037132127000,-0.108000000000
26.044819248000,-0.127000000000
26.052506369000,-0.139000000000
26.060193490000,-0.144000000000
26.067880611000,-0.141000000000
26.075567732000,-0.137000000000
26.083254853000,-0.132000000000
26.090941974000,-0.129000000000
26.098629095000,-0.122000000000
26.106316216000,-0.117000000000
26.114003337000,-0.115000000000
26.121690458000,-0.117000000000
26.129377579000,-0.117000000000
26.137064700000,-0.122000000000
26.144751821000,-0.127000000000
26.152438942000,-0.127000000000
26.160126063000,-0.127000000000
26.167813184000,-0.132000000000
26.175500305000,-0.132000000000
26.183187426000,-0.129000000000
26.190874547000,-0.129000000000
26.198561668000,-0.129000000000
26.206248789000,-0.127000000000
26.213935910000,-0.127000000000
26.221623031000,-0.125000000000
26.229310152000,-0.125000000000
26.236997273000,-0.122000000000
26.244684394000,-0.120000000000
26.252371515000,-0.117000000000
26.260058636000,-0.117000000000
26.267745757000,-0.117000000000
26.275432878000,-0.117000000000
26.283119999000,-0.125000000000
26.290807120000,-0.127000000000
26.298494305000,-0.125000000000
26.306181844000,-0.115000000000
26.313869383000,-0.103000000000
26.321556922000,-0.096000000000
26.329244461000,-0.086000000000
26.336932000000,-0.060000000000
26.344619539000,-0.055000000000
26.352307078000,-0.076000000000
26.359994617000,-0.091000000000
26.367682156000,-0.086000000000
26.375369695000,-0.088000000000
26.383057234000,-0.088000000000
26.390744773000,-0.084000000000
26.398432312000,-0.084000000000
26.406119851000,-0.096000000000
26.413807390000,-0.134000000000
26.421494929000,-0.146000000000
26.429182468000,0.115000000000
26.436870007000,0.747000000000
26.444557546000,1.175000000000
26.452245085000,0.762000000000
26.459932624000,-0.175000000000
26.467620163000,-0.622000000000
26.475307702000,-0.382000000000
26.482995241000,-0.228000000000
26.490682780000,-0.276000000000
26.498370319000,-0.185000000000
26.506057858000,-0.103000000000
26.513745397000,-0.134000000000
26.521432936000,-0.125000000000
26.529120475000,-0.086000000000
26.536808014000,-0.084000000000
26.544495553000,-0.084000000000
26.552183092000,-0.064000000000
26.559870631000,-0.057000000000
26.567558170000,-0.055000000000
26.575245709000,-0.043000000000
26.582933248000,-0.036000000000
26.590620787000,-0.028000000000
26.598308326000,-0.019000000000
26.605995865000,-0.009000000000
26.613683404000,0.000000000000
26.621370943000,0.009000000000
26.629058482000,0.021000000000
26.636746021000,0.033000000000
26.644433560000,0.048000000000
26.652121099000,0.064000000000
26.659808638000,0.081000000000
26.667496177000,0.096000000000
26.675183716000,0.105000000000
26.682871255000,0.113000000000
26.690558794000,0.113000000000
26.698246333000,0.110000000000
26.705933872000,0.110000000000
26.713621411000,0.105000000000
26.721308950000,0.091000000000
26.728996489000,0.064000000000
26.736684028000,0.033000000000
26.744371567000,-0.009000000000
26.752059106000,-0.055000000000
26.759746645000,-0.098000000000
26.767434184000,-0.129000000000
26.775121723000,-0.151000000000
26.782809262000,-0.161000000000
26.790496801000,-0.165000000000
26.798184340000,-0.168000000000
26.805871879000,-0.165000000000
26.813559418000,-0.161000000000
26.821246957000,-0.158000000000
26.828934496000,-0.153000000000
26.836622035000,-0.151000000000
26.844309574000,-0.146000000000
26.851997113000,-0.144000000000
26.859684720000,-0.144000000000
26.867372259000,-0.144000000000
26.875059798000,-0.144000000000
26.882747337000,-0.144000000000
26.890434876000,-0.146000000000
26.898122415000,-0.149000000000
26.905809954000,-0.146000000000
26.913497493000,-0.146000000000
26.921185032000,-0.146000000000
26.928872571000,-0.146000000000
26.936560110000,-0.141000000000
26.944247649000,-0.139000000000
26.951935188000,-0.139000000000
26.959622727000,-0.134000000000
26.967310266000,-0.132000000000
26.974997805000,-0.129000000000
26.982685344000,-0.127000000000
26.990372883000,-0.122000000000
26.998060422000,-0.122000000000
27.005747961000,-0.120000000000
27.013435500000,-0.115000000000
27.021123039000,-0.110000000000
27.028810578000,-0.108000000000
27.036498117000,-0.105000000000
27.044185656000,-0.103000000000
27.051873195000,-0.101000000000
27.059560734000,-0.101000000000
27.067248273000,-0.098000000000
27.074935812000,-0.103000000000
27.082623351000,-0.110000000000
27.090310890000,-0.115000000000
27.097998429000,-0.113000000000
27.105685968000,-0.103000000000
27.113373507000,-0.086000000000
27.121061046000,-0.079000000000
27.128748585000,-0.067000000000
27.136436124000,-0.045000000000
27.144123663000,-0.043000000000
27.151811202000,-0.064000000000
27.159498741000,-0.074000000000
27.167186280000,-0.074000000000
27.174873819000,-0.074000000000
27.182561358000,-0.074000000000
27.190248897000,-0.069000000000
27.197936436000,-0.067000000000
27.205623975000,-0.081000000000
27.213311514000,-0.129000000000
27.220999053000,-0.134000000000
27.228686592000,0.168000000000
27.236374131000,0.805000000000
27.244061670000,1.183000000000
27.251749209000,0.755000000000
27.259436748000,-0.132000000000
27.267124287000,-0.512000000000
27.274811826000,-0.276000000000
27.282499365000,-0.177000000000
27.290186904000,-0.242000000000
27.297874443000,-0.156000000000
27.305561982000,-0.101000000000
27.313249521000,-0.134000000000
27.320937060000,-0.117000000000
27.328624599000,-0.081000000000
27.336312138000,-0.084000000000
27.343999677000,-0.076000000000
27.351687216000,-0.060000000000
27.359374755000,-0.055000000000
27.367062294000,-0.050000000000
27.374749833000,-0.040000000000
27.382437372000,-0.033000000000
27.390124911000,-0.024000000000
27.397812450000,-0.014000000000
27.405499989000,-0.007000000000
27.413187528000,0.002000000000
27.420875139000,0.014000000000
27.428562260000,0.024000000000
27.436249381000,0.033000000000
27.443936502000,0.045000000000
27.451623623000,0.057000000000
27.459310744000,0.069000000000
27.466997865000,0.081000000000
27.474684986000,0.091000000000
27.482372107000,0.096000000000
27.490059228000,0.096000000000
27.497746349000,0.096000000000
27.505433470000,0.096000000000
27.513120591000,0.096000000000
27.520807712000,0.088000000000
27.528494833000,0.076000000000
27.536181954000,0.055000000000
27.543869075000,0.026000000000
27.551556196000,-0.004000000000
27.559243317000,-0.038000000000
27.566930438000,-0.067000000000
27.574617559000,-0.091000000000
27.582304680000,-0.108000000000
27.589991801000,-0.117000000000
27.597678922000,-0.122000000000
27.605366043000,-0.122000000000
27.613053164000,-0.117000000000
27.620740285000,-0.115000000000
27.628427406000,-0.115000000000
27.636114527000,-0.115000000000
27.643801648000,-0.113000000000
27.651488769000,-0.113000000000
27.659175890000,-0.113000000000
27.666863011000,-0.113000000000
27.674550132000,-0.113000000000
27.682237253000,-0.113000000000
27.689924374000,-0.113000000000
27.697611495000,-0.115000000000
27.705298616000,-0.115000000000
27.712985737000,-0.115000000000
27.720672858000,-0.117000000000
27.728359979000,-0.115000000000
27.736047100000,-0.113000000000
27.743734221000,-0.113000000000
27.751421342000,-0.110000000000
27.759108463000,-0.108000000000
27.766795584000,-0.105000000000
27.774482705000,-0.103000000000
27.782169826000,-0.101000000000
27.789856947000,-0.098000000000
27.797544068000,-0.093000000000
27.805231189000,-0.093000000000
27.812918310000,-0.091000000000
27.820605431000,-0.086000000000
27.828292552000,-0.084000000000
27.835979673000,-0.081000000000
27.843666794000,-0.079000000000
27.851353915000,-0.079000000000
27.859041036000,-0.074000000000
27.866728157000,-0.072000000000
27.874415278000,-0.072000000000
27.882102399000,-0.072000000000
27.889789520000,-0.069000000000
27.897476641000,-0.072000000000
27.905163762000,-0.081000000000
27.912850883000,-0.086000000000
27.920538004000,-0.086000000000
27.928225125000,-0.081000000000
27.935912246000,-0.067000000000
27.943599367000,-0.055000000000
27.951286488000,-0.048000000000
27.958973609000,-0.031000000000
27.966660730000,-0.019000000000
27.974347851000,-0.033000000000
27.982035036000,-0.052000000000
27.989722575000,-0.052000000000
27.997410114000,-0.052000000000
28.005097653000,-0.057000000000
28.012785192000,-0.055000000000
28.020472731000,-0.048000000000
28.028160270000,-0.055000000000
28.035847809000,-0.084000000000
28.043535348000,-0.127000000000
28.051222887000,0.002000000000
28.058910426000,0.512000000000
28.066597965000,1.062000000000
28.074285504000,0.971000000000
28.081973043000,0.182000000000
28.089660582000,-0.466000000000
28.097348121000,-0.394000000000
28.105035660000,-0.175000000000
28.112723199000,-0.214000000000
28.120410738000,-0.182000000000
28.128098277000,-0.081000000000
28.135785816000,-0.093000000000
28.143473355000,-0.110000000000
28.151160894000,-0.069000000000
28.158848433000,-0.057000000000
28.166535972000,-0.060000000000
28.174223511000,-0.048000000000
28.181911050000,-0.036000000000
28.189598589000,-0.033000000000
28.197286128000,-0.026000000000
28.204973667000,-0.019000000000
28.212661206000,-0.012000000000
28.220348745000,-0.004000000000
28.228036284000,0.004000000000
28.235723823000,0.012000000000
28.243411362000,0.019000000000
28.251098901000,0.028000000000
28.258786440000,0.040000000000
28.266473979000,0.052000000000
28.274161518000,0.062000000000
28.281849057000,0.069000000000
28.289536596000,0.081000000000
28.297224135000,0.091000000000
28.304911674000,0.098000000000
28.312599213000,0.098000000000
28.320286752000,0.096000000000
28.327974291000,0.096000000000
28.335661830000,0.098000000000
28.343349369000,0.096000000000
28.351036908000,0.086000000000
28.358724447000,0.072000000000
28.366411986000,0.048000000000
28.374099525000,0.019000000000
28.381787064000,-0.012000000000
28.389474603000,-0.045000000000
28.397162142000,-0.069000000000
28.404849681000,-0.088000000000
28.412537220000,-0.103000000000
28.420224759000,-0.113000000000
28.427912298000,-0.117000000000
28.435599837000,-0.117000000000
28.443287376000,-0.115000000000
28.450974915000,-0.115000000000
28.458662454000,-0.113000000000
28.466349993000,-0.108000000000
28.474037532000,-0.108000000000
28.481725071000,-0.108000000000
28.489412610000,-0.108000000000
28.497100149000,-0.110000000000
28.504787688000,-0.110000000000
28.512475227000,-0.113000000000
28.520162766000,-0.113000000000
28.527850305000,-0.113000000000
28.535537844000,-0.113000000000
28.543225451000,-0.113000000000
28.550912572000,-0.113000000000
28.558599693000,-0.113000000000
28.566286814000,-0.108000000000
28.573973935000,-0.108000000000
28.581661056000,-0.108000000000
28.589348177000,-0.105000000000
28.597035298000,-0.105000000000
28.604722419000,-0.103000000000
28.612409540000,-0.098000000000
28.620096661000,-0.093000000000
28.627783782000,-0.093000000000
28.635470903000,-0.093000000000
28.643158024000,-0.091000000000
28.650845145000,-0.086000000000
28.658532266000,-0.084000000000
28.666219387000,-0.086000000000
28.673906508000,-0.084000000000
28.681593629000,-0.079000000000
28.689280750000,-0.074000000000
28.696967871000,-0.074000000000
28.704654992000,-0.074000000000
28.712342113000,-0.072000000000
28.720029234000,-0.072000000000
28.727716355000,-0.074000000000
28.735403476000,-0.081000000000
28.743090597000,-0.084000000000
28.750777718000,-0.081000000000
28.758464839000,-0.074000000000
28.766151960000,-0.062000000000
28.773839081000,-0.057000000000
28.781526202000,-0.045000000000
28.789213323000,-0.021000000000
28.796900444000,-0.019000000000
28.804587565000,-0.043000000000
28.812274686000,-0.057000000000
28.819961807000,-0.055000000000
28.827648928000,-0.055000000000
28.835336049000,-0.055000000000
28.843023170000,-0.045000000000
28.850710291000,-0.048000000000
28.858397412000,-0.064000000000
28.866084533000,-0.093000000000
28.873771654000,-0.067000000000
28.881458775000,0.266000000000
28.889145896000,0.892000000000
28.896833017000,1.113000000000
28.904520138000,0.478000000000
28.912207259000,-0.382000000000
28.919894380000,-0.589000000000
28.927581501000,-0.312000000000
28.935268622000,-0.223000000000
28.942955743000,-0.238000000000
28.950642864000,-0.122000000000
28.958329985000,-0.064000000000
28.966017106000,-0.093000000000
28.973704227000,-0.079000000000
28.981391348000,-0.048000000000
28.989078469000,-0.045000000000
28.996765590000,-0.038000000000
29.004452711000,-0.028000000000
29.012139832000,-0.024000000000
29.019826953000,-0.016000000000
29.027514074000,-0.007000000000
29.035201195000,0.004000000000
29.042888316000,0.009000000000
29.050575437000,0.014000000000
29.058262558000,0.024000000000
29.065949679000,0.036000000000
29.073636800000,0.040000000000
29.081323921000,0.048000000000
29.089011042000,0.060000000000
29.096698163000,0.076000000000
29.104385348000,0.093000000000
29.112072887000,0.108000000000
29.119760426000,0.120000000000
29.127447965000,0.127000000000
29.135135504000,0.134000000000
29.142823043000,0.141000000000
29.150510582000,0.146000000000
29.158198121000,0.146000000000
29.165885660000,0.146000000000
29.173573199000,0.139000000000
29.181260738000,0.117000000000
29.188948277000,0.084000000000
29.196635816000,0.048000000000
29.204323355000,0.004000000000
29.212010894000,-0.038000000000
29.219698433000,-0.074000000000
29.227385972000,-0.101000000000
29.235073511000,-0.120000000000
29.242761050000,-0.127000000000
29.250448589000,-0.129000000000
29.258136128000,-0.127000000000
29.265823667000,-0.125000000000
29.273511206000,-0.120000000000
29.281198745000,-0.115000000000
29.288886284000,-0.115000000000
29.296573823000,-0.117000000000
29.304261362000,-0.117000000000
29.311948901000,-0.120000000000
29.319636440000,-0.125000000000
29.327323979000,-0.127000000000
29.335011518000,-0.129000000000
29.342699057000,-0.129000000000
