time,LSB
0.000000000000,1.133000000000
0.007686425000,1.063000000000
0.015372850000,0.109000000000
0.023059275000,-0.642000000000
0.030745700000,-0.537000000000
0.038432125000,-0.277000000000
0.046118550000,-0.287000000000
0.053804975000,-0.216000000000
0.061491400000,-0.085000000000
0.069177825000,-0.090000000000
0.076864250000,-0.107000000000
0.084550675000,-0.072000000000
0.092237100000,-0.060000000000
0.099923525000,-0.063000000000
0.107609950000,-0.046000000000
0.115296375000,-0.031000000000
0.122982800000,-0.034000000000
0.130669225000,-0.031000000000
0.138355650000,-0.019000000000
0.146042075000,-0.009000000000
0.153728500000,0.000000000000
0.161414925000,0.007000000000
0.169101350000,0.017000000000
0.176787775000,0.029000000000
0.184474200000,0.038000000000
0.192160625000,0.051000000000
0.199847050000,0.068000000000
0.207533475000,0.082000000000
0.215219900000,0.102000000000
0.222906325000,0.124000000000
0.230592750000,0.145000000000
0.238279175000,0.165000000000
0.245965600000,0.184000000000
0.253652025000,0.201000000000
0.261338450000,0.214000000000
0.269024875000,0.218000000000
0.276711300000,0.209000000000
0.284397725000,0.192000000000
0.292084156000,0.165000000000
0.299770441000,0.114000000000
0.307456726000,0.048000000000
0.315143011000,-0.014000000000
0.322829296000,-0.082000000000
0.330515581000,-0.133000000000
0.338201866000,-0.165000000000
0.345888151000,-0.187000000000
0.353574436000,-0.199000000000
0.361260721000,-0.201000000000
0.368947006000,-0.201000000000
0.376633291000,-0.197000000000
0.384319576000,-0.184000000000
0.392005861000,-0.170000000000
0.399692146000,-0.163000000000
0.407378431000,-0.158000000000
0.415064716000,-0.148000000000
0.422751001000,-0.136000000000
0.430437286000,-0.124000000000
0.438123571000,-0.121000000000
0.445809856000,-0.124000000000
0.453496141000,-0.119000000000
0.461182426000,-0.116000000000
0.468868711000,-0.114000000000
0.476554996000,-0.111000000000
0.484241281000,-0.116000000000
0.491927566000,-0.124000000000
0.499613851000,-0.126000000000
0.507300136000,-0.124000000000
0.514986421000,-0.121000000000
0.522672706000,-0.121000000000
0.530358991000,-0.124000000000
0.538045276000,-0.124000000000
0.545731561000,-0.121000000000
0.553417846000,-0.121000000000
0.561104131000,-0.116000000000
0.568790416000,-0.109000000000
0.576476701000,-0.109000000000
0.584162986000,-0.114000000000
0.591849271000,-0.111000000000
0.599535556000,-0.114000000000
0.607221841000,-0.116000000000
0.614908126000,-0.114000000000
0.622594411000,-0.109000000000
0.630280696000,-0.107000000000
0.637966981000,-0.094000000000
0.645653266000,-0.072000000000
0.653339551000,-0.060000000000
0.661025836000,-0.058000000000
0.668712121000,-0.060000000000
0.676398406000,-0.075000000000
0.684084691000,-0.092000000000
0.691770976000,-0.094000000000
0.699457261000,-0.092000000000
0.707143546000,-0.092000000000
0.714829831000,-0.090000000000
0.722516116000,-0.085000000000
0.730202401000,-0.090000000000
0.737888686000,-0.114000000000
0.745574971000,-0.097000000000
0.753261256000,0.201000000000
0.760947541000,0.858000000000
0.768633826000,1.182000000000
0.776320111000,0.489000000000
0.784006396000,-0.537000000000
0.791692681000,-0.732000000000
0.799378966000,-0.374000000000
0.807065251000,-0.294000000000
0.814751536000,-0.301000000000
0.822437821000,-0.131000000000
0.830124106000,-0.058000000000
0.837810391000,-0.097000000000
0.845496676000,-0.075000000000
0.853183017000,-0.046000000000
0.860869720000,-0.058000000000
0.868556423000,-0.053000000000
0.876243126000,-0.031000000000
0.883929829000,-0.029000000000
0.891616532000,-0.026000000000
0.899303235000,-0.014000000000
0.906989938000,-0.009000000000
0.914676641000,-0.004000000000
0.922363344000,0.004000000000
0.930050047000,0.014000000000
0.937736750000,0.024000000000
0.945423453000,0.036000000000
0.953110156000,0.048000000000
0.960796859000,0.063000000000
0.968483562000,0.075000000000
0.976170265000,0.094000000000
0.983856968000,0.119000000000
0.991543671000,0.143000000000
0.999230374000,0.167000000000
1.006917077000,0.192000000000
1.014603780000,0.211000000000
1.022290483000,0.218000000000
1.029977186000,0.223000000000
1.037663889000,0.223000000000
1.045350592000,0.214000000000
1.053037295000,0.177000000000
1.060723998000,0.121000000000
1.068410701000,0.055000000000
1.076097404000,-0.012000000000
1.083784107000,-0.080000000000
1.091470810000,-0.131000000000
1.099157513000,-0.167000000000
1.106844216000,-0.194000000000
1.114530919000,-0.211000000000
1.122217622000,-0.216000000000
1.129904325000,-0.216000000000
1.137591028000,-0.206000000000
1.145277731000,-0.197000000000
1.152964434000,-0.189000000000
1.160651137000,-0.177000000000
1.168337840000,-0.160000000000
1.176024543000,-0.150000000000
1.183711246000,-0.143000000000
1.191397949000,-0.133000000000
1.199084652000,-0.126000000000
1.206771355000,-0.121000000000
1.214458058000,-0.119000000000
1.222144761000,-0.119000000000
1.229831464000,-0.124000000000
1.237518167000,-0.124000000000
1.245204870000,-0.121000000000
1.252891573000,-0.121000000000
1.260578276000,-0.126000000000
1.268264979000,-0.128000000000
1.275951682000,-0.126000000000
1.283638385000,-0.126000000000
1.291325088000,-0.124000000000
1.299011791000,-0.124000000000
1.306698494000,-0.124000000000
1.314385197000,-0.119000000000
1.322071900000,-0.116000000000
1.329758603000,-0.119000000000
1.337445306000,-0.116000000000
1.345132009000,-0.111000000000
1.352818712000,-0.109000000000
1.360505415000,-0.111000000000
1.368192118000,-0.107000000000
1.375878821000,-0.102000000000
1.383565524000,-0.102000000000
1.391252227000,-0.102000000000
1.398938930000,-0.102000000000
1.406625633000,-0.109000000000
1.414312400000,-0.114000000000
1.421998685000,-0.116000000000
1.429684970000,-0.116000000000
1.437371255000,-0.107000000000
1.445057540000,-0.080000000000
1.452743825000,-0.060000000000
1.460430110000,-0.060000000000
1.468116395000,-0.058000000000
1.475802680000,-0.058000000000
1.483488965000,-0.077000000000
1.491175250000,-0.092000000000
1.498861535000,-0.087000000000
1.506547820000,-0.087000000000
1.514234105000,-0.087000000000
1.521920390000,-0.082000000000
1.529606675000,-0.082000000000
1.537292960000,-0.102000000000
1.544979245000,-0.160000000000
1.552665530000,-0.131000000000
1.560351815000,0.296000000000
1.568038100000,1.039000000000
1.575724385000,1.301000000000
1.583410670000,0.557000000000
1.591096955000,-0.430000000000
1.598783240000,-0.569000000000
1.606469525000,-0.243000000000
1.614155810000,-0.221000000000
1.621842095000,-0.245000000000
1.629528380000,-0.126000000000
1.637214665000,-0.109000000000
1.644900950000,-0.145000000000
1.652587235000,-0.111000000000
1.660273520000,-0.087000000000
1.667959805000,-0.094000000000
1.675646090000,-0.082000000000
1.683332375000,-0.070000000000
1.691018660000,-0.068000000000
1.698704945000,-0.060000000000
1.706391230000,-0.051000000000
1.714077515000,-0.046000000000
1.721763800000,-0.038000000000
1.729450085000,-0.026000000000
1.737136370000,-0.019000000000
1.744822655000,-0.017000000000
1.752508940000,-0.007000000000
1.760195225000,0.012000000000
1.767881510000,0.024000000000
1.775567795000,0.034000000000
1.783254080000,0.053000000000
1.790940365000,0.075000000000
1.798626650000,0.097000000000
1.806312935000,0.116000000000
1.813999220000,0.136000000000
1.821685505000,0.158000000000
1.829371790000,0.172000000000
1.837058075000,0.180000000000
1.844744360000,0.182000000000
1.852430645000,0.175000000000
1.860116930000,0.153000000000
1.867803215000,0.107000000000
1.875489500000,0.048000000000
1.883175785000,-0.012000000000
1.890862070000,-0.070000000000
1.898548355000,-0.116000000000
1.906234640000,-0.148000000000
1.913920925000,-0.163000000000
1.921607210000,-0.175000000000
1.929293495000,-0.180000000000
1.936979780000,-0.175000000000
1.944666065000,-0.170000000000
1.952352350000,-0.170000000000
1.960038635000,-0.167000000000
1.967724920000,-0.160000000000
1.975411261000,-0.153000000000
1.983097964000,-0.145000000000
1.990784667000,-0.141000000000
1.998471370000,-0.138000000000
2.006158073000,-0.133000000000
2.013844776000,-0.131000000000
2.021531479000,-0.131000000000
2.029218182000,-0.131000000000
2.036904885000,-0.128000000000
2.044591588000,-0.124000000000
2.052278291000,-0.126000000000
2.059964994000,-0.126000000000
2.067651697000,-0.119000000000
2.075338400000,-0.121000000000
2.083025103000,-0.126000000000
2.090711806000,-0.124000000000
2.098398509000,-0.119000000000
2.106085212000,-0.121000000000
2.113771915000,-0.119000000000
2.121458618000,-0.114000000000
2.129145321000,-0.116000000000
2.136832024000,-0.116000000000
2.144518727000,-0.114000000000
2.152205430000,-0.114000000000
2.159892133000,-0.111000000000
2.167578836000,-0.109000000000
2.175265539000,-0.107000000000
2.182952242000,-0.104000000000
2.190638945000,-0.102000000000
2.198325648000,-0.102000000000
2.206012351000,-0.099000000000
2.213699054000,-0.097000000000
2.221385757000,-0.094000000000
2.229072460000,-0.092000000000
2.236759163000,-0.087000000000
2.244445866000,-0.087000000000
2.252132569000,-0.090000000000
2.259819272000,-0.090000000000
2.267505975000,-0.087000000000
2.275192678000,-0.085000000000
2.282879381000,-0.085000000000
2.290566084000,-0.082000000000
2.298252787000,-0.080000000000
2.305939490000,-0.085000000000
2.313626193000,-0.092000000000
2.321312896000,-0.097000000000
2.328999599000,-0.092000000000
2.336686302000,-0.082000000000
2.344373005000,-0.063000000000
2.352059708000,-0.046000000000
2.359746411000,-0.046000000000
2.367433114000,-0.046000000000
2.375119817000,-0.038000000000
2.382806520000,-0.055000000000
2.390493223000,-0.077000000000
2.398179926000,-0.077000000000
2.405866629000,-0.072000000000
2.413553332000,-0.075000000000
2.421240035000,-0.077000000000
2.428926738000,-0.072000000000
2.436613441000,-0.077000000000
2.444300144000,-0.116000000000
2.451986847000,-0.163000000000
2.459673550000,0.031000000000
2.467360253000,0.669000000000
2.475046956000,1.262000000000
2.482733659000,1.014000000000
2.490420362000,0.017000000000
2.498107065000,-0.608000000000
2.505793768000,-0.401000000000
2.513480471000,-0.192000000000
2.521167174000,-0.253000000000
2.528853877000,-0.187000000000
2.536540640000,-0.097000000000
2.544226925000,-0.131000000000
2.551913210000,-0.131000000000
2.559599495000,-0.087000000000
2.567285780000,-0.087000000000
2.574972065000,-0.090000000000
2.582658350000,-0.072000000000
2.590344635000,-0.060000000000
2.598030920000,-0.060000000000
2.605717205000,-0.058000000000
2.613403490000,-0.048000000000
2.621089775000,-0.041000000000
2.628776060000,-0.034000000000
2.636462345000,-0.029000000000
2.644148630000,-0.021000000000
2.651834915000,-0.009000000000
2.659521200000,0.002000000000
2.667207485000,0.012000000000
2.674893770000,0.021000000000
2.682580055000,0.036000000000
2.690266340000,0.055000000000
2.697952625000,0.075000000000
2.705638910000,0.094000000000
2.713325195000,0.119000000000
2.721011480000,0.141000000000
2.728697765000,0.158000000000
2.736384050000,0.167000000000
2.744070335000,0.175000000000
2.751756620000,0.175000000000
2.759442905000,0.167000000000
2.767129190000,0.143000000000
2.774815475000,0.097000000000
2.782501760000,0.038000000000
2.790188045000,-0.019000000000
2.797874330000,-0.072000000000
2.805560615000,-0.116000000000
2.813246900000,-0.148000000000
2.820933185000,-0.167000000000
2.828619470000,-0.177000000000
2.836305755000,-0.180000000000
2.843992040000,-0.175000000000
2.851678325000,-0.170000000000
2.859364610000,-0.170000000000
2.867050895000,-0.165000000000
2.874737180000,-0.155000000000
2.882423465000,-0.150000000000
2.890109750000,-0.148000000000
2.897796035000,-0.143000000000
2.905482320000,-0.138000000000
2.913168605000,-0.138000000000
2.920854890000,-0.138000000000
2.928541175000,-0.133000000000
2.936227460000,-0.131000000000
2.943913745000,-0.131000000000
2.951600030000,-0.131000000000
2.959286315000,-0.128000000000
2.966972600000,-0.126000000000
2.974658885000,-0.128000000000
2.982345170000,-0.131000000000
2.990031455000,-0.131000000000
2.997717740000,-0.128000000000
3.005404025000,-0.124000000000
3.013090310000,-0.124000000000
3.020776595000,-0.126000000000
3.028462880000,-0.124000000000
3.036149165000,-0.116000000000
3.043835450000,-0.116000000000
3.051521735000,-0.119000000000
3.059208020000,-0.116000000000
3.066894305000,-0.114000000000
3.074580590000,-0.109000000000
3.082266875000,-0.107000000000
3.089953160000,-0.109000000000
3.097639501000,-0.104000000000
3.105326135000,-0.102000000000
3.113012769000,-0.102000000000
3.120699403000,-0.099000000000
3.128386037000,-0.099000000000
3.136072671000,-0.102000000000
3.143759305000,-0.102000000000
3.151445939000,-0.097000000000
3.159132573000,-0.092000000000
3.166819207000,-0.092000000000
3.174505841000,-0.092000000000
3.182192475000,-0.090000000000
3.189879109000,-0.087000000000
3.197565743000,-0.087000000000
3.205252377000,-0.087000000000
3.212939011000,-0.087000000000
3.220625645000,-0.085000000000
3.228312279000,-0.085000000000
3.235998913000,-0.082000000000
3.243685547000,-0.080000000000
3.251372181000,-0.077000000000
3.259058815000,-0.075000000000
3.266745449000,-0.072000000000
3.274432083000,-0.075000000000
3.282118717000,-0.080000000000
3.289805351000,-0.077000000000
3.297491985000,-0.070000000000
3.305178619000,-0.065000000000
3.312865253000,-0.070000000000
3.320551887000,-0.072000000000
3.328238521000,-0.075000000000
3.335925155000,-0.080000000000
3.343611789000,-0.080000000000
3.351298423000,-0.077000000000
3.358985057000,-0.068000000000
3.366671691000,-0.051000000000
3.374358325000,-0.041000000000
3.382044959000,-0.038000000000
3.389731593000,-0.029000000000
3.397418227000,-0.036000000000
3.405104861000,-0.058000000000
3.412791495000,-0.065000000000
3.420478129000,-0.063000000000
3.428164763000,-0.068000000000
3.435851397000,-0.068000000000
3.443538031000,-0.065000000000
3.451224665000,-0.063000000000
3.458911299000,-0.082000000000
3.466597933000,-0.131000000000
3.474284567000,-0.065000000000
3.481971201000,0.389000000000
3.489657835000,1.077000000000
3.497344469000,1.199000000000
3.505031103000,0.384000000000
3.512717737000,-0.496000000000
3.520404371000,-0.557000000000
3.528091005000,-0.262000000000
3.535777639000,-0.243000000000
3.543464273000,-0.226000000000
3.551150907000,-0.099000000000
3.558837541000,-0.092000000000
3.566524175000,-0.124000000000
3.574210809000,-0.087000000000
3.581897443000,-0.065000000000
3.589584077000,-0.075000000000
3.597270711000,-0.063000000000
3.604957345000,-0.046000000000
3.612643979000,-0.046000000000
3.620330613000,-0.043000000000
3.628017247000,-0.036000000000
3.635703881000,-0.026000000000
3.643390515000,-0.017000000000
3.651077149000,-0.009000000000
3.658763797000,-0.002000000000
3.666450152000,0.007000000000
3.674136507000,0.017000000000
3.681822862000,0.021000000000
3.689509217000,0.031000000000
3.697195572000,0.051000000000
3.704881927000,0.068000000000
3.712568282000,0.082000000000
3.720254637000,0.102000000000
3.727940992000,0.124000000000
3.735627347000,0.143000000000
3.743313702000,0.163000000000
3.751000057000,0.175000000000
3.758686412000,0.180000000000
3.766372767000,0.182000000000
3.774059122000,0.182000000000
3.781745477000,0.170000000000
3.789431832000,0.143000000000
3.797118187000,0.092000000000
3.804804542000,0.031000000000
3.812490897000,-0.029000000000
3.820177252000,-0.077000000000
3.827863607000,-0.121000000000
3.835549962000,-0.155000000000
3.843236317000,-0.175000000000
3.850922672000,-0.182000000000
3.858609027000,-0.187000000000
3.866295382000,-0.189000000000
3.873981737000,-0.182000000000
3.881668092000,-0.170000000000
3.889354447000,-0.165000000000
3.897040802000,-0.163000000000
3.904727157000,-0.150000000000
3.912413512000,-0.138000000000
3.920099867000,-0.133000000000
3.927786222000,-0.126000000000
3.935472577000,-0.119000000000
3.943158932000,-0.116000000000
3.950845287000,-0.116000000000
3.958531642000,-0.119000000000
3.966217997000,-0.121000000000
3.973904352000,-0.119000000000
3.981590707000,-0.119000000000
3.989277062000,-0.121000000000
3.996963417000,-0.124000000000
4.004649772000,-0.124000000000
4.012336127000,-0.124000000000
4.020022482000,-0.124000000000
4.027708837000,-0.124000000000
4.035395192000,-0.126000000000
4.043081547000,-0.126000000000
4.050767902000,-0.121000000000
4.058454257000,-0.116000000000
4.066140612000,-0.119000000000
4.073826967000,-0.119000000000
4.081513322000,-0.116000000000
4.089199677000,-0.114000000000
4.096886032000,-0.111000000000
4.104572387000,-0.111000000000
4.112258742000,-0.107000000000
4.119945097000,-0.107000000000
4.127631452000,-0.107000000000
4.135317807000,-0.104000000000
4.143004162000,-0.102000000000
4.150690517000,-0.102000000000
4.158376872000,-0.099000000000
4.166063227000,-0.097000000000
4.173749582000,-0.097000000000
4.181435937000,-0.104000000000
4.189122292000,-0.104000000000
4.196808647000,-0.107000000000
4.204495002000,-0.107000000000
4.212181357000,-0.094000000000
4.219867741000,-0.070000000000
4.227554026000,-0.060000000000
4.235240311000,-0.060000000000
4.242926596000,-0.053000000000
4.250612881000,-0.058000000000
4.258299166000,-0.080000000000
4.265985451000,-0.090000000000
4.273671736000,-0.085000000000
4.281358021000,-0.090000000000
4.289044306000,-0.090000000000
4.296730591000,-0.080000000000
4.304416876000,-0.080000000000
4.312103161000,-0.099000000000
4.319789446000,-0.138000000000
4.327475731000,-0.060000000000
4.335162016000,0.416000000000
4.342848301000,1.085000000000
4.350534586000,1.094000000000
4.358220871000,0.177000000000
4.365907156000,-0.642000000000
4.373593441000,-0.574000000000
4.381279726000,-0.274000000000
4.388966011000,-0.282000000000
4.396652296000,-0.228000000000
4.404338581000,-0.085000000000
4.412024866000,-0.090000000000
4.419711151000,-0.119000000000
4.427397436000,-0.077000000000
4.435083721000,-0.063000000000
4.442770006000,-0.072000000000
4.450456291000,-0.058000000000
4.458142576000,-0.043000000000
4.465828861000,-0.043000000000
4.473515146000,-0.038000000000
4.481201431000,-0.026000000000
4.488887716000,-0.021000000000
4.496574001000,-0.017000000000
4.504260286000,-0.009000000000
4.511946571000,-0.002000000000
4.519632856000,0.007000000000
4.527319141000,0.017000000000
4.535005426000,0.029000000000
4.542691711000,0.041000000000
4.550377996000,0.055000000000
4.558064281000,0.072000000000
4.565750566000,0.097000000000
4.573436851000,0.119000000000
4.581123136000,0.145000000000
4.588809421000,0.167000000000
4.596495706000,0.184000000000
4.604181991000,0.197000000000
4.611868276000,0.204000000000
4.619554561000,0.206000000000
4.627240846000,0.199000000000
4.634927131000,0.167000000000
4.642613416000,0.111000000000
4.650299701000,0.046000000000
4.657985986000,-0.017000000000
4.665672271000,-0.077000000000
4.673358556000,-0.128000000000
4.681044841000,-0.163000000000
4.688731126000,-0.189000000000
4.696417411000,-0.204000000000
4.704103696000,-0.209000000000
4.711789981000,-0.209000000000
4.719476266000,-0.204000000000
4.727162551000,-0.199000000000
4.734848836000,-0.189000000000
4.742535121000,-0.177000000000
4.750221406000,-0.165000000000
4.757907691000,-0.155000000000
4.765593976000,-0.148000000000
4.773280261000,-0.138000000000
4.780966606000,-0.131000000000
4.788653309000,-0.128000000000
4.796340012000,-0.128000000000
4.804026715000,-0.126000000000
4.811713418000,-0.121000000000
4.819400121000,-0.119000000000
4.827086824000,-0.121000000000
4.834773527000,-0.121000000000
4.842460230000,-0.124000000000
4.850146933000,-0.124000000000
4.857833636000,-0.124000000000
4.865520339000,-0.124000000000
4.873207042000,-0.124000000000
4.880893745000,-0.124000000000
4.888580448000,-0.124000000000
4.896267151000,-0.121000000000
4.903953854000,-0.119000000000
4.911640557000,-0.119000000000
4.919327260000,-0.119000000000
4.927013963000,-0.114000000000
4.934700666000,-0.111000000000
4.942387369000,-0.111000000000
4.950074072000,-0.109000000000
4.957760775000,-0.109000000000
4.965447478000,-0.107000000000
4.973134181000,-0.102000000000
4.980820884000,-0.102000000000
4.988507587000,-0.102000000000
4.996194290000,-0.099000000000
5.003880993000,-0.094000000000
5.011567696000,-0.092000000000
5.019254399000,-0.092000000000
5.026941102000,-0.092000000000
5.034627805000,-0.090000000000
5.042314508000,-0.087000000000
5.050001211000,-0.087000000000
5.057687914000,-0.087000000000
5.065374617000,-0.082000000000
5.073061320000,-0.082000000000
5.080748023000,-0.082000000000
5.088434726000,-0.080000000000
5.096121429000,-0.080000000000
5.103808132000,-0.080000000000
5.111494835000,-0.080000000000
5.119181538000,-0.077000000000
5.126868241000,-0.075000000000
5.134554944000,-0.075000000000
5.142241647000,-0.075000000000
5.149928350000,-0.075000000000
5.157615053000,-0.075000000000
5.165301756000,-0.075000000000
5.172988459000,-0.070000000000
5.180675162000,-0.070000000000
5.188361865000,-0.070000000000
5.196048568000,-0.070000000000
5.203735271000,-0.075000000000
5.211421974000,-0.082000000000
5.219108677000,-0.087000000000
5.226795380000,-0.090000000000
5.234482083000,-0.085000000000
5.242168786000,-0.065000000000
5.249855489000,-0.048000000000
5.257542192000,-0.046000000000
5.265228895000,-0.041000000000
5.272915598000,-0.031000000000
5.280602301000,-0.043000000000
5.288289004000,-0.065000000000
5.295975707000,-0.070000000000
5.303662410000,-0.068000000000
5.311349113000,-0.068000000000
5.319035816000,-0.068000000000
5.326722519000,-0.065000000000
5.334409222000,-0.072000000000
5.342095985000,-0.111000000000
5.349782270000,-0.170000000000
5.357468555000,-0.009000000000
5.365154840000,0.610000000000
5.372841125000,1.260000000000
5.380527410000,1.124000000000
5.388213695000,0.155000000000
5.395899980000,-0.552000000000
5.403586265000,-0.403000000000
5.411272550000,-0.184000000000
5.418958835000,-0.248000000000
5.426645120000,-0.197000000000
5.434331405000,-0.104000000000
5.442017690000,-0.131000000000
5.449703975000,-0.138000000000
5.457390260000,-0.097000000000
5.465076545000,-0.094000000000
5.472762830000,-0.097000000000
5.480449115000,-0.080000000000
5.488135400000,-0.072000000000
5.495821685000,-0.070000000000
5.503507970000,-0.060000000000
5.511194255000,-0.053000000000
5.518880540000,-0.046000000000
5.526566825000,-0.041000000000
5.534253110000,-0.034000000000
5.541939395000,-0.024000000000
5.549625680000,-0.014000000000
5.557311965000,-0.007000000000
5.564998250000,0.002000000000
5.572684535000,0.012000000000
5.580370820000,0.024000000000
5.588057105000,0.038000000000
5.595743390000,0.055000000000
5.603429675000,0.075000000000
5.611115960000,0.097000000000
5.618802245000,0.119000000000
5.626488530000,0.136000000000
5.634174815000,0.150000000000
5.641861100000,0.165000000000
5.649547385000,0.170000000000
5.657233670000,0.167000000000
5.664919955000,0.155000000000
5.672606240000,0.124000000000
5.680292525000,0.075000000000
5.687978810000,0.021000000000
5.695665095000,-0.031000000000
5.703351380000,-0.080000000000
5.711037665000,-0.119000000000
5.718723950000,-0.145000000000
5.726410235000,-0.163000000000
5.734096520000,-0.167000000000
5.741782805000,-0.167000000000
5.749469090000,-0.170000000000
5.757155375000,-0.167000000000
5.764841660000,-0.160000000000
5.772527945000,-0.153000000000
5.780214230000,-0.148000000000
5.787900515000,-0.141000000000
5.795586800000,-0.138000000000
5.803273085000,-0.133000000000
5.810959370000,-0.128000000000
5.818645655000,-0.126000000000
5.826331940000,-0.126000000000
5.834018225000,-0.121000000000
5.841704510000,-0.119000000000
5.849390795000,-0.121000000000
5.857077080000,-0.121000000000
5.864763365000,-0.119000000000
5.872449650000,-0.119000000000
5.880135935000,-0.116000000000
5.887822220000,-0.116000000000
5.895508505000,-0.119000000000
5.903194846000,-0.116000000000
5.910881131000,-0.116000000000
5.918567416000,-0.119000000000
5.926253701000,-0.116000000000
5.933939986000,-0.111000000000
5.941626271000,-0.111000000000
5.949312556000,-0.111000000000
5.956998841000,-0.109000000000
5.964685126000,-0.109000000000
5.972371411000,-0.107000000000
5.980057696000,-0.104000000000
5.987743981000,-0.102000000000
5.995430266000,-0.099000000000
6.003116551000,-0.099000000000
6.010802836000,-0.094000000000
6.018489121000,-0.094000000000
6.026175406000,-0.094000000000
6.033861691000,-0.092000000000
6.041547976000,-0.090000000000
6.049234261000,-0.087000000000
6.056920546000,-0.087000000000
6.064606831000,-0.087000000000
6.072293116000,-0.087000000000
6.079979401000,-0.085000000000
6.087665686000,-0.082000000000
6.095351971000,-0.080000000000
6.103038256000,-0.080000000000
6.110724541000,-0.080000000000
6.118410826000,-0.080000000000
6.126097111000,-0.077000000000
6.133783396000,-0.077000000000
6.141469681000,-0.075000000000
6.149155966000,-0.075000000000
6.156842251000,-0.075000000000
6.164528536000,-0.075000000000
6.172214821000,-0.075000000000
6.179901106000,-0.072000000000
6.187587391000,-0.070000000000
6.195273676000,-0.070000000000
6.202959961000,-0.070000000000
6.210646246000,-0.070000000000
6.218332531000,-0.070000000000
6.226018816000,-0.070000000000
6.233705101000,-0.068000000000
6.241391386000,-0.065000000000
6.249077671000,-0.068000000000
6.256763956000,-0.068000000000
6.264450241000,-0.068000000000
6.272136526000,-0.065000000000
6.279822811000,-0.063000000000
6.287509096000,-0.063000000000
6.295195381000,-0.065000000000
6.302881666000,-0.065000000000
6.310567951000,-0.063000000000
6.318254236000,-0.063000000000
6.325940521000,-0.063000000000
6.333626806000,-0.063000000000
6.341313091000,-0.060000000000
6.348999376000,-0.060000000000
6.356685661000,-0.063000000000
6.364371946000,-0.070000000000
6.372058231000,-0.072000000000
6.379744516000,-0.072000000000
6.387430801000,-0.070000000000
6.395117086000,-0.058000000000
6.402803371000,-0.043000000000
6.410489656000,-0.036000000000
6.418175941000,-0.029000000000
6.425862226000,-0.024000000000
6.433548511000,-0.038000000000
6.441234796000,-0.060000000000
6.448921081000,-0.060000000000
6.456607366000,-0.058000000000
6.464293707000,-0.060000000000
6.471980410000,-0.060000000000
6.479667113000,-0.060000000000
6.487353816000,-0.070000000000
6.495040519000,-0.114000000000
6.502727222000,-0.153000000000
6.510413925000,0.087000000000
6.518100628000,0.759000000000
6.525787331000,1.292000000000
6.533474034000,0.946000000000
6.541160737000,-0.058000000000
6.548847440000,-0.588000000000
6.556534143000,-0.347000000000
6.564220846000,-0.182000000000
6.571907549000,-0.248000000000
6.579594252000,-0.165000000000
6.587280955000,-0.092000000000
6.594967658000,-0.131000000000
6.602654361000,-0.121000000000
6.610341064000,-0.082000000000
6.618027767000,-0.085000000000
6.625714470000,-0.085000000000
6.633401173000,-0.068000000000
6.641087876000,-0.063000000000
6.648774579000,-0.060000000000
6.656461282000,-0.048000000000
6.664147985000,-0.041000000000
6.671834688000,-0.041000000000
6.679521391000,-0.034000000000
6.687208094000,-0.026000000000
6.694894797000,-0.019000000000
6.702581500000,-0.009000000000
6.710268203000,0.000000000000
6.717954906000,0.007000000000
6.725641609000,0.017000000000
6.733328312000,0.026000000000
6.741015015000,0.041000000000
6.748701718000,0.058000000000
6.756388421000,0.077000000000
6.764075124000,0.094000000000
6.771761827000,0.114000000000
6.779448530000,0.128000000000
6.787135233000,0.141000000000
6.794821936000,0.148000000000
6.802508639000,0.150000000000
6.810195342000,0.150000000000
6.817882045000,0.138000000000
6.825568748000,0.114000000000
6.833255451000,0.075000000000
6.840942154000,0.026000000000
6.848628857000,-0.026000000000
6.856315560000,-0.072000000000
6.864002263000,-0.109000000000
6.871688966000,-0.136000000000
6.879375669000,-0.155000000000
6.887062372000,-0.160000000000
6.894749075000,-0.160000000000
6.902435778000,-0.165000000000
6.910122481000,-0.167000000000
6.917809184000,-0.160000000000
6.925495887000,-0.153000000000
6.933182590000,-0.148000000000
6.940869293000,-0.141000000000
6.948555996000,-0.133000000000
6.956242699000,-0.131000000000
6.963929402000,-0.128000000000
6.971616105000,-0.126000000000
6.979302808000,-0.121000000000
6.986989511000,-0.121000000000
6.994676214000,-0.121000000000
7.002362917000,-0.119000000000
7.010049620000,-0.119000000000
7.017736323000,-0.119000000000
7.025423086000,-0.119000000000
7.033109371000,-0.116000000000
7.040795656000,-0.114000000000
7.048481941000,-0.114000000000
7.056168226000,-0.121000000000
7.063854511000,-0.121000000000
7.071540796000,-0.116000000000
7.079227081000,-0.111000000000
7.086913366000,-0.114000000000
7.094599651000,-0.116000000000
7.102285936000,-0.114000000000
7.109972221000,-0.111000000000
7.117658506000,-0.109000000000
7.125344791000,-0.104000000000
7.133031076000,-0.102000000000
7.140717361000,-0.102000000000
7.148403646000,-0.102000000000
7.156089931000,-0.102000000000
7.163776216000,-0.099000000000
7.171462501000,-0.099000000000
7.179148786000,-0.094000000000
7.186835071000,-0.092000000000
7.194521356000,-0.092000000000
7.202207641000,-0.090000000000
7.209893926000,-0.085000000000
7.217580211000,-0.085000000000
7.225266496000,-0.090000000000
7.232952781000,-0.092000000000
7.240639066000,-0.087000000000
7.248325351000,-0.085000000000
7.256011636000,-0.082000000000
7.263697921000,-0.082000000000
7.271384206000,-0.077000000000
7.279070491000,-0.077000000000
7.286756776000,-0.077000000000
7.294443061000,-0.080000000000
7.302129346000,-0.072000000000
7.309815631000,-0.068000000000
7.317501916000,-0.072000000000
7.325188201000,-0.075000000000
7.332874486000,-0.070000000000
7.340560771000,-0.068000000000
7.348247056000,-0.070000000000
7.355933341000,-0.068000000000
7.363619626000,-0.065000000000
7.371305911000,-0.068000000000
7.378992196000,-0.072000000000
7.386678481000,-0.077000000000
7.394364766000,-0.082000000000
7.402051051000,-0.075000000000
7.409737336000,-0.065000000000
7.417423621000,-0.048000000000
7.425109906000,-0.031000000000
7.432796191000,-0.031000000000
7.440482476000,-0.029000000000
7.448168761000,-0.031000000000
7.455855046000,-0.051000000000
7.463541331000,-0.063000000000
7.471227616000,-0.063000000000
7.478913901000,-0.063000000000
7.486600186000,-0.063000000000
7.494286471000,-0.060000000000
7.501972756000,-0.063000000000
7.509659041000,-0.085000000000
7.517345326000,-0.119000000000
7.525031611000,0.000000000000
7.532717896000,0.525000000000
7.540404181000,1.167000000000
7.548090466000,1.082000000000
7.555776751000,0.126000000000
7.563463036000,-0.627000000000
7.571149321000,-0.506000000000
7.578835606000,-0.236000000000
7.586521947000,-0.262000000000
7.594208650000,-0.201000000000
7.601895353000,-0.075000000000
7.609582056000,-0.090000000000
7.617268759000,-0.107000000000
7.624955462000,-0.063000000000
7.632642165000,-0.055000000000
7.640328868000,-0.068000000000
7.648015571000,-0.053000000000
7.655702274000,-0.036000000000
7.663388977000,-0.036000000000
7.671075680000,-0.031000000000
7.678762383000,-0.019000000000
7.686449086000,-0.012000000000
7.694135789000,-0.009000000000
7.701822492000,-0.002000000000
7.709509195000,0.007000000000
7.717195898000,0.014000000000
7.724882601000,0.026000000000
7.732569304000,0.041000000000
7.740256007000,0.051000000000
7.747942710000,0.065000000000
7.755629413000,0.082000000000
7.763316116000,0.097000000000
7.771002819000,0.116000000000
7.778689522000,0.141000000000
7.786376225000,0.160000000000
7.794062928000,0.172000000000
7.801749631000,0.180000000000
7.809436334000,0.187000000000
7.817123037000,0.192000000000
7.824809740000,0.187000000000
7.832496443000,0.170000000000
7.840183146000,0.143000000000
7.847869849000,0.094000000000
7.855556552000,0.034000000000
7.863243255000,-0.024000000000
7.870929958000,-0.077000000000
7.878616661000,-0.126000000000
7.886303364000,-0.163000000000
7.893990067000,-0.182000000000
7.901676770000,-0.194000000000
7.909363473000,-0.197000000000
7.917050176000,-0.194000000000
7.924736879000,-0.187000000000
7.932423582000,-0.175000000000
7.940110285000,-0.167000000000
7.947796988000,-0.160000000000
7.955483691000,-0.148000000000
7.963170394000,-0.138000000000
7.970857097000,-0.133000000000
7.978543800000,-0.128000000000
7.986230503000,-0.121000000000
7.993917206000,-0.119000000000
8.001603909000,-0.119000000000
8.009290612000,-0.114000000000
8.016977315000,-0.114000000000
8.024664018000,-0.119000000000
8.032350721000,-0.121000000000
8.040037424000,-0.121000000000
8.047724127000,-0.124000000000
8.055410830000,-0.126000000000
8.063097533000,-0.128000000000
8.070784236000,-0.126000000000
8.078470939000,-0.126000000000
8.086157642000,-0.126000000000
8.093844345000,-0.124000000000
8.101531048000,-0.124000000000
8.109217751000,-0.124000000000
8.116904454000,-0.119000000000
8.124591157000,-0.114000000000
8.132277860000,-0.116000000000
8.139964563000,-0.116000000000
8.147651330000,-0.111000000000
8.155337615000,-0.107000000000
8.163023900000,-0.109000000000
8.170710185000,-0.109000000000
8.178396470000,-0.107000000000
8.186082755000,-0.102000000000
8.193769040000,-0.102000000000
8.201455325000,-0.099000000000
8.209141610000,-0.094000000000
8.216827895000,-0.094000000000
8.224514180000,-0.097000000000
8.232200465000,-0.104000000000
8.239886750000,-0.109000000000
8.247573035000,-0.109000000000
8.255259320000,-0.102000000000
8.262945605000,-0.082000000000
8.270631890000,-0.063000000000
8.278318175000,-0.058000000000
8.286004460000,-0.053000000000
8.293690745000,-0.051000000000
8.301377030000,-0.063000000000
8.309063315000,-0.080000000000
8.316749600000,-0.087000000000
8.324435885000,-0.085000000000
8.332122170000,-0.082000000000
8.339808455000,-0.080000000000
8.347494740000,-0.077000000000
8.355181025000,-0.087000000000
8.362867310000,-0.124000000000
8.370553595000,-0.136000000000
8.378239880000,0.148000000000
8.385926165000,0.837000000000
8.393612450000,1.265000000000
8.401298735000,0.695000000000
8.408985020000,-0.360000000000
8.416671305000,-0.693000000000
8.424357590000,-0.360000000000
8.432043875000,-0.243000000000
8.439730160000,-0.267000000000
8.447416445000,-0.128000000000
8.455102730000,-0.068000000000
8.462789015000,-0.114000000000
8.470475300000,-0.094000000000
8.478161585000,-0.058000000000
8.485847870000,-0.065000000000
8.493534155000,-0.063000000000
8.501220440000,-0.046000000000
8.508906725000,-0.043000000000
8.516593010000,-0.041000000000
8.524279295000,-0.029000000000
8.531965580000,-0.024000000000
8.539651865000,-0.019000000000
8.547338150000,-0.007000000000
8.555024435000,-0.002000000000
8.562710720000,0.002000000000
8.570397005000,0.012000000000
8.578083290000,0.024000000000
8.585769575000,0.031000000000
8.593455860000,0.043000000000
8.601142145000,0.063000000000
8.608828430000,0.077000000000
8.616514715000,0.097000000000
8.624201000000,0.121000000000
8.631887285000,0.141000000000
8.639573570000,0.163000000000
8.647259855000,0.180000000000
8.654946140000,0.189000000000
8.662632425000,0.192000000000
8.670318710000,0.187000000000
8.678004995000,0.175000000000
8.685691280000,0.143000000000
8.693377565000,0.090000000000
8.701063850000,0.026000000000
8.708750191000,-0.034000000000
8.716436685000,-0.087000000000
8.724123179000,-0.136000000000
8.731809673000,-0.170000000000
8.739496167000,-0.189000000000
8.747182661000,-0.199000000000
8.754869155000,-0.201000000000
8.762555649000,-0.199000000000
8.770242143000,-0.194000000000
8.777928637000,-0.187000000000
8.785615131000,-0.180000000000
8.793301625000,-0.172000000000
8.800988119000,-0.165000000000
8.808674613000,-0.155000000000
8.816361107000,-0.148000000000
8.824047601000,-0.141000000000
8.831734095000,-0.136000000000
8.839420589000,-0.133000000000
8.847107083000,-0.128000000000
8.854793577000,-0.126000000000
8.862480071000,-0.128000000000
8.870166565000,-0.126000000000
8.877853059000,-0.126000000000
8.885539553000,-0.128000000000
8.893226047000,-0.128000000000
8.900912541000,-0.126000000000
8.908599035000,-0.124000000000
8.916285529000,-0.121000000000
8.923972023000,-0.121000000000
8.931658517000,-0.124000000000
8.939345011000,-0.121000000000
8.947031505000,-0.119000000000
8.954717999000,-0.119000000000
8.962404493000,-0.119000000000
8.970090987000,-0.116000000000
8.977777481000,-0.114000000000
8.985463975000,-0.111000000000
8.993150469000,-0.109000000000
9.000836963000,-0.107000000000
9.008523457000,-0.104000000000
9.016209951000,-0.104000000000
9.023896445000,-0.104000000000
9.031582939000,-0.104000000000
9.039269433000,-0.102000000000
9.046955927000,-0.097000000000
9.054642421000,-0.097000000000
9.062328915000,-0.099000000000
9.070015409000,-0.094000000000
9.077701903000,-0.092000000000
9.085388397000,-0.102000000000
9.093074891000,-0.111000000000
9.100761385000,-0.111000000000
9.108447879000,-0.107000000000
9.116134373000,-0.090000000000
9.123820867000,-0.068000000000
9.131507361000,-0.063000000000
9.139193855000,-0.063000000000
9.146880349000,-0.051000000000
9.154566843000,-0.055000000000
9.162253337000,-0.082000000000
9.169939831000,-0.092000000000
9.177626325000,-0.087000000000
9.185312819000,-0.087000000000
9.192999313000,-0.090000000000
9.200685807000,-0.085000000000
9.208372301000,-0.085000000000
9.216058795000,-0.116000000000
9.223745289000,-0.165000000000
9.231431783000,-0.009000000000
9.239118277000,0.588000000000
9.246804771000,1.221000000000
9.254491265000,1.041000000000
9.262177759000,0.046000000000
9.269864313000,-0.632000000000
9.277550807000,-0.445000000000
9.285237301000,-0.206000000000
9.292923795000,-0.257000000000
9.300610289000,-0.192000000000
9.308296783000,-0.094000000000
9.315983277000,-0.124000000000
9.323669771000,-0.126000000000
9.331356265000,-0.087000000000
9.339042759000,-0.090000000000
9.346729253000,-0.090000000000
9.354415747000,-0.070000000000
9.362102241000,-0.060000000000
9.369788735000,-0.058000000000
9.377475229000,-0.048000000000
9.385161723000,-0.041000000000
9.392848217000,-0.036000000000
9.400534711000,-0.029000000000
9.408221205000,-0.021000000000
9.415907699000,-0.014000000000
9.423594193000,-0.002000000000
9.431280687000,0.007000000000
9.438967181000,0.017000000000
9.446653675000,0.026000000000
9.454340169000,0.041000000000
9.462026663000,0.058000000000
9.469713157000,0.072000000000
9.477399651000,0.090000000000
9.485086145000,0.114000000000
9.492772639000,0.136000000000
9.500459133000,0.150000000000
9.508145627000,0.158000000000
9.515832121000,0.160000000000
9.523518615000,0.163000000000
9.531205109000,0.158000000000
9.538891603000,0.136000000000
9.546578097000,0.097000000000
9.554264591000,0.046000000000
9.561951085000,-0.007000000000
9.569637579000,-0.060000000000
9.577324073000,-0.109000000000
9.585010567000,-0.145000000000
9.592697061000,-0.167000000000
9.600383555000,-0.177000000000
9.608070049000,-0.180000000000
9.615756543000,-0.180000000000
9.623443037000,-0.177000000000
9.631129531000,-0.172000000000
9.638816025000,-0.165000000000
9.646502519000,-0.158000000000
9.654189013000,-0.150000000000
9.661875507000,-0.148000000000
9.669562001000,-0.143000000000
9.677248495000,-0.138000000000
9.684934989000,-0.136000000000
9.692621483000,-0.133000000000
9.700307977000,-0.128000000000
9.707994471000,-0.126000000000
9.715680965000,-0.126000000000
9.723367459000,-0.128000000000
9.731053953000,-0.128000000000
9.738740447000,-0.126000000000
9.746426941000,-0.124000000000
9.754113435000,-0.126000000000
9.761799929000,-0.126000000000
9.769486423000,-0.124000000000
9.777172917000,-0.121000000000
9.784859411000,-0.121000000000
9.792545905000,-0.119000000000
9.800232399000,-0.116000000000
9.807918893000,-0.116000000000
9.815605387000,-0.116000000000
9.823291881000,-0.114000000000
9.830978431000,-0.111000000000
9.838665065000,-0.111000000000
9.846351699000,-0.111000000000
9.854038333000,-0.104000000000
9.861724967000,-0.102000000000
9.869411601000,-0.104000000000
9.877098235000,-0.104000000000
9.884784869000,-0.102000000000
9.892471503000,-0.097000000000
9.900158137000,-0.094000000000
9.907844771000,-0.094000000000
9.915531405000,-0.097000000000
9.923218039000,-0.102000000000
9.930904673000,-0.109000000000
9.938591307000,-0.109000000000
9.946277941000,-0.102000000000
9.953964575000,-0.087000000000
9.961651209000,-0.063000000000
9.969337843000,-0.055000000000
9.977024477000,-0.053000000000
9.984711111000,-0.051000000000
9.992397745000,-0.063000000000
10.000084379000,-0.082000000000
10.007771013000,-0.087000000000
10.015457647000,-0.082000000000
10.023144281000,-0.082000000000
10.030830915000,-0.082000000000
10.038517549000,-0.080000000000
10.046204183000,-0.087000000000
10.053890817000,-0.121000000000
10.061577451000,-0.145000000000
10.069264085000,0.094000000000
10.076950719000,0.754000000000
10.084637353000,1.253000000000
10.092323987000,0.812000000000
10.100010621000,-0.228000000000
10.107697255000,-0.678000000000
10.115383889000,-0.384000000000
10.123070523000,-0.221000000000
10.130757157000,-0.262000000000
10.138443791000,-0.153000000000
10.146130425000,-0.082000000000
10.153817059000,-0.124000000000
10.161503693000,-0.109000000000
10.169190327000,-0.070000000000
10.176876961000,-0.075000000000
10.184563595000,-0.077000000000
10.192250229000,-0.060000000000
10.199936863000,-0.055000000000
10.207623497000,-0.053000000000
10.215310131000,-0.046000000000
10.222996765000,-0.036000000000
10.230683399000,-0.029000000000
10.238370033000,-0.021000000000
10.246056667000,-0.014000000000
10.253743301000,-0.004000000000
10.261429935000,0.002000000000
10.269116569000,0.012000000000
10.276803203000,0.019000000000
10.284489837000,0.029000000000
10.292176471000,0.043000000000
10.299863105000,0.058000000000
10.307549739000,0.075000000000
10.315236373000,0.099000000000
10.322923007000,0.119000000000
10.330609641000,0.131000000000
10.338296275000,0.143000000000
10.345982909000,0.153000000000
10.353669543000,0.158000000000
10.361356177000,0.155000000000
10.369042811000,0.145000000000
10.376729445000,0.119000000000
10.384416079000,0.072000000000
10.392102727000,0.021000000000
10.399789082000,-0.029000000000
10.407475437000,-0.077000000000
10.415161792000,-0.119000000000
10.422848147000,-0.153000000000
10.430534502000,-0.177000000000
10.438220857000,-0.187000000000
10.445907212000,-0.182000000000
10.453593567000,-0.180000000000
10.461279922000,-0.175000000000
10.468966277000,-0.167000000000
10.476652632000,-0.158000000000
10.484338987000,-0.153000000000
10.492025342000,-0.150000000000
10.499711697000,-0.145000000000
10.507398052000,-0.138000000000
10.515084407000,-0.131000000000
10.522770762000,-0.133000000000
10.530457117000,-0.138000000000
10.538143472000,-0.136000000000
10.545829827000,-0.126000000000
10.553516182000,-0.128000000000
10.561202537000,-0.133000000000
10.568888892000,-0.128000000000
10.576575247000,-0.124000000000
10.584261602000,-0.128000000000
10.591947957000,-0.128000000000
10.599634312000,-0.124000000000
10.607320667000,-0.126000000000
10.615007022000,-0.128000000000
10.622693377000,-0.124000000000
10.630379732000,-0.119000000000
10.638066087000,-0.119000000000
10.645752442000,-0.116000000000
10.653438797000,-0.111000000000
10.661125152000,-0.114000000000
10.668811507000,-0.114000000000
10.676497862000,-0.111000000000
10.684184217000,-0.109000000000
10.691870572000,-0.107000000000
10.699556927000,-0.104000000000
10.707243282000,-0.104000000000
10.714929637000,-0.104000000000
10.722615992000,-0.099000000000
10.730302347000,-0.104000000000
10.737988702000,-0.114000000000
10.745675057000,-0.114000000000
10.753361412000,-0.111000000000
10.761047767000,-0.099000000000
10.768734122000,-0.077000000000
10.776420477000,-0.063000000000
10.784106832000,-0.063000000000
10.791793187000,-0.055000000000
10.799479542000,-0.058000000000
10.807165897000,-0.082000000000
10.814852252000,-0.094000000000
10.822538607000,-0.092000000000
10.830224962000,-0.092000000000
10.837911317000,-0.092000000000
10.845597672000,-0.085000000000
10.853284027000,-0.082000000000
10.860970382000,-0.107000000000
10.868656737000,-0.126000000000
10.876343092000,0.058000000000
10.884029447000,0.642000000000
10.891715802000,1.192000000000
10.899402157000,0.841000000000
10.907088512000,-0.223000000000
10.914774867000,-0.759000000000
10.922461222000,-0.472000000000
10.930147577000,-0.270000000000
10.937833932000,-0.304000000000
10.945520287000,-0.177000000000
10.953206671000,-0.060000000000
10.960892956000,-0.094000000000
10.968579241000,-0.094000000000
10.976265526000,-0.053000000000
10.983951811000,-0.051000000000
10.991638096000,-0.055000000000
10.999324381000,-0.038000000000
11.007010666000,-0.031000000000
11.014696951000,-0.034000000000
11.022383236000,-0.024000000000
11.030069521000,-0.007000000000
11.037755806000,0.000000000000
11.045442091000,0.007000000000
11.053128376000,0.012000000000
11.060814661000,0.017000000000
11.068500946000,0.024000000000
11.076187231000,0.034000000000
11.083873516000,0.046000000000
11.091559801000,0.060000000000
11.099246086000,0.072000000000
11.106932371000,0.087000000000
11.114618656000,0.107000000000
11.122304941000,0.126000000000
11.129991226000,0.145000000000
11.137677511000,0.158000000000
11.145363796000,0.167000000000
11.153050081000,0.172000000000
11.160736366000,0.175000000000
11.168422651000,0.172000000000
11.176108936000,0.163000000000
11.183795221000,0.136000000000
11.191481506000,0.087000000000
11.199167791000,0.029000000000
11.206854076000,-0.029000000000
11.214540361000,-0.087000000000
11.222226646000,-0.136000000000
11.229912931000,-0.170000000000
11.237599216000,-0.187000000000
11.245285501000,-0.194000000000
11.252971786000,-0.197000000000
11.260658071000,-0.192000000000
11.268344356000,-0.184000000000
11.276030641000,-0.177000000000
11.283716926000,-0.170000000000
11.291403211000,-0.160000000000
11.299089496000,-0.148000000000
11.306775781000,-0.138000000000
11.314462066000,-0.136000000000
11.322148351000,-0.133000000000
11.329834636000,-0.128000000000
11.337520921000,-0.128000000000
11.345207206000,-0.131000000000
11.352893491000,-0.128000000000
11.360579776000,-0.128000000000
11.368266061000,-0.131000000000
11.375952346000,-0.133000000000
11.383638631000,-0.133000000000
11.391324916000,-0.136000000000
11.399011201000,-0.136000000000
11.406697486000,-0.136000000000
11.414383771000,-0.133000000000
11.422070056000,-0.133000000000
11.429756341000,-0.131000000000
11.437442626000,-0.128000000000
11.445128911000,-0.131000000000
11.452815196000,-0.131000000000
11.460501481000,-0.124000000000
11.468187766000,-0.119000000000
11.475874051000,-0.119000000000
11.483560336000,-0.116000000000
11.491246621000,-0.116000000000
11.498932906000,-0.116000000000
11.506619191000,-0.116000000000
11.514305536000,-0.121000000000
11.521992239000,-0.126000000000
11.529678942000,-0.126000000000
11.537365645000,-0.119000000000
11.545052348000,-0.099000000000
11.552739051000,-0.080000000000
11.560425754000,-0.075000000000
11.568112457000,-0.070000000000
11.575799160000,-0.060000000000
11.583485863000,-0.072000000000
11.591172566000,-0.094000000000
11.598859269000,-0.099000000000
11.606545972000,-0.094000000000
11.614232675000,-0.097000000000
11.621919378000,-0.094000000000
11.629606081000,-0.094000000000
11.637292784000,-0.099000000000
11.644979487000,-0.131000000000
11.652666190000,-0.150000000000
11.660352893000,0.111000000000
11.668039596000,0.790000000000
11.675726299000,1.238000000000
11.683413002000,0.674000000000
11.691099705000,-0.396000000000
11.698786408000,-0.725000000000
11.706473111000,-0.372000000000
11.714159814000,-0.245000000000
11.721846517000,-0.272000000000
11.729533220000,-0.133000000000
11.737219923000,-0.070000000000
11.744906626000,-0.116000000000
11.752593329000,-0.094000000000
11.760280032000,-0.060000000000
11.767966735000,-0.068000000000
11.775653438000,-0.065000000000
11.783340141000,-0.046000000000
11.791026844000,-0.041000000000
11.798713547000,-0.041000000000
11.806400250000,-0.031000000000
11.814086953000,-0.021000000000
11.821773656000,-0.017000000000
11.829460359000,-0.012000000000
11.837147062000,-0.007000000000
11.844833765000,0.002000000000
11.852520468000,0.012000000000
11.860207171000,0.021000000000
11.867893874000,0.031000000000
11.875580577000,0.043000000000
11.883267280000,0.060000000000
11.890953983000,0.075000000000
11.898640686000,0.087000000000
11.906327389000,0.107000000000
11.914014092000,0.128000000000
11.921700795000,0.141000000000
11.929387498000,0.150000000000
11.937074201000,0.155000000000
11.944760904000,0.158000000000
11.952447607000,0.155000000000
11.960134310000,0.143000000000
11.967821013000,0.111000000000
11.975507716000,0.063000000000
11.983194419000,0.004000000000
11.990881122000,-0.048000000000
11.998567825000,-0.099000000000
12.006254528000,-0.141000000000
12.013941231000,-0.165000000000
12.021627934000,-0.177000000000
12.029314637000,-0.182000000000
12.037001340000,-0.182000000000
12.044688043000,-0.177000000000
12.052374746000,-0.172000000000
12.060061449000,-0.167000000000
12.067748152000,-0.158000000000
12.075434915000,-0.148000000000
12.083121200000,-0.143000000000
12.090807485000,-0.141000000000
12.098493770000,-0.136000000000
12.106180055000,-0.131000000000
12.113866340000,-0.126000000000
12.121552625000,-0.128000000000
12.129238910000,-0.131000000000
12.136925195000,-0.133000000000
12.144611480000,-0.131000000000
12.152297765000,-0.131000000000
12.159984050000,-0.133000000000
12.167670335000,-0.133000000000
12.175356620000,-0.128000000000
12.183042905000,-0.126000000000
12.190729190000,-0.126000000000
12.198415475000,-0.128000000000
12.206101760000,-0.128000000000
12.213788045000,-0.126000000000
12.221474330000,-0.126000000000
12.229160615000,-0.124000000000
12.236846900000,-0.121000000000
12.244533185000,-0.119000000000
12.252219470000,-0.119000000000
12.259905755000,-0.116000000000
12.267592040000,-0.114000000000
12.275278325000,-0.111000000000
12.282964610000,-0.109000000000
12.290650895000,-0.109000000000
12.298337180000,-0.104000000000
12.306023465000,-0.104000000000
12.313709750000,-0.109000000000
12.321396035000,-0.114000000000
12.329082320000,-0.119000000000
12.336768605000,-0.121000000000
12.344454890000,-0.111000000000
12.352141175000,-0.090000000000
12.359827460000,-0.070000000000
12.367513745000,-0.068000000000
12.375200030000,-0.065000000000
12.382886315000,-0.058000000000
12.390572600000,-0.070000000000
12.398258885000,-0.090000000000
12.405945170000,-0.092000000000
12.413631455000,-0.087000000000
12.421317740000,-0.092000000000
12.429004025000,-0.090000000000
12.436690310000,-0.085000000000
12.444376595000,-0.092000000000
12.452062880000,-0.128000000000
12.459749165000,-0.155000000000
12.467435450000,0.097000000000
12.475121735000,0.771000000000
12.482808020000,1.260000000000
12.490494305000,0.795000000000
12.498180590000,-0.255000000000
12.505866875000,-0.674000000000
12.513553160000,-0.360000000000
12.521239445000,-0.216000000000
12.528925730000,-0.262000000000
12.536612015000,-0.148000000000
12.544298300000,-0.082000000000
12.551984585000,-0.126000000000
12.559670870000,-0.111000000000
12.567357155000,-0.075000000000
12.575043440000,-0.077000000000
12.582729725000,-0.075000000000
12.590416010000,-0.060000000000
12.598102295000,-0.055000000000
12.605788580000,-0.051000000000
12.613474865000,-0.043000000000
12.621161150000,-0.036000000000
12.628847435000,-0.031000000000
12.636533776000,-0.024000000000
12.644220340000,-0.014000000000
12.651906904000,-0.004000000000
12.659593468000,0.002000000000
12.667280032000,0.012000000000
12.674966596000,0.024000000000
12.682653160000,0.031000000000
12.690339724000,0.043000000000
12.698026288000,0.060000000000
12.705712852000,0.072000000000
12.713399416000,0.087000000000
12.721085980000,0.107000000000
12.728772544000,0.119000000000
12.736459108000,0.126000000000
12.744145672000,0.133000000000
12.751832236000,0.141000000000
12.759518800000,0.141000000000
12.767205364000,0.131000000000
12.774891928000,0.104000000000
12.782578492000,0.063000000000
12.790265056000,0.014000000000
12.797951620000,-0.034000000000
12.805638184000,-0.082000000000
12.813324748000,-0.126000000000
12.821011312000,-0.153000000000
12.828697876000,-0.163000000000
12.836384440000,-0.170000000000
12.844071004000,-0.172000000000
12.851757568000,-0.170000000000
12.859444132000,-0.163000000000
12.867130696000,-0.158000000000
12.874817260000,-0.153000000000
12.882503824000,-0.148000000000
12.890190388000,-0.141000000000
12.897876952000,-0.138000000000
12.905563516000,-0.136000000000
12.913250080000,-0.133000000000
12.920936644000,-0.131000000000
12.928623208000,-0.131000000000
12.936309772000,-0.128000000000
12.943996336000,-0.128000000000
12.951682900000,-0.128000000000
12.959369464000,-0.126000000000
12.967056028000,-0.131000000000
12.974742592000,-0.133000000000
12.982429156000,-0.131000000000
12.990115720000,-0.128000000000
12.997802284000,-0.128000000000
13.005488848000,-0.128000000000
13.013175412000,-0.126000000000
13.020861976000,-0.124000000000
13.028548540000,-0.121000000000
13.036235104000,-0.121000000000
13.043921668000,-0.121000000000
13.051608232000,-0.119000000000
13.059294796000,-0.114000000000
13.066981360000,-0.114000000000
13.074667924000,-0.111000000000
13.082354488000,-0.109000000000
13.090041052000,-0.109000000000
13.097727616000,-0.107000000000
13.105414180000,-0.104000000000
13.113100744000,-0.104000000000
13.120787308000,-0.102000000000
13.128473872000,-0.099000000000
13.136160436000,-0.097000000000
13.143847000000,-0.097000000000
13.151533564000,-0.097000000000
13.159220128000,-0.104000000000
13.166906692000,-0.111000000000
13.174593256000,-0.111000000000
13.182279820000,-0.104000000000
13.189966384000,-0.090000000000
13.197652985000,-0.065000000000
13.205339410000,-0.055000000000
13.213025835000,-0.058000000000
13.220712260000,-0.055000000000
13.228398685000,-0.065000000000
13.236085110000,-0.087000000000
13.243771535000,-0.092000000000
13.251457960000,-0.085000000000
13.259144385000,-0.092000000000
13.266830810000,-0.092000000000
13.274517235000,-0.085000000000
13.282203660000,-0.087000000000
13.289890085000,-0.116000000000
13.297576510000,-0.153000000000
13.305262935000,0.004000000000
13.312949360000,0.601000000000
13.320635785000,1.202000000000
13.328322210000,0.956000000000
13.336008635000,-0.063000000000
13.343695060000,-0.681000000000
13.351381485000,-0.450000000000
13.359067910000,-0.223000000000
13.366754335000,-0.267000000000
13.374440760000,-0.182000000000
13.382127185000,-0.080000000000
13.389813610000,-0.114000000000
13.397500035000,-0.116000000000
13.405186460000,-0.072000000000
13.412872885000,-0.072000000000
13.420559310000,-0.075000000000
13.428245735000,-0.058000000000
13.435932160000,-0.051000000000
13.443618585000,-0.048000000000
13.451305010000,-0.038000000000
13.458991435000,-0.034000000000
13.466677860000,-0.026000000000
13.474364285000,-0.019000000000
13.482050710000,-0.012000000000
13.489737135000,-0.004000000000
13.497423560000,0.004000000000
13.505109985000,0.014000000000
13.512796410000,0.024000000000
13.520482835000,0.031000000000
13.528169260000,0.043000000000
13.535855685000,0.060000000000
13.543542110000,0.072000000000
13.551228535000,0.085000000000
13.558914960000,0.102000000000
13.566601385000,0.116000000000
13.574287810000,0.124000000000
13.581974235000,0.131000000000
13.589660660000,0.136000000000
13.597347085000,0.136000000000
13.605033510000,0.131000000000
13.612719935000,0.111000000000
13.620406360000,0.077000000000
13.628092785000,0.034000000000
13.635779210000,-0.017000000000
13.643465635000,-0.065000000000
13.651152060000,-0.109000000000
13.658838485000,-0.138000000000
13.666524910000,-0.158000000000
13.674211335000,-0.165000000000
13.681897760000,-0.167000000000
13.689584185000,-0.167000000000
13.697270610000,-0.163000000000
13.704957035000,-0.158000000000
13.712643460000,-0.153000000000
13.720329885000,-0.148000000000
13.728016310000,-0.143000000000
13.735702735000,-0.138000000000
13.743389160000,-0.136000000000
13.751075585000,-0.131000000000
13.758762016000,-0.128000000000
13.766448719000,-0.128000000000
13.774135422000,-0.128000000000
13.781822125000,-0.128000000000
13.789508828000,-0.131000000000
13.797195531000,-0.131000000000
13.804882234000,-0.131000000000
13.812568937000,-0.133000000000
13.820255640000,-0.136000000000
13.827942343000,-0.131000000000
13.835629046000,-0.131000000000
13.843315749000,-0.131000000000
13.851002452000,-0.128000000000
13.858689155000,-0.126000000000
13.866375858000,-0.128000000000
13.874062561000,-0.126000000000
13.881749264000,-0.124000000000
13.889435967000,-0.121000000000
13.897122670000,-0.119000000000
13.904809373000,-0.119000000000
13.912496076000,-0.119000000000
13.920182779000,-0.116000000000
13.927869482000,-0.114000000000
13.935556185000,-0.111000000000
13.943242888000,-0.107000000000
13.950929591000,-0.104000000000
13.958616294000,-0.102000000000
13.966302997000,-0.099000000000
13.973989700000,-0.099000000000
13.981676403000,-0.097000000000
13.989363106000,-0.094000000000
13.997049809000,-0.094000000000
14.004736512000,-0.094000000000
14.012423215000,-0.092000000000
14.020109918000,-0.090000000000
14.027796621000,-0.090000000000
14.035483324000,-0.092000000000
14.043170027000,-0.099000000000
14.050856730000,-0.104000000000
14.058543433000,-0.102000000000
14.066230136000,-0.090000000000
14.073916839000,-0.070000000000
14.081603542000,-0.053000000000
14.089290245000,-0.051000000000
14.096976948000,-0.048000000000
14.104663651000,-0.046000000000
14.112350354000,-0.065000000000
14.120037057000,-0.082000000000
14.127723760000,-0.080000000000
14.135410463000,-0.080000000000
14.143097166000,-0.080000000000
14.150783869000,-0.075000000000
14.158470572000,-0.077000000000
14.166157275000,-0.092000000000
14.173843978000,-0.133000000000
14.181530681000,-0.087000000000
14.189217384000,0.335000000000
14.196904087000,1.029000000000
14.204590790000,1.172000000000
14.212277493000,0.335000000000
14.219964196000,-0.571000000000
14.227650899000,-0.596000000000
14.235337602000,-0.260000000000
14.243024305000,-0.248000000000
14.250711008000,-0.233000000000
14.258397711000,-0.097000000000
14.266084414000,-0.090000000000
14.273771117000,-0.119000000000
14.281457820000,-0.082000000000
14.289144523000,-0.063000000000
14.296831226000,-0.072000000000
14.304517929000,-0.060000000000
14.312204632000,-0.043000000000
14.319891399000,-0.041000000000
14.327577684000,-0.038000000000
14.335263969000,-0.029000000000
14.342950254000,-0.021000000000
14.350636539000,-0.017000000000
14.358322824000,-0.009000000000
14.366009109000,0.000000000000
14.373695394000,0.009000000000
14.381381679000,0.014000000000
14.389067964000,0.021000000000
14.396754249000,0.029000000000
14.404440534000,0.036000000000
14.412126819000,0.046000000000
14.419813104000,0.063000000000
14.427499389000,0.082000000000
14.435185674000,0.094000000000
14.442871959000,0.104000000000
14.450558244000,0.114000000000
14.458244529000,0.121000000000
14.465930814000,0.124000000000
14.473617099000,0.126000000000
14.481303384000,0.126000000000
14.488989669000,0.116000000000
14.496675954000,0.094000000000
14.504362239000,0.060000000000
14.512048524000,0.012000000000
14.519734809000,-0.041000000000
14.527421094000,-0.085000000000
14.535107379000,-0.114000000000
14.542793664000,-0.136000000000
14.550479949000,-0.155000000000
14.558166234000,-0.165000000000
14.565852519000,-0.165000000000
14.573538804000,-0.163000000000
14.581225089000,-0.155000000000
14.588911374000,-0.145000000000
14.596597659000,-0.136000000000
14.604283944000,-0.131000000000
14.611970229000,-0.131000000000
14.619656514000,-0.128000000000
14.627342799000,-0.126000000000
14.635029084000,-0.119000000000
14.642715369000,-0.119000000000
14.650401654000,-0.121000000000
14.658087939000,-0.121000000000
14.665774224000,-0.124000000000
14.673460509000,-0.126000000000
14.681146794000,-0.126000000000
14.688833079000,-0.126000000000
14.696519364000,-0.128000000000
14.704205649000,-0.131000000000
14.711891934000,-0.128000000000
14.719578219000,-0.128000000000
14.727264504000,-0.128000000000
14.734950789000,-0.128000000000
14.742637074000,-0.126000000000
14.750323359000,-0.119000000000
14.758009644000,-0.119000000000
14.765695929000,-0.119000000000
14.773382214000,-0.116000000000
14.781068499000,-0.114000000000
14.788754784000,-0.116000000000
14.796441069000,-0.111000000000
14.804127354000,-0.109000000000
14.811813639000,-0.107000000000
14.819499924000,-0.104000000000
14.827186209000,-0.102000000000
14.834872494000,-0.097000000000
14.842558779000,-0.097000000000
14.850245064000,-0.097000000000
14.857931349000,-0.094000000000
14.865617634000,-0.092000000000
14.873303919000,-0.090000000000
14.880990260000,-0.087000000000
14.888676685000,-0.087000000000
14.896363110000,-0.085000000000
14.904049535000,-0.082000000000
14.911735960000,-0.085000000000
14.919422385000,-0.092000000000
14.927108810000,-0.094000000000
14.934795235000,-0.092000000000
14.942481660000,-0.090000000000
14.950168085000,-0.080000000000
14.957854510000,-0.060000000000
14.965540935000,-0.053000000000
14.973227360000,-0.046000000000
14.980913785000,-0.043000000000
14.988600210000,-0.060000000000
14.996286635000,-0.080000000000
15.003973060000,-0.080000000000
15.011659485000,-0.077000000000
15.019345910000,-0.082000000000
15.027032335000,-0.077000000000
15.034718760000,-0.072000000000
15.042405185000,-0.082000000000
15.050091610000,-0.107000000000
15.057778035000,-0.058000000000
15.065464460000,0.321000000000
15.073150885000,0.980000000000
15.080837310000,1.136000000000
15.088523735000,0.291000000000
15.096210160000,-0.637000000000
15.103896585000,-0.654000000000
15.111583010000,-0.309000000000
15.119269435000,-0.289000000000
15.126955860000,-0.253000000000
15.134642285000,-0.085000000000
15.142328710000,-0.063000000000
15.150015135000,-0.099000000000
15.157701560000,-0.063000000000
15.165387985000,-0.041000000000
15.173074410000,-0.053000000000
15.180760835000,-0.041000000000
15.188447260000,-0.024000000000
15.196133685000,-0.026000000000
15.203820110000,-0.021000000000
15.211506535000,-0.012000000000
15.219192960000,-0.004000000000
15.226879385000,0.000000000000
15.234565810000,0.007000000000
15.242252235000,0.014000000000
15.249938660000,0.021000000000
15.257625085000,0.029000000000
15.265311510000,0.036000000000
15.272997935000,0.046000000000
15.280684360000,0.055000000000
15.288370785000,0.068000000000
15.296057210000,0.080000000000
15.303743635000,0.092000000000
15.311430060000,0.107000000000
15.319116485000,0.121000000000
15.326802910000,0.131000000000
15.334489335000,0.136000000000
15.342175760000,0.141000000000
15.349862185000,0.143000000000
15.357548610000,0.143000000000
15.365235035000,0.133000000000
15.372921460000,0.111000000000
15.380607885000,0.070000000000
15.388294310000,0.019000000000
15.395980735000,-0.036000000000
15.403667160000,-0.087000000000
15.411353585000,-0.126000000000
15.419040010000,-0.153000000000
15.426726435000,-0.167000000000
15.434412860000,-0.172000000000
15.442099295000,-0.175000000000
15.449785859000,-0.170000000000
15.457472423000,-0.163000000000
15.465158987000,-0.153000000000
15.472845551000,-0.145000000000
15.480532115000,-0.136000000000
15.488218679000,-0.131000000000
15.495905243000,-0.126000000000
15.503591807000,-0.124000000000
15.511278371000,-0.119000000000
15.518964935000,-0.119000000000
15.526651499000,-0.119000000000
15.534338063000,-0.119000000000
15.542024627000,-0.121000000000
15.549711191000,-0.121000000000
15.557397755000,-0.124000000000
15.565084319000,-0.124000000000
15.572770883000,-0.126000000000
15.580457447000,-0.128000000000
15.588144011000,-0.128000000000
15.595830575000,-0.126000000000
15.603517139000,-0.126000000000
15.611203703000,-0.124000000000
15.618890267000,-0.124000000000
15.626576831000,-0.121000000000
15.634263395000,-0.119000000000
15.641949959000,-0.119000000000
15.649636523000,-0.116000000000
15.657323087000,-0.114000000000
15.665009651000,-0.111000000000
15.672696215000,-0.111000000000
15.680382779000,-0.109000000000
15.688069343000,-0.107000000000
15.695755907000,-0.104000000000
15.703442471000,-0.104000000000
15.711129035000,-0.102000000000
15.718815599000,-0.102000000000
15.726502163000,-0.099000000000
15.734188727000,-0.097000000000
15.741875291000,-0.099000000000
15.749561855000,-0.097000000000
15.757248419000,-0.094000000000
15.764934983000,-0.092000000000
15.772621547000,-0.094000000000
15.780308111000,-0.092000000000
15.787994675000,-0.090000000000
15.795681239000,-0.090000000000
15.803367803000,-0.087000000000
15.811054367000,-0.085000000000
15.818740931000,-0.082000000000
15.826427495000,-0.085000000000
15.834114059000,-0.085000000000
15.841800623000,-0.085000000000
15.849487187000,-0.094000000000
15.857173751000,-0.099000000000
15.864860315000,-0.099000000000
15.872546879000,-0.090000000000
15.880233443000,-0.072000000000
15.887920007000,-0.055000000000
15.895606571000,-0.051000000000
15.903293135000,-0.046000000000
15.910979699000,-0.043000000000
15.918666263000,-0.060000000000
15.926352827000,-0.077000000000
15.934039391000,-0.077000000000
15.941725955000,-0.077000000000
15.949412519000,-0.080000000000
15.957099083000,-0.077000000000
15.964785647000,-0.075000000000
15.972472211000,-0.087000000000
15.980158775000,-0.136000000000
15.987845339000,-0.114000000000
15.995531903000,0.274000000000
16.003218500000,0.983000000000
16.010905203000,1.238000000000
16.018591906000,0.503000000000
16.026278609000,-0.464000000000
16.033965312000,-0.596000000000
16.041652015000,-0.260000000000
16.049338718000,-0.223000000000
16.057025421000,-0.236000000000
16.064712124000,-0.109000000000
16.072398827000,-0.092000000000
16.080085530000,-0.128000000000
16.087772233000,-0.094000000000
16.095458936000,-0.070000000000
16.103145639000,-0.077000000000
16.110832342000,-0.070000000000
16.118519045000,-0.053000000000
16.126205748000,-0.051000000000
16.133892451000,-0.046000000000
16.141579154000,-0.036000000000
16.149265857000,-0.031000000000
16.156952560000,-0.026000000000
16.164639263000,-0.019000000000
16.172325966000,-0.012000000000
16.180012669000,-0.004000000000
16.187699372000,0.002000000000
16.195386075000,0.012000000000
16.203072778000,0.021000000000
16.210759481000,0.031000000000
16.218446184000,0.041000000000
16.226132887000,0.051000000000
16.233819590000,0.065000000000
16.241506293000,0.077000000000
16.249192996000,0.092000000000
16.256879699000,0.104000000000
16.264566402000,0.114000000000
16.272253105000,0.119000000000
16.279939808000,0.124000000000
16.287626511000,0.124000000000
16.295313214000,0.116000000000
16.302999917000,0.097000000000
16.310686620000,0.063000000000
16.318373323000,0.019000000000
16.326060026000,-0.026000000000
16.333746729000,-0.068000000000
16.341433432000,-0.107000000000
16.349120135000,-0.133000000000
16.356806838000,-0.148000000000
16.364493541000,-0.155000000000
16.372180244000,-0.155000000000
16.379866947000,-0.155000000000
16.387553650000,-0.150000000000
16.395240353000,-0.145000000000
16.402927056000,-0.138000000000
16.410613759000,-0.133000000000
16.418300462000,-0.131000000000
16.425987165000,-0.126000000000
16.433673868000,-0.124000000000
16.441360571000,-0.121000000000
16.449047274000,-0.121000000000
16.456733977000,-0.119000000000
16.464420680000,-0.119000000000
16.472107383000,-0.119000000000
16.479794086000,-0.119000000000
16.487480789000,-0.119000000000
16.495167492000,-0.119000000000
16.502854195000,-0.119000000000
16.510540898000,-0.119000000000
16.518227601000,-0.116000000000
16.525914304000,-0.116000000000
16.533601007000,-0.116000000000
16.541287710000,-0.114000000000
16.548974413000,-0.111000000000
16.556661116000,-0.111000000000
16.564347879000,-0.111000000000
16.572034164000,-0.109000000000
16.579720449000,-0.104000000000
16.587406734000,-0.104000000000
16.595093019000,-0.104000000000
16.602779304000,-0.102000000000
16.610465589000,-0.099000000000
16.618151874000,-0.102000000000
16.625838159000,-0.099000000000
16.633524444000,-0.094000000000
16.641210729000,-0.092000000000
16.648897014000,-0.092000000000
16.656583299000,-0.090000000000
16.664269584000,-0.087000000000
16.671955869000,-0.087000000000
16.679642154000,-0.087000000000
16.687328439000,-0.085000000000
16.695014724000,-0.082000000000
16.702701009000,-0.080000000000
16.710387294000,-0.080000000000
16.718073579000,-0.080000000000
16.725759864000,-0.080000000000
16.733446149000,-0.080000000000
16.741132434000,-0.080000000000
16.748818719000,-0.075000000000
16.756505004000,-0.075000000000
16.764191289000,-0.075000000000
16.771877574000,-0.072000000000
16.779563859000,-0.070000000000
16.787250144000,-0.070000000000
16.794936429000,-0.070000000000
16.802622714000,-0.068000000000
16.810308999000,-0.072000000000
16.817995284000,-0.082000000000
16.825681569000,-0.085000000000
16.833367854000,-0.085000000000
16.841054139000,-0.075000000000
16.848740424000,-0.055000000000
16.856426709000,-0.041000000000
16.864112994000,-0.038000000000
16.871799279000,-0.031000000000
16.879485564000,-0.036000000000
16.887171849000,-0.058000000000
16.894858134000,-0.070000000000
16.902544419000,-0.070000000000
16.910230704000,-0.068000000000
16.917916989000,-0.068000000000
16.925603274000,-0.068000000000
16.933289559000,-0.070000000000
16.940975844000,-0.090000000000
16.948662129000,-0.138000000000
16.956348414000,-0.055000000000
16.964034699000,0.445000000000
16.971720984000,1.126000000000
16.979407269000,1.141000000000
16.987093554000,0.238000000000
16.994779839000,-0.579000000000
17.002466124000,-0.510000000000
17.010152409000,-0.218000000000
17.017838694000,-0.240000000000
17.025524979000,-0.204000000000
17.033211264000,-0.085000000000
17.040897549000,-0.097000000000
17.048583834000,-0.119000000000
17.056270119000,-0.077000000000
17.063956404000,-0.068000000000
17.071642689000,-0.075000000000
17.079328974000,-0.058000000000
17.087015259000,-0.048000000000
17.094701544000,-0.046000000000
17.102387829000,-0.038000000000
17.110074114000,-0.029000000000
17.117760399000,-0.024000000000
17.125446740000,-0.019000000000
17.133133443000,-0.007000000000
17.140820146000,-0.002000000000
17.148506849000,0.002000000000
17.156193552000,0.012000000000
17.163880255000,0.019000000000
17.171566958000,0.026000000000
17.179253661000,0.036000000000
17.186940364000,0.051000000000
17.194627067000,0.060000000000
17.202313770000,0.072000000000
17.210000473000,0.090000000000
17.217687176000,0.104000000000
17.225373879000,0.114000000000
17.233060582000,0.121000000000
17.240747285000,0.124000000000
17.248433988000,0.124000000000
17.256120691000,0.124000000000
17.263807394000,0.119000000000
17.271494097000,0.094000000000
17.279180800000,0.058000000000
17.286867503000,0.012000000000
17.294554206000,-0.036000000000
17.302240909000,-0.077000000000
17.309927612000,-0.114000000000
17.317614315000,-0.141000000000
17.325301018000,-0.155000000000
17.332987721000,-0.163000000000
17.340674424000,-0.160000000000
17.348361127000,-0.158000000000
17.356047830000,-0.153000000000
17.363734533000,-0.148000000000
17.371421236000,-0.141000000000
17.379107939000,-0.136000000000
17.386794642000,-0.131000000000
17.394481345000,-0.126000000000
17.402168048000,-0.119000000000
17.409854751000,-0.119000000000
17.417541454000,-0.119000000000
17.425228157000,-0.116000000000
17.432914860000,-0.116000000000
17.440601563000,-0.116000000000
17.448288266000,-0.116000000000
17.455974969000,-0.119000000000
17.463661672000,-0.119000000000
17.471348375000,-0.119000000000
17.479035078000,-0.119000000000
17.486721781000,-0.119000000000
17.494408484000,-0.116000000000
17.502095187000,-0.116000000000
17.509781890000,-0.116000000000
17.517468593000,-0.114000000000
17.525155296000,-0.114000000000
17.532841999000,-0.111000000000
17.540528702000,-0.109000000000
17.548215405000,-0.109000000000
17.555902108000,-0.109000000000
17.563588811000,-0.107000000000
17.571275514000,-0.104000000000
17.578962217000,-0.104000000000
17.586648920000,-0.102000000000
17.594335623000,-0.099000000000
17.602022326000,-0.097000000000
17.609709029000,-0.097000000000
17.617395732000,-0.092000000000
17.625082435000,-0.090000000000
17.632769138000,-0.090000000000
17.640455841000,-0.087000000000
17.648142544000,-0.085000000000
17.655829247000,-0.085000000000
17.663515950000,-0.087000000000
17.671202653000,-0.085000000000
17.678889356000,-0.080000000000
17.686576119000,-0.080000000000
17.694262404000,-0.080000000000
17.701948689000,-0.077000000000
17.709634974000,-0.077000000000
17.717321259000,-0.077000000000
17.725007544000,-0.075000000000
17.732693829000,-0.075000000000
17.740380114000,-0.075000000000
17.748066399000,-0.075000000000
17.755752684000,-0.075000000000
17.763438969000,-0.075000000000
17.771125254000,-0.085000000000
17.778811539000,-0.090000000000
17.786497824000,-0.087000000000
17.794184109000,-0.085000000000
17.801870394000,-0.075000000000
17.809556679000,-0.053000000000
17.817242964000,-0.041000000000
17.824929249000,-0.041000000000
17.832615534000,-0.036000000000
17.840301819000,-0.043000000000
17.847988104000,-0.065000000000
17.855674389000,-0.075000000000
17.863360674000,-0.072000000000
17.871046959000,-0.072000000000
17.878733244000,-0.072000000000
17.886419529000,-0.070000000000
17.894105814000,-0.070000000000
17.901792099000,-0.094000000000
17.909478384000,-0.138000000000
17.917164669000,-0.017000000000
17.924850954000,0.535000000000
17.932537239000,1.167000000000
17.940223524000,1.031000000000
17.947909809000,0.058000000000
17.955596094000,-0.639000000000
17.963282379000,-0.474000000000
17.970968664000,-0.221000000000
17.978654949000,-0.257000000000
17.986341234000,-0.187000000000
17.994027519000,-0.075000000000
18.001713804000,-0.102000000000
18.009400089000,-0.111000000000
18.017086374000,-0.070000000000
18.024772659000,-0.065000000000
18.032458944000,-0.070000000000
18.040145229000,-0.051000000000
18.047831514000,-0.043000000000
18.055517799000,-0.041000000000
18.063204084000,-0.031000000000
18.070890369000,-0.024000000000
18.078576654000,-0.019000000000
18.086262939000,-0.012000000000
18.093949224000,-0.002000000000
18.101635509000,0.002000000000
18.109321794000,0.009000000000
18.117008079000,0.017000000000
18.124694364000,0.029000000000
18.132380649000,0.041000000000
18.140066934000,0.048000000000
18.147753219000,0.058000000000
18.155439504000,0.070000000000
18.163125789000,0.085000000000
18.170812074000,0.102000000000
18.178498359000,0.116000000000
18.186184644000,0.126000000000
18.193870929000,0.131000000000
18.201557214000,0.133000000000
18.209243499000,0.136000000000
18.216929784000,0.131000000000
18.224616069000,0.119000000000
18.232302354000,0.094000000000
18.239988639000,0.055000000000
18.247674984000,0.004000000000
18.255361409000,-0.046000000000
18.263047834000,-0.092000000000
18.270734259000,-0.128000000000
18.278420684000,-0.150000000000
18.286107109000,-0.163000000000
18.293793534000,-0.167000000000
18.301479959000,-0.165000000000
18.309166384000,-0.163000000000
18.316852809000,-0.155000000000
18.324539234000,-0.150000000000
18.332225659000,-0.145000000000
18.339912084000,-0.138000000000
18.347598509000,-0.131000000000
18.355284934000,-0.128000000000
18.362971359000,-0.126000000000
18.370657784000,-0.121000000000
18.378344209000,-0.119000000000
18.386030634000,-0.119000000000
18.393717059000,-0.119000000000
18.401403484000,-0.119000000000
18.409089909000,-0.121000000000
18.416776334000,-0.124000000000
18.424462759000,-0.121000000000
18.432149184000,-0.124000000000
18.439835609000,-0.126000000000
18.447522034000,-0.128000000000
18.455208459000,-0.126000000000
18.462894884000,-0.124000000000
18.470581309000,-0.124000000000
18.478267734000,-0.121000000000
18.485954159000,-0.119000000000
18.493640584000,-0.119000000000
18.501327009000,-0.116000000000
18.509013434000,-0.116000000000
18.516699859000,-0.114000000000
18.524386284000,-0.111000000000
18.532072709000,-0.109000000000
18.539759134000,-0.107000000000
18.547445559000,-0.104000000000
18.555131984000,-0.104000000000
18.562818409000,-0.102000000000
18.570504834000,-0.097000000000
18.578191259000,-0.097000000000
18.585877684000,-0.094000000000
18.593564109000,-0.094000000000
18.601250534000,-0.094000000000
18.608936959000,-0.092000000000
18.616623384000,-0.090000000000
18.624309809000,-0.090000000000
18.631996234000,-0.087000000000
18.639682659000,-0.085000000000
18.647369084000,-0.082000000000
18.655055509000,-0.082000000000
18.662741934000,-0.082000000000
18.670428359000,-0.080000000000
18.678114784000,-0.077000000000
18.685801209000,-0.077000000000
18.693487634000,-0.077000000000
18.701174059000,-0.077000000000
18.708860484000,-0.077000000000
18.716546909000,-0.082000000000
18.724233334000,-0.090000000000
18.731919759000,-0.092000000000
18.739606184000,-0.087000000000
18.747292609000,-0.080000000000
18.754979034000,-0.063000000000
18.762665459000,-0.048000000000
18.770351884000,-0.041000000000
18.778038309000,-0.038000000000
18.785724734000,-0.043000000000
18.793411159000,-0.063000000000
18.801097584000,-0.077000000000
18.808784019000,-0.075000000000
18.816470583000,-0.072000000000
18.824157147000,-0.075000000000
18.831843711000,-0.072000000000
18.839530275000,-0.072000000000
18.847216839000,-0.090000000000
18.854903403000,-0.133000000000
18.862589967000,-0.060000000000
18.870276531000,0.413000000000
18.877963095000,1.085000000000
18.885649659000,1.119000000000
18.893336223000,0.221000000000
18.901022787000,-0.605000000000
18.908709351000,-0.545000000000
18.916395915000,-0.248000000000
18.924082479000,-0.260000000000
18.931769043000,-0.218000000000
18.939455607000,-0.087000000000
18.947142171000,-0.094000000000
18.954828735000,-0.121000000000
18.962515299000,-0.080000000000
18.970201863000,-0.065000000000
18.977888427000,-0.070000000000
18.985574991000,-0.055000000000
18.993261555000,-0.043000000000
19.000948119000,-0.046000000000
19.008634683000,-0.036000000000
19.016321247000,-0.024000000000
19.024007811000,-0.021000000000
19.031694375000,-0.014000000000
19.039380939000,-0.004000000000
19.047067503000,0.002000000000
19.054754067000,0.009000000000
19.062440631000,0.019000000000
19.070127195000,0.029000000000
19.077813759000,0.038000000000
19.085500323000,0.043000000000
19.093186887000,0.055000000000
19.100873451000,0.068000000000
19.108560015000,0.085000000000
19.116246579000,0.097000000000
19.123933143000,0.114000000000
19.131619707000,0.126000000000
19.139306271000,0.131000000000
19.146992835000,0.133000000000
19.154679399000,0.138000000000
19.162365963000,0.136000000000
19.170052527000,0.124000000000
19.177739091000,0.099000000000
19.185425655000,0.060000000000
19.193112219000,0.009000000000
19.200798783000,-0.038000000000
19.208485347000,-0.082000000000
19.216171911000,-0.121000000000
19.223858475000,-0.148000000000
19.231545039000,-0.163000000000
19.239231603000,-0.165000000000
19.246918167000,-0.165000000000
19.254604731000,-0.163000000000
19.262291295000,-0.155000000000
19.269977859000,-0.150000000000
19.277664423000,-0.145000000000
19.285350987000,-0.136000000000
19.293037551000,-0.131000000000
19.300724115000,-0.126000000000
19.308410679000,-0.119000000000
19.316097243000,-0.116000000000
19.323783807000,-0.116000000000
19.331470371000,-0.114000000000
19.339156935000,-0.114000000000
19.346843499000,-0.116000000000
19.354530063000,-0.119000000000
19.362216627000,-0.116000000000
19.369903224000,-0.116000000000
19.377589509000,-0.121000000000
19.385275794000,-0.121000000000
19.392962079000,-0.119000000000
19.400648364000,-0.116000000000
19.408334649000,-0.116000000000
19.416020934000,-0.114000000000
19.423707219000,-0.114000000000
19.431393504000,-0.114000000000
19.439079789000,-0.116000000000
19.446766074000,-0.114000000000
19.454452359000,-0.107000000000
19.462138644000,-0.104000000000
19.469824929000,-0.109000000000
19.477511214000,-0.102000000000
19.485197499000,-0.097000000000
19.492883784000,-0.099000000000
19.500570069000,-0.097000000000
19.508256354000,-0.092000000000
19.515942639000,-0.097000000000
19.523628924000,-0.094000000000
19.531315209000,-0.090000000000
19.539001494000,-0.087000000000
19.546687779000,-0.085000000000
19.554374064000,-0.082000000000
19.562060349000,-0.082000000000
19.569746634000,-0.085000000000
19.577432919000,-0.092000000000
19.585119204000,-0.092000000000
19.592805489000,-0.087000000000
19.600491774000,-0.082000000000
19.608178059000,-0.072000000000
19.615864344000,-0.055000000000
19.623550629000,-0.046000000000
19.631236914000,-0.041000000000
19.638923199000,-0.041000000000
19.646609484000,-0.060000000000
19.654295769000,-0.077000000000
19.661982054000,-0.072000000000
19.669668339000,-0.068000000000
19.677354624000,-0.075000000000
19.685040909000,-0.072000000000
19.692727194000,-0.070000000000
19.700413479000,-0.080000000000
19.708099764000,-0.094000000000
19.715786049000,-0.014000000000
19.723472334000,0.396000000000
19.731158619000,1.034000000000
19.738844904000,1.085000000000
19.746531189000,0.163000000000
19.754217474000,-0.693000000000
19.761903759000,-0.615000000000
19.769590044000,-0.304000000000
19.777276329000,-0.311000000000
19.784962614000,-0.240000000000
19.792648899000,-0.068000000000
19.800335184000,-0.058000000000
19.808021469000,-0.090000000000
19.815707754000,-0.051000000000
19.823394039000,-0.036000000000
19.831080324000,-0.043000000000
19.838766609000,-0.026000000000
19.846452894000,-0.014000000000
19.854139179000,-0.017000000000
19.861825464000,-0.007000000000
19.869511749000,0.002000000000
19.877198034000,0.009000000000
19.884884319000,0.014000000000
19.892570604000,0.024000000000
19.900256889000,0.031000000000
19.907943174000,0.041000000000
19.915629459000,0.051000000000
19.923315744000,0.060000000000
19.931002085000,0.070000000000
19.938688788000,0.085000000000
19.946375491000,0.099000000000
19.954062194000,0.114000000000
19.961748897000,0.128000000000
19.969435600000,0.145000000000
19.977122303000,0.160000000000
19.984809006000,0.170000000000
19.992495709000,0.177000000000
20.000182412000,0.177000000000
20.007869115000,0.175000000000
20.015555818000,0.165000000000
20.023242521000,0.145000000000
20.030929224000,0.107000000000
20.038615927000,0.055000000000
20.046302630000,-0.004000000000
20.053989333000,-0.065000000000
20.061676036000,-0.119000000000
20.069362739000,-0.158000000000
20.077049442000,-0.177000000000
20.084736145000,-0.189000000000
20.092422848000,-0.192000000000
20.100109551000,-0.187000000000
20.107796254000,-0.182000000000
20.115482957000,-0.175000000000
20.123169660000,-0.167000000000
20.130856363000,-0.155000000000
20.138543066000,-0.143000000000
20.146229769000,-0.133000000000
20.153916472000,-0.131000000000
20.161603175000,-0.126000000000
20.169289878000,-0.121000000000
20.176976581000,-0.121000000000
20.184663284000,-0.121000000000
20.192349987000,-0.121000000000
20.200036690000,-0.121000000000
20.207723393000,-0.124000000000
20.215410096000,-0.128000000000
20.223096799000,-0.126000000000
20.230783502000,-0.126000000000
20.238470205000,-0.128000000000
20.246156908000,-0.131000000000
20.253843611000,-0.128000000000
20.261530314000,-0.126000000000
20.269217017000,-0.126000000000
20.276903720000,-0.126000000000
20.284590423000,-0.126000000000
20.292277126000,-0.126000000000
20.299963829000,-0.124000000000
20.307650532000,-0.121000000000
20.315337235000,-0.119000000000
20.323023938000,-0.116000000000
20.330710641000,-0.114000000000
20.338397344000,-0.114000000000
20.346084047000,-0.111000000000
20.353770750000,-0.109000000000
20.361457453000,-0.104000000000
20.369144156000,-0.102000000000
20.376830859000,-0.104000000000
20.384517562000,-0.109000000000
20.392204265000,-0.116000000000
20.399890968000,-0.116000000000
20.407577671000,-0.111000000000
20.415264374000,-0.099000000000
20.422951077000,-0.080000000000
20.430637780000,-0.068000000000
20.438324483000,-0.063000000000
20.446011186000,-0.055000000000
20.453697889000,-0.063000000000
20.461384592000,-0.085000000000
20.469071295000,-0.092000000000
20.476757998000,-0.085000000000
20.484444701000,-0.087000000000
20.492131464000,-0.087000000000
20.499817749000,-0.080000000000
20.507504034000,-0.082000000000
20.515190319000,-0.111000000000
20.522876604000,-0.150000000000
20.530562889000,0.012000000000
20.538249174000,0.613000000000
20.545935459000,1.209000000000
20.553621744000,0.931000000000
20.561308029000,-0.116000000000
20.568994314000,-0.715000000000
20.576680599000,-0.452000000000
20.584366884000,-0.228000000000
20.592053169000,-0.274000000000
20.599739454000,-0.175000000000
20.607425739000,-0.072000000000
20.615112024000,-0.107000000000
20.622798309000,-0.109000000000
20.630484594000,-0.065000000000
20.638170879000,-0.065000000000
20.645857164000,-0.068000000000
20.653543449000,-0.051000000000
20.661229734000,-0.043000000000
20.668916019000,-0.041000000000
20.676602304000,-0.031000000000
20.684288589000,-0.024000000000
20.691974874000,-0.021000000000
20.699661159000,-0.012000000000
20.707347444000,-0.002000000000
20.715033729000,0.004000000000
20.722720014000,0.012000000000
20.730406299000,0.021000000000
20.738092584000,0.031000000000
20.745778869000,0.043000000000
20.753465154000,0.058000000000
20.761151439000,0.070000000000
20.768837724000,0.087000000000
20.776524009000,0.107000000000
20.784210294000,0.124000000000
20.791896579000,0.138000000000
20.799582864000,0.148000000000
20.807269149000,0.155000000000
20.814955434000,0.158000000000
20.822641719000,0.158000000000
20.830328004000,0.148000000000
20.838014289000,0.119000000000
20.845700574000,0.072000000000
20.853386859000,0.017000000000
20.861073144000,-0.041000000000
20.868759429000,-0.092000000000
20.876445714000,-0.133000000000
20.884131999000,-0.163000000000
20.891818284000,-0.180000000000
20.899504569000,-0.187000000000
20.907190854000,-0.187000000000
20.914877139000,-0.180000000000
20.922563424000,-0.175000000000
20.930249709000,-0.167000000000
20.937935994000,-0.160000000000
20.945622279000,-0.153000000000
20.953308564000,-0.145000000000
20.960994849000,-0.138000000000
20.968681134000,-0.133000000000
20.976367419000,-0.128000000000
20.984053704000,-0.126000000000
20.991739989000,-0.126000000000
20.999426274000,-0.124000000000
21.007112559000,-0.124000000000
21.014798844000,-0.124000000000
21.022485129000,-0.126000000000
21.030171414000,-0.126000000000
21.037857699000,-0.126000000000
21.045543984000,-0.126000000000
21.053230325000,-0.126000000000
21.060917028000,-0.126000000000
21.068603731000,-0.124000000000
21.076290434000,-0.121000000000
21.083977137000,-0.121000000000
21.091663840000,-0.119000000000
21.099350543000,-0.116000000000
21.107037246000,-0.116000000000
21.114723949000,-0.114000000000
21.122410652000,-0.114000000000
21.130097355000,-0.111000000000
21.137784058000,-0.111000000000
21.145470761000,-0.109000000000
21.153157464000,-0.107000000000
21.160844167000,-0.102000000000
21.168530870000,-0.102000000000
21.176217573000,-0.102000000000
21.183904276000,-0.097000000000
21.191590979000,-0.094000000000
21.199277682000,-0.094000000000
21.206964385000,-0.092000000000
21.214651088000,-0.090000000000
21.222337791000,-0.087000000000
21.230024494000,-0.085000000000
21.237711197000,-0.082000000000
21.245397900000,-0.082000000000
21.253084603000,-0.090000000000
21.260771306000,-0.099000000000
21.268458009000,-0.102000000000
21.276144712000,-0.094000000000
21.283831415000,-0.080000000000
21.291518118000,-0.060000000000
21.299204821000,-0.051000000000
21.306891524000,-0.051000000000
21.314578227000,-0.046000000000
21.322264930000,-0.051000000000
21.329951633000,-0.075000000000
21.337638336000,-0.082000000000
21.345325039000,-0.077000000000
21.353011742000,-0.077000000000
21.360698445000,-0.080000000000
21.368385148000,-0.077000000000
21.376071851000,-0.077000000000
21.383758554000,-0.104000000000
21.391445257000,-0.148000000000
21.399131960000,0.000000000000
21.406818663000,0.586000000000
21.414505366000,1.206000000000
21.422192069000,1.009000000000
21.429878772000,0.004000000000
21.437565475000,-0.649000000000
21.445252178000,-0.442000000000
21.452938881000,-0.209000000000
21.460625584000,-0.255000000000
21.468312287000,-0.180000000000
21.475998990000,-0.080000000000
21.483685693000,-0.111000000000
21.491372396000,-0.116000000000
21.499059099000,-0.072000000000
21.506745802000,-0.072000000000
21.514432505000,-0.075000000000
21.522119208000,-0.058000000000
21.529805911000,-0.048000000000
21.537492614000,-0.048000000000
21.545179317000,-0.038000000000
21.552866020000,-0.029000000000
21.560552723000,-0.024000000000
21.568239426000,-0.017000000000
21.575926129000,-0.007000000000
21.583612832000,0.000000000000
21.591299535000,0.007000000000
21.598986238000,0.014000000000
21.606672941000,0.024000000000
21.614359708000,0.036000000000
21.622045993000,0.048000000000
21.629732278000,0.063000000000
21.637418563000,0.080000000000
21.645104848000,0.099000000000
21.652791133000,0.119000000000
21.660477418000,0.133000000000
21.668163703000,0.145000000000
21.675849988000,0.153000000000
21.683536273000,0.158000000000
21.691222558000,0.155000000000
21.698908843000,0.148000000000
21.706595128000,0.126000000000
21.714281413000,0.087000000000
21.721967698000,0.034000000000
21.729653983000,-0.021000000000
21.737340268000,-0.072000000000
21.745026553000,-0.114000000000
21.752712838000,-0.145000000000
21.760399123000,-0.167000000000
21.768085408000,-0.177000000000
21.775771693000,-0.177000000000
21.783457978000,-0.177000000000
21.791144263000,-0.172000000000
21.798830548000,-0.165000000000
21.806516833000,-0.160000000000
21.814203118000,-0.153000000000
21.821889403000,-0.145000000000
21.829575688000,-0.141000000000
21.837261973000,-0.136000000000
21.844948258000,-0.133000000000
21.852634543000,-0.131000000000
21.860320828000,-0.128000000000
21.868007113000,-0.126000000000
21.875693398000,-0.124000000000
21.883379683000,-0.124000000000
21.891065968000,-0.124000000000
21.898752253000,-0.124000000000
21.906438538000,-0.124000000000
21.914124823000,-0.124000000000
21.921811108000,-0.124000000000
21.929497393000,-0.124000000000
21.937183678000,-0.124000000000
21.944869963000,-0.121000000000
21.952556248000,-0.121000000000
21.960242533000,-0.119000000000
21.967928818000,-0.116000000000
21.975615103000,-0.114000000000
21.983301388000,-0.114000000000
21.990987673000,-0.111000000000
21.998673958000,-0.109000000000
22.006360243000,-0.109000000000
22.014046528000,-0.107000000000
22.021732813000,-0.104000000000
22.029419098000,-0.102000000000
22.037105383000,-0.099000000000
22.044791668000,-0.099000000000
22.052477953000,-0.097000000000
22.060164238000,-0.094000000000
22.067850523000,-0.092000000000
22.075536808000,-0.092000000000
22.083223093000,-0.090000000000
22.090909378000,-0.090000000000
22.098595663000,-0.087000000000
22.106281948000,-0.087000000000
22.113968233000,-0.085000000000
22.121654518000,-0.085000000000
22.129340803000,-0.082000000000
22.137027088000,-0.082000000000
22.144713373000,-0.080000000000
22.152399658000,-0.077000000000
22.160085943000,-0.077000000000
22.167772228000,-0.077000000000
22.175458569000,-0.075000000000
22.183145272000,-0.075000000000
22.190831975000,-0.082000000000
22.198518678000,-0.092000000000
22.206205381000,-0.092000000000
22.213892084000,-0.090000000000
22.221578787000,-0.075000000000
22.229265490000,-0.053000000000
22.236952193000,-0.046000000000
22.244638896000,-0.048000000000
22.252325599000,-0.038000000000
22.260012302000,-0.046000000000
22.267699005000,-0.070000000000
22.275385708000,-0.077000000000
22.283072411000,-0.072000000000
22.290759114000,-0.077000000000
22.298445817000,-0.077000000000
22.306132520000,-0.070000000000
22.313819223000,-0.072000000000
22.321505926000,-0.099000000000
22.329192629000,-0.145000000000
22.336879332000,-0.026000000000
22.344566035000,0.528000000000
22.352252738000,1.177000000000
22.359939441000,1.065000000000
22.367626144000,0.094000000000
22.375312847000,-0.630000000000
22.382999550000,-0.476000000000
22.390686253000,-0.216000000000
22.398372956000,-0.253000000000
22.406059659000,-0.192000000000
22.413746362000,-0.082000000000
22.421433065000,-0.107000000000
22.429119768000,-0.116000000000
22.436806471000,-0.072000000000
22.444493174000,-0.068000000000
22.452179877000,-0.075000000000
22.459866580000,-0.058000000000
22.467553283000,-0.046000000000
22.475239986000,-0.048000000000
22.482926689000,-0.041000000000
22.490613392000,-0.031000000000
22.498300095000,-0.021000000000
22.505986798000,-0.017000000000
22.513673501000,-0.009000000000
22.521360204000,0.000000000000
22.529046907000,0.007000000000
22.536733610000,0.017000000000
22.544420313000,0.029000000000
22.552107016000,0.038000000000
22.559793719000,0.046000000000
22.567480422000,0.058000000000
22.575167125000,0.077000000000
22.582853828000,0.094000000000
22.590540531000,0.111000000000
22.598227234000,0.126000000000
22.605913937000,0.138000000000
22.613600640000,0.148000000000
22.621287343000,0.153000000000
22.628974046000,0.155000000000
22.636660749000,0.150000000000
22.644347452000,0.133000000000
22.652034155000,0.099000000000
22.659720858000,0.053000000000
22.667407561000,-0.002000000000
22.675094264000,-0.055000000000
22.682780967000,-0.102000000000
22.690467670000,-0.138000000000
22.698154373000,-0.160000000000
22.705841076000,-0.175000000000
22.713527779000,-0.177000000000
22.721214482000,-0.175000000000
22.728901185000,-0.170000000000
22.736587948000,-0.165000000000
22.744274233000,-0.158000000000
22.751960518000,-0.150000000000
22.759646803000,-0.145000000000
22.767333088000,-0.141000000000
22.775019373000,-0.133000000000
22.782705658000,-0.128000000000
22.790391943000,-0.128000000000
22.798078228000,-0.126000000000
22.805764513000,-0.124000000000
22.813450798000,-0.124000000000
22.821137083000,-0.124000000000
22.828823368000,-0.124000000000
22.836509653000,-0.126000000000
22.844195938000,-0.126000000000
22.851882223000,-0.124000000000
22.859568508000,-0.126000000000
22.867254793000,-0.126000000000
22.874941078000,-0.126000000000
22.882627363000,-0.124000000000
22.890313648000,-0.124000000000
22.897999933000,-0.121000000000
22.905686218000,-0.119000000000
22.913372503000,-0.116000000000
22.921058788000,-0.116000000000
22.928745073000,-0.116000000000
22.936431358000,-0.114000000000
22.944117643000,-0.111000000000
22.951803928000,-0.111000000000
22.959490213000,-0.109000000000
22.967176498000,-0.107000000000
22.974862783000,-0.107000000000
22.982549068000,-0.104000000000
22.990235353000,-0.099000000000
22.997921638000,-0.099000000000
23.005607923000,-0.099000000000
23.013294208000,-0.097000000000
23.020980493000,-0.094000000000
23.028666778000,-0.092000000000
23.036353063000,-0.090000000000
23.044039348000,-0.090000000000
23.051725633000,-0.087000000000
23.059411918000,-0.085000000000
23.067098203000,-0.085000000000
23.074784488000,-0.082000000000
23.082470773000,-0.080000000000
23.090157058000,-0.080000000000
23.097843343000,-0.077000000000
23.105529628000,-0.077000000000
23.113215913000,-0.077000000000
23.120902198000,-0.075000000000
23.128588483000,-0.075000000000
23.136274768000,-0.075000000000
23.143961053000,-0.072000000000
23.151647338000,-0.072000000000
23.159333623000,-0.072000000000
23.167019908000,-0.072000000000
23.174706193000,-0.070000000000
23.182392478000,-0.072000000000
23.190078763000,-0.082000000000
23.197765048000,-0.085000000000
23.205451333000,-0.085000000000
23.213137618000,-0.080000000000
23.220823903000,-0.058000000000
23.228510188000,-0.041000000000
23.236196473000,-0.038000000000
23.243882758000,-0.034000000000
23.251569043000,-0.034000000000
23.259255328000,-0.053000000000
23.266941613000,-0.070000000000
23.274627898000,-0.065000000000
23.282314183000,-0.068000000000
23.290000468000,-0.070000000000
23.297686809000,-0.068000000000
23.305373512000,-0.068000000000
23.313060215000,-0.080000000000
23.320746918000,-0.126000000000
23.328433621000,-0.114000000000
23.336120324000,0.253000000000
23.343807027000,0.958000000000
23.351493730000,1.240000000000
23.359180433000,0.537000000000
23.366867136000,-0.437000000000
23.374553839000,-0.613000000000
23.382240542000,-0.287000000000
23.389927245000,-0.231000000000
23.397613948000,-0.245000000000
23.405300651000,-0.114000000000
23.412987354000,-0.085000000000
23.420674057000,-0.124000000000
23.428360760000,-0.094000000000
23.436047463000,-0.068000000000
23.443734166000,-0.075000000000
23.451420869000,-0.068000000000
23.459107572000,-0.051000000000
23.466794275000,-0.048000000000
23.474480978000,-0.046000000000
23.482167681000,-0.036000000000
23.489854384000,-0.026000000000
23.497541087000,-0.021000000000
23.505227790000,-0.014000000000
23.512914493000,-0.004000000000
23.520601196000,0.002000000000
23.528287899000,0.009000000000
23.535974602000,0.019000000000
23.543661305000,0.031000000000
23.551348008000,0.041000000000
23.559034711000,0.053000000000
23.566721414000,0.068000000000
23.574408117000,0.085000000000
23.582094820000,0.102000000000
23.589781523000,0.119000000000
23.597468226000,0.133000000000
23.605154929000,0.143000000000
23.612841632000,0.148000000000
23.620528335000,0.150000000000
23.628215038000,0.150000000000
23.635901741000,0.141000000000
23.643588444000,0.121000000000
23.651275147000,0.082000000000
23.658961850000,0.029000000000
23.666648553000,-0.026000000000
23.674335256000,-0.075000000000
23.682021959000,-0.116000000000
23.689708662000,-0.150000000000
23.697395365000,-0.167000000000
23.705082068000,-0.177000000000
23.712768771000,-0.182000000000
23.720455474000,-0.177000000000
23.728142177000,-0.170000000000
23.735828880000,-0.165000000000
23.743515583000,-0.158000000000
23.751202286000,-0.150000000000
23.758888989000,-0.145000000000
23.766575692000,-0.138000000000
23.774262395000,-0.133000000000
23.781949098000,-0.128000000000
23.789635801000,-0.128000000000
23.797322504000,-0.126000000000
23.805009207000,-0.121000000000
23.812695910000,-0.119000000000
23.820382613000,-0.119000000000
23.828069316000,-0.121000000000
23.835756019000,-0.121000000000
23.843442722000,-0.124000000000
23.851129425000,-0.124000000000
23.858816188000,-0.124000000000
23.866502473000,-0.124000000000
23.874188758000,-0.124000000000
23.881875043000,-0.126000000000
23.889561328000,-0.124000000000
23.897247613000,-0.121000000000
23.904933898000,-0.116000000000
23.912620183000,-0.116000000000
23.920306468000,-0.114000000000
23.927992753000,-0.114000000000
23.935679038000,-0.111000000000
23.943365323000,-0.109000000000
23.951051608000,-0.107000000000
23.958737893000,-0.107000000000
23.966424178000,-0.107000000000
23.974110463000,-0.109000000000
23.981796748000,-0.104000000000
23.989483033000,-0.099000000000
23.997169318000,-0.097000000000
24.004855603000,-0.094000000000
24.012541888000,-0.092000000000
24.020228173000,-0.090000000000
24.027914458000,-0.090000000000
24.035600743000,-0.087000000000
24.043287028000,-0.087000000000
24.050973313000,-0.085000000000
24.058659598000,-0.082000000000
24.066345883000,-0.082000000000
24.074032168000,-0.082000000000
24.081718453000,-0.082000000000
24.089404738000,-0.077000000000
24.097091023000,-0.075000000000
24.104777308000,-0.082000000000
24.112463593000,-0.092000000000
24.120149878000,-0.090000000000
24.127836163000,-0.085000000000
24.135522448000,-0.077000000000
24.143208733000,-0.063000000000
24.150895018000,-0.048000000000
24.158581303000,-0.043000000000
24.166267588000,-0.041000000000
24.173953873000,-0.046000000000
24.181640158000,-0.065000000000
24.189326443000,-0.077000000000
24.197012728000,-0.075000000000
24.204699013000,-0.072000000000
24.212385298000,-0.072000000000
24.220071583000,-0.068000000000
24.227757868000,-0.070000000000
24.235444153000,-0.090000000000
24.243130438000,-0.119000000000
24.250816723000,0.024000000000
24.258503008000,0.579000000000
24.266189293000,1.187000000000
24.273875578000,0.987000000000
24.281561863000,-0.036000000000
24.289248148000,-0.705000000000
24.296934433000,-0.501000000000
24.304620718000,-0.253000000000
24.312307003000,-0.284000000000
24.319993288000,-0.192000000000
24.327679573000,-0.070000000000
24.335365858000,-0.094000000000
24.343052143000,-0.104000000000
24.350738428000,-0.063000000000
24.358424713000,-0.058000000000
24.366110998000,-0.063000000000
24.373797283000,-0.048000000000
24.381483568000,-0.038000000000
24.389169853000,-0.038000000000
24.396856138000,-0.029000000000
24.404542423000,-0.017000000000
24.412228708000,-0.007000000000
24.419915049000,0.000000000000
24.427601752000,0.007000000000
24.435288455000,0.017000000000
24.442975158000,0.026000000000
24.450661861000,0.034000000000
24.458348564000,0.043000000000
24.466035267000,0.058000000000
24.473721970000,0.075000000000
24.481408673000,0.087000000000
24.489095376000,0.107000000000
24.496782079000,0.126000000000
24.504468782000,0.145000000000
24.512155485000,0.163000000000
24.519842188000,0.177000000000
24.527528891000,0.184000000000
24.535215594000,0.187000000000
24.542902297000,0.187000000000
24.550589000000,0.180000000000
24.558275703000,0.153000000000
24.565962406000,0.111000000000
24.573649109000,0.055000000000
24.581335812000,-0.007000000000
24.589022515000,-0.068000000000
24.596709218000,-0.121000000000
24.604395921000,-0.160000000000
24.612082624000,-0.184000000000
24.619769327000,-0.197000000000
24.627456030000,-0.201000000000
24.635142733000,-0.199000000000
24.642829436000,-0.192000000000
24.650516139000,-0.180000000000
24.658202842000,-0.170000000000
24.665889545000,-0.160000000000
24.673576248000,-0.153000000000
24.681262951000,-0.143000000000
24.688949654000,-0.131000000000
24.696636357000,-0.124000000000
24.704323060000,-0.121000000000
24.712009763000,-0.119000000000
24.719696466000,-0.119000000000
24.727383169000,-0.119000000000
24.735069872000,-0.119000000000
24.742756575000,-0.124000000000
24.750443278000,-0.126000000000
24.758129981000,-0.126000000000
24.765816684000,-0.126000000000
24.773503387000,-0.126000000000
24.781190090000,-0.126000000000
24.788876793000,-0.128000000000
24.796563496000,-0.128000000000
24.804250199000,-0.126000000000
24.811936902000,-0.126000000000
24.819623605000,-0.124000000000
24.827310308000,-0.124000000000
24.834997011000,-0.121000000000
24.842683714000,-0.119000000000
24.850370417000,-0.114000000000
24.858057120000,-0.114000000000
24.865743823000,-0.114000000000
24.873430526000,-0.109000000000
24.881117229000,-0.107000000000
24.888803932000,-0.107000000000
24.896490635000,-0.107000000000
24.904177338000,-0.102000000000
24.911864041000,-0.099000000000
24.919550744000,-0.102000000000
24.927237447000,-0.099000000000
24.934924150000,-0.094000000000
24.942610853000,-0.097000000000
24.950297556000,-0.102000000000
24.957984259000,-0.104000000000
24.965670962000,-0.107000000000
24.973357665000,-0.102000000000
24.981044432000,-0.087000000000
24.988730717000,-0.068000000000
24.996417002000,-0.060000000000
25.004103287000,-0.058000000000
25.011789572000,-0.048000000000
25.019475857000,-0.058000000000
25.027162142000,-0.080000000000
25.034848427000,-0.087000000000
25.042534712000,-0.085000000000
25.050220997000,-0.082000000000
25.057907282000,-0.080000000000
25.065593567000,-0.080000000000
25.073279852000,-0.085000000000
25.080966137000,-0.111000000000
25.088652422000,-0.136000000000
25.096338707000,0.080000000000
25.104024992000,0.722000000000
25.111711277000,1.231000000000
25.119397562000,0.790000000000
25.127083847000,-0.274000000000
25.134770132000,-0.727000000000
25.142456417000,-0.416000000000
25.150142702000,-0.245000000000
25.157828987000,-0.279000000000
25.165515272000,-0.153000000000
25.173201557000,-0.065000000000
25.180887842000,-0.107000000000
25.188574127000,-0.099000000000
25.196260412000,-0.060000000000
25.203946697000,-0.063000000000
25.211632982000,-0.063000000000
25.219319267000,-0.046000000000
25.227005552000,-0.038000000000
25.234691837000,-0.038000000000
25.242378122000,-0.026000000000
25.250064407000,-0.019000000000
25.257750692000,-0.017000000000
25.265436977000,-0.009000000000
25.273123262000,0.000000000000
25.280809547000,0.007000000000
25.288495832000,0.017000000000
25.296182117000,0.029000000000
25.303868402000,0.038000000000
25.311554687000,0.048000000000
25.319240972000,0.063000000000
25.326927257000,0.082000000000
25.334613542000,0.102000000000
25.342299827000,0.124000000000
25.349986112000,0.143000000000
25.357672397000,0.165000000000
25.365358682000,0.180000000000
25.373044967000,0.187000000000
25.380731252000,0.192000000000
25.388417537000,0.189000000000
25.396103822000,0.177000000000
25.403790107000,0.145000000000
25.411476392000,0.092000000000
25.419162677000,0.031000000000
25.426848962000,-0.031000000000
25.434535247000,-0.090000000000
25.442221532000,-0.138000000000
25.449907817000,-0.172000000000
25.457594102000,-0.194000000000
25.465280387000,-0.204000000000
25.472966672000,-0.206000000000
25.480652957000,-0.199000000000
25.488339242000,-0.189000000000
25.496025527000,-0.182000000000
25.503711812000,-0.172000000000
25.511398097000,-0.160000000000
25.519084382000,-0.150000000000
25.526770667000,-0.143000000000
25.534456952000,-0.138000000000
25.542143293000,-0.131000000000
25.549829996000,-0.128000000000
25.557516699000,-0.126000000000
25.565203402000,-0.124000000000
25.572890105000,-0.121000000000
25.580576808000,-0.124000000000
25.588263511000,-0.126000000000
25.595950214000,-0.131000000000
25.603636917000,-0.131000000000
25.611323620000,-0.131000000000
25.619010323000,-0.131000000000
25.626697026000,-0.131000000000
25.634383729000,-0.131000000000
25.642070432000,-0.131000000000
25.649757135000,-0.131000000000
25.657443838000,-0.126000000000
25.665130541000,-0.126000000000
25.672817244000,-0.126000000000
25.680503947000,-0.121000000000
25.688190650000,-0.119000000000
25.695877353000,-0.116000000000
25.703564056000,-0.114000000000
25.711250759000,-0.111000000000
25.718937462000,-0.111000000000
25.726624165000,-0.109000000000
25.734310868000,-0.109000000000
25.741997571000,-0.109000000000
25.749684274000,-0.104000000000
25.757370977000,-0.102000000000
25.765057680000,-0.102000000000
25.772744383000,-0.099000000000
25.780431086000,-0.097000000000
25.788117789000,-0.094000000000
25.795804492000,-0.097000000000
25.803491195000,-0.094000000000
25.811177898000,-0.092000000000
25.818864601000,-0.092000000000
25.826551304000,-0.094000000000
25.834238007000,-0.102000000000
25.841924710000,-0.107000000000
25.849611413000,-0.109000000000
25.857298116000,-0.102000000000
25.864984819000,-0.087000000000
25.872671522000,-0.065000000000
25.880358225000,-0.060000000000
25.888044928000,-0.058000000000
25.895731631000,-0.048000000000
25.903418334000,-0.055000000000
25.911105037000,-0.080000000000
25.918791740000,-0.087000000000
25.926478443000,-0.082000000000
25.934165146000,-0.085000000000
25.941851849000,-0.085000000000
25.949538552000,-0.080000000000
25.957225255000,-0.085000000000
25.964911958000,-0.119000000000
25.972598661000,-0.158000000000
25.980285364000,0.034000000000
25.987972067000,0.664000000000
25.995658770000,1.238000000000
26.003345473000,0.934000000000
26.011032176000,-0.094000000000
26.018718879000,-0.664000000000
26.026405582000,-0.418000000000
26.034092285000,-0.218000000000
26.041778988000,-0.267000000000
26.049465691000,-0.172000000000
26.057152394000,-0.085000000000
26.064839097000,-0.121000000000
26.072525800000,-0.119000000000
26.080212503000,-0.080000000000
26.087899206000,-0.082000000000
26.095585909000,-0.080000000000
26.103272672000,-0.063000000000
26.110958957000,-0.058000000000
26.118645242000,-0.055000000000
26.126331527000,-0.046000000000
26.134017812000,-0.038000000000
26.141704097000,-0.034000000000
26.149390382000,-0.026000000000
26.157076667000,-0.019000000000
26.164762952000,-0.009000000000
26.172449237000,-0.002000000000
26.180135522000,0.007000000000
26.187821807000,0.019000000000
26.195508092000,0.031000000000
26.203194377000,0.046000000000
26.210880662000,0.060000000000
26.218566947000,0.080000000000
26.226253232000,0.099000000000
26.233939517000,0.119000000000
26.241625802000,0.138000000000
26.249312087000,0.153000000000
26.256998372000,0.165000000000
26.264684657000,0.170000000000
26.272370942000,0.170000000000
26.280057227000,0.165000000000
26.287743512000,0.141000000000
26.295429797000,0.097000000000
26.303116082000,0.041000000000
26.310802367000,-0.014000000000
26.318488652000,-0.070000000000
26.326174937000,-0.119000000000
26.333861222000,-0.155000000000
26.341547507000,-0.175000000000
26.349233792000,-0.187000000000
26.356920077000,-0.189000000000
26.364606362000,-0.187000000000
26.372292647000,-0.182000000000
26.379978932000,-0.175000000000
26.387665217000,-0.167000000000
26.395351502000,-0.160000000000
26.403037787000,-0.153000000000
26.410724072000,-0.150000000000
26.418410357000,-0.143000000000
26.426096642000,-0.136000000000
26.433782927000,-0.133000000000
26.441469212000,-0.131000000000
26.449155497000,-0.128000000000
26.456841782000,-0.126000000000
26.464528067000,-0.126000000000
26.472214352000,-0.126000000000
26.479900637000,-0.126000000000
26.487586922000,-0.126000000000
26.495273207000,-0.126000000000
26.502959492000,-0.126000000000
26.510645777000,-0.126000000000
26.518332062000,-0.126000000000
26.526018347000,-0.126000000000
26.533704632000,-0.124000000000
26.541390917000,-0.121000000000
26.549077202000,-0.121000000000
26.556763487000,-0.119000000000
26.564449772000,-0.119000000000
26.572136057000,-0.116000000000
26.579822342000,-0.114000000000
26.587508627000,-0.111000000000
26.595194912000,-0.111000000000
26.602881197000,-0.109000000000
26.610567482000,-0.109000000000
26.618253767000,-0.107000000000
26.625940052000,-0.104000000000
26.633626337000,-0.102000000000
26.641312622000,-0.099000000000
26.648998907000,-0.099000000000
26.656685192000,-0.097000000000
26.664371533000,-0.094000000000
26.672058167000,-0.092000000000
26.679744801000,-0.092000000000
26.687431435000,-0.090000000000
26.695118069000,-0.090000000000
26.702804703000,-0.090000000000
26.710491337000,-0.085000000000
26.718177971000,-0.082000000000
26.725864605000,-0.082000000000
26.733551239000,-0.082000000000
26.741237873000,-0.082000000000
26.748924507000,-0.080000000000
26.756611141000,-0.080000000000
26.764297775000,-0.085000000000
26.771984409000,-0.092000000000
26.779671043000,-0.097000000000
26.787357677000,-0.094000000000
26.795044311000,-0.077000000000
26.802730945000,-0.058000000000
26.810417579000,-0.051000000000
26.818104213000,-0.051000000000
26.825790847000,-0.043000000000
26.833477481000,-0.051000000000
26.841164115000,-0.072000000000
26.848850749000,-0.080000000000
26.856537383000,-0.077000000000
26.864224017000,-0.077000000000
26.871910651000,-0.077000000000
26.879597285000,-0.072000000000
26.887283919000,-0.075000000000
26.894970553000,-0.102000000000
26.902657187000,-0.148000000000
26.910343821000,-0.014000000000
26.918030455000,0.549000000000
26.925717089000,1.177000000000
26.933403723000,1.024000000000
26.941090357000,0.051000000000
26.948776991000,-0.639000000000
26.956463625000,-0.464000000000
26.964150259000,-0.211000000000
26.971836893000,-0.250000000000
26.979523527000,-0.187000000000
26.987210161000,-0.080000000000
26.994896795000,-0.107000000000
27.002583429000,-0.116000000000
27.010270063000,-0.072000000000
27.017956697000,-0.068000000000
27.025643331000,-0.072000000000
27.033329965000,-0.055000000000
27.041016599000,-0.046000000000
27.048703233000,-0.046000000000
27.056389867000,-0.036000000000
27.064076501000,-0.029000000000
27.071763135000,-0.024000000000
27.079449769000,-0.017000000000
27.087136403000,-0.009000000000
27.094823037000,-0.002000000000
27.102509671000,0.004000000000
27.110196305000,0.014000000000
27.117882939000,0.024000000000
27.125569573000,0.034000000000
27.133256207000,0.048000000000
27.140942841000,0.063000000000
27.148629475000,0.077000000000
27.156316109000,0.094000000000
27.164002743000,0.114000000000
27.171689377000,0.133000000000
27.179376011000,0.148000000000
27.187062645000,0.158000000000
27.194749279000,0.165000000000
27.202435913000,0.167000000000
27.210122547000,0.163000000000
27.217809181000,0.150000000000
27.225495829000,0.119000000000
27.233182184000,0.065000000000
27.240868539000,0.009000000000
27.248554894000,-0.043000000000
27.256241249000,-0.092000000000
27.263927604000,-0.131000000000
27.271613959000,-0.160000000000
27.279300314000,-0.172000000000
27.286986669000,-0.177000000000
27.294673024000,-0.177000000000
27.302359379000,-0.172000000000
27.310045734000,-0.167000000000
27.317732089000,-0.160000000000
27.325418444000,-0.155000000000
27.333104799000,-0.153000000000
27.340791154000,-0.145000000000
27.348477509000,-0.136000000000
27.356163864000,-0.131000000000
27.363850219000,-0.128000000000
27.371536574000,-0.126000000000
27.379222929000,-0.126000000000
27.386909284000,-0.124000000000
27.394595639000,-0.121000000000
27.402281994000,-0.121000000000
27.409968349000,-0.119000000000
27.417654704000,-0.121000000000
27.425341059000,-0.124000000000
27.433027414000,-0.121000000000
27.440713769000,-0.121000000000
27.448400124000,-0.121000000000
27.456086479000,-0.121000000000
27.463772834000,-0.119000000000
27.471459189000,-0.116000000000
27.479145544000,-0.114000000000
27.486831899000,-0.114000000000
27.494518254000,-0.111000000000
27.502204609000,-0.111000000000
27.509890964000,-0.109000000000
27.517577319000,-0.107000000000
27.525263674000,-0.107000000000
27.532950029000,-0.104000000000
27.540636384000,-0.102000000000
27.548322739000,-0.099000000000
27.556009094000,-0.099000000000
27.563695449000,-0.099000000000
27.571381804000,-0.094000000000
27.579068159000,-0.092000000000
27.586754514000,-0.092000000000
27.594440869000,-0.090000000000
27.602127224000,-0.087000000000
27.609813579000,-0.087000000000
27.617499934000,-0.087000000000
27.625186289000,-0.082000000000
27.632872644000,-0.077000000000
27.640558999000,-0.080000000000
27.648245354000,-0.085000000000
27.655931709000,-0.082000000000
27.663618064000,-0.080000000000
27.671304419000,-0.077000000000
27.678990774000,-0.077000000000
27.686677129000,-0.075000000000
27.694363484000,-0.075000000000
27.702049839000,-0.072000000000
27.709736194000,-0.068000000000
27.717422549000,-0.068000000000
27.725108904000,-0.068000000000
27.732795259000,-0.070000000000
27.740481614000,-0.068000000000
27.748167969000,-0.068000000000
27.755854324000,-0.065000000000
27.763540679000,-0.065000000000
27.771227034000,-0.068000000000
27.778913389000,-0.072000000000
27.786599773000,-0.070000000000
27.794286476000,-0.063000000000
27.801973179000,-0.058000000000
27.809659882000,-0.065000000000
27.817346585000,-0.077000000000
27.825033288000,-0.082000000000
27.832719991000,-0.080000000000
27.840406694000,-0.068000000000
27.848093397000,-0.048000000000
27.855780100000,-0.041000000000
27.863466803000,-0.038000000000
27.871153506000,-0.031000000000
27.878840209000,-0.046000000000
27.886526912000,-0.070000000000
27.894213615000,-0.072000000000
27.901900318000,-0.063000000000
27.909587021000,-0.063000000000
27.917273724000,-0.065000000000
27.924960427000,-0.060000000000
27.932647130000,-0.072000000000
27.940333833000,-0.109000000000
27.948020536000,-0.097000000000
27.955707239000,0.243000000000
27.963393942000,0.929000000000
27.971080645000,1.240000000000
27.978767348000,0.569000000000
27.986454051000,-0.420000000000
27.994140754000,-0.632000000000
28.001827457000,-0.299000000000
28.009514160000,-0.228000000000
28.017200863000,-0.250000000000
28.024887566000,-0.116000000000
28.032574269000,-0.072000000000
28.040260972000,-0.111000000000
28.047947675000,-0.087000000000
28.055634378000,-0.058000000000
28.063321081000,-0.068000000000
28.071007784000,-0.063000000000
28.078694487000,-0.043000000000
28.086381190000,-0.036000000000
28.094067893000,-0.036000000000
28.101754596000,-0.026000000000
28.109441299000,-0.017000000000
28.117128002000,-0.012000000000
28.124814705000,-0.007000000000
28.132501408000,0.002000000000
28.140188111000,0.009000000000
28.147874814000,0.014000000000
28.155561517000,0.026000000000
28.163248220000,0.036000000000
28.170934923000,0.046000000000
28.178621626000,0.058000000000
28.186308329000,0.077000000000
28.193995032000,0.094000000000
28.201681735000,0.109000000000
28.209368438000,0.126000000000
28.217055141000,0.141000000000
28.224741844000,0.153000000000
28.232428547000,0.160000000000
28.240115250000,0.163000000000
28.247801953000,0.163000000000
28.255488656000,0.158000000000
28.263175359000,0.143000000000
28.270862062000,0.111000000000
28.278548765000,0.063000000000
28.286235468000,0.007000000000
28.293922171000,-0.048000000000
28.301608874000,-0.092000000000
28.309295577000,-0.128000000000
28.316982280000,-0.160000000000
28.324668983000,-0.172000000000
28.332355686000,-0.180000000000
28.340042389000,-0.182000000000
28.347729156000,-0.180000000000
28.355415441000,-0.170000000000
28.363101726000,-0.163000000000
28.370788011000,-0.155000000000
28.378474296000,-0.148000000000
28.386160581000,-0.138000000000
28.393846866000,-0.133000000000
28.401533151000,-0.128000000000
28.409219436000,-0.126000000000
28.416905721000,-0.119000000000
28.424592006000,-0.119000000000
28.432278291000,-0.119000000000
28.439964576000,-0.121000000000
28.447650861000,-0.121000000000
28.455337146000,-0.124000000000
28.463023431000,-0.126000000000
28.470709716000,-0.126000000000
28.478396001000,-0.126000000000
28.486082286000,-0.126000000000
28.493768571000,-0.128000000000
28.501454856000,-0.128000000000
28.509141141000,-0.128000000000
28.516827426000,-0.128000000000
28.524513711000,-0.124000000000
28.532199996000,-0.121000000000
28.539886281000,-0.121000000000
28.547572566000,-0.121000000000
28.555258851000,-0.116000000000
28.562945136000,-0.114000000000
28.570631421000,-0.114000000000
28.578317706000,-0.114000000000
28.586003991000,-0.109000000000
28.593690276000,-0.109000000000
28.601376561000,-0.109000000000
28.609062846000,-0.104000000000
28.616749131000,-0.102000000000
28.624435416000,-0.099000000000
28.632121701000,-0.097000000000
28.639807986000,-0.094000000000
28.647494271000,-0.094000000000
28.655180556000,-0.092000000000
28.662866841000,-0.090000000000
28.670553126000,-0.087000000000
28.678239411000,-0.087000000000
28.685925696000,-0.087000000000
28.693611981000,-0.087000000000
28.701298266000,-0.094000000000
28.708984551000,-0.102000000000
28.716670836000,-0.102000000000
28.724357121000,-0.094000000000
28.732043406000,-0.077000000000
28.739729691000,-0.060000000000
28.747415976000,-0.055000000000
28.755102261000,-0.051000000000
28.762788546000,-0.046000000000
28.770474831000,-0.060000000000
28.778161116000,-0.080000000000
28.785847401000,-0.082000000000
28.793533686000,-0.077000000000
28.801219971000,-0.077000000000
28.808906256000,-0.080000000000
28.816592541000,-0.077000000000
28.824278826000,-0.082000000000
28.831965111000,-0.119000000000
28.839651396000,-0.126000000000
28.847337681000,0.175000000000
28.855023966000,0.856000000000
28.862710251000,1.231000000000
28.870396536000,0.618000000000
28.878082821000,-0.403000000000
28.885769106000,-0.676000000000
28.893455391000,-0.335000000000
28.901141676000,-0.233000000000
28.908828017000,-0.257000000000
28.916514302000,-0.126000000000
28.924200587000,-0.072000000000
28.931886872000,-0.116000000000
28.939573157000,-0.094000000000
28.947259442000,-0.065000000000
28.954945727000,-0.072000000000
28.962632012000,-0.068000000000
28.970318297000,-0.051000000000
28.978004582000,-0.048000000000
28.985690867000,-0.043000000000
28.993377152000,-0.034000000000
29.001063437000,-0.026000000000
29.008749722000,-0.024000000000
29.016436007000,-0.014000000000
29.024122292000,-0.004000000000
29.031808577000,0.002000000000
29.039494862000,0.009000000000
29.047181147000,0.021000000000
29.054867432000,0.031000000000
29.062553717000,0.046000000000
29.070240002000,0.058000000000
29.077926287000,0.072000000000
29.085612572000,0.092000000000
29.093298857000,0.111000000000
29.100985142000,0.133000000000
29.108671427000,0.148000000000
29.116357712000,0.160000000000
29.124043997000,0.172000000000
29.131730282000,0.180000000000
29.139416567000,0.177000000000
29.147102852000,0.167000000000
29.154789137000,0.138000000000
29.162475422000,0.092000000000
29.170161707000,0.036000000000
29.177847992000,-0.024000000000
29.185534277000,-0.080000000000
29.193220562000,-0.128000000000
29.200906847000,-0.163000000000
29.208593132000,-0.184000000000
29.216279417000,-0.194000000000
29.223965702000,-0.197000000000
29.231651987000,-0.194000000000
29.239338272000,-0.192000000000
29.247024557000,-0.184000000000
29.254710842000,-0.175000000000
29.262397127000,-0.167000000000
29.270083412000,-0.158000000000
29.277769697000,-0.150000000000
29.285455982000,-0.145000000000
29.293142267000,-0.141000000000
29.300828552000,-0.133000000000
29.308514837000,-0.126000000000
