time,LSB
0.000000000000,0.536000000000
0.007687121000,0.734000000000
0.015374242000,0.249000000000
0.023061363000,-0.435000000000
0.030748484000,-0.556000000000
0.038435605000,-0.329000000000
0.046122726000,-0.269000000000
0.053809847000,-0.235000000000
0.061496968000,-0.091000000000
0.069184089000,-0.032000000000
0.076871210000,-0.061000000000
0.084558331000,-0.049000000000
0.092245452000,-0.019000000000
0.099932573000,-0.017000000000
0.107619694000,-0.017000000000
0.115306815000,-0.012000000000
0.122993936000,-0.014000000000
0.130681057000,-0.017000000000
0.138368178000,-0.004000000000
0.146055299000,0.009000000000
0.153742420000,0.017000000000
0.161429541000,0.017000000000
0.169116662000,0.022000000000
0.176803783000,0.039000000000
0.184490904000,0.051000000000
0.192178025000,0.056000000000
0.199865146000,0.074000000000
0.207552267000,0.086000000000
0.215239388000,0.091000000000
0.222926509000,0.106000000000
0.230613630000,0.123000000000
0.238300751000,0.131000000000
0.245987872000,0.138000000000
0.253674993000,0.143000000000
0.261362114000,0.136000000000
0.269049299000,0.116000000000
0.276736420000,0.096000000000
0.284423541000,0.079000000000
0.292110662000,0.047000000000
0.299797783000,0.000000000000
0.307484904000,-0.039000000000
0.315172025000,-0.074000000000
0.322859146000,-0.111000000000
0.330546267000,-0.138000000000
0.338233388000,-0.150000000000
0.345920509000,-0.155000000000
0.353607630000,-0.153000000000
0.361294751000,-0.153000000000
0.368981872000,-0.153000000000
0.376668993000,-0.141000000000
0.384356114000,-0.121000000000
0.392043235000,-0.121000000000
0.399730356000,-0.121000000000
0.407417477000,-0.103000000000
0.415104598000,-0.098000000000
0.422791719000,-0.106000000000
0.430478840000,-0.094000000000
0.438165961000,-0.089000000000
0.445853082000,-0.098000000000
0.453540203000,-0.094000000000
0.461227324000,-0.084000000000
0.468914445000,-0.094000000000
0.476601566000,-0.103000000000
0.484288687000,-0.098000000000
0.491975808000,-0.096000000000
0.499662929000,-0.106000000000
0.507350050000,-0.113000000000
0.515037171000,-0.103000000000
0.522724292000,-0.091000000000
0.530411413000,-0.096000000000
0.538098534000,-0.094000000000
0.545785655000,-0.086000000000
0.553472776000,-0.084000000000
0.561159897000,-0.096000000000
0.568847018000,-0.116000000000
0.576534139000,-0.123000000000
0.584221260000,-0.113000000000
0.591908381000,-0.103000000000
0.599595502000,-0.089000000000
0.607282623000,-0.071000000000
0.614969744000,-0.064000000000
0.622656865000,-0.064000000000
0.630343986000,-0.064000000000
0.638031107000,-0.066000000000
0.645718228000,-0.069000000000
0.653405349000,-0.076000000000
0.661092470000,-0.091000000000
0.668779591000,-0.096000000000
0.676466712000,-0.084000000000
0.684153833000,-0.064000000000
0.691840954000,-0.069000000000
0.699528075000,-0.094000000000
0.707215196000,-0.091000000000
0.714902317000,0.061000000000
0.722589438000,0.465000000000
0.730276559000,0.747000000000
0.737963680000,0.348000000000
0.745650801000,-0.395000000000
0.753337922000,-0.608000000000
0.761025043000,-0.346000000000
0.768712164000,-0.252000000000
0.776399285000,-0.262000000000
0.784086406000,-0.118000000000
0.791773527000,-0.032000000000
0.799460648000,-0.064000000000
0.807147769000,-0.056000000000
0.814834890000,-0.029000000000
0.822522011000,-0.032000000000
0.830209196000,-0.024000000000
0.837896317000,-0.002000000000
0.845583438000,0.002000000000
0.853270559000,-0.004000000000
0.860957680000,0.000000000000
0.868644801000,0.002000000000
0.876331922000,-0.002000000000
0.884019043000,0.012000000000
0.891706164000,0.034000000000
0.899393285000,0.037000000000
0.907080406000,0.039000000000
0.914767527000,0.059000000000
0.922454648000,0.074000000000
0.930141769000,0.074000000000
0.937828890000,0.096000000000
0.945516011000,0.121000000000
0.953203132000,0.116000000000
0.960890253000,0.118000000000
0.968577374000,0.141000000000
0.976264495000,0.143000000000
0.983951616000,0.128000000000
0.991638737000,0.126000000000
0.999325858000,0.118000000000
1.007012979000,0.091000000000
1.014700100000,0.051000000000
1.022387221000,0.014000000000
1.030074342000,-0.022000000000
1.037761463000,-0.071000000000
1.045448584000,-0.108000000000
1.053135705000,-0.126000000000
1.060822826000,-0.143000000000
1.068509947000,-0.155000000000
1.076197068000,-0.153000000000
1.083884189000,-0.145000000000
1.091571310000,-0.143000000000
1.099258431000,-0.141000000000
1.106945552000,-0.131000000000
1.114632673000,-0.123000000000
1.122319794000,-0.123000000000
1.130006915000,-0.113000000000
1.137694036000,-0.096000000000
1.145381157000,-0.094000000000
1.153068278000,-0.101000000000
1.160755399000,-0.094000000000
1.168442520000,-0.084000000000
1.176129641000,-0.086000000000
1.183816762000,-0.089000000000
1.191503883000,-0.096000000000
1.199191004000,-0.103000000000
1.206878125000,-0.101000000000
1.214565246000,-0.096000000000
1.222252367000,-0.094000000000
1.229939488000,-0.096000000000
1.237626609000,-0.096000000000
1.245313730000,-0.098000000000
1.253000851000,-0.101000000000
1.260687972000,-0.098000000000
1.268375093000,-0.098000000000
1.276062214000,-0.094000000000
1.283749335000,-0.091000000000
1.291436456000,-0.103000000000
1.299123577000,-0.108000000000
1.306810698000,-0.103000000000
1.314497819000,-0.098000000000
1.322184940000,-0.086000000000
1.329872061000,-0.066000000000
1.337559182000,-0.064000000000
1.345246303000,-0.064000000000
1.352933424000,-0.051000000000
1.360620545000,-0.056000000000
1.368307666000,-0.076000000000
1.375994787000,-0.079000000000
1.383681908000,-0.069000000000
1.391369093000,-0.069000000000
1.399056284000,-0.076000000000
1.406743475000,-0.076000000000
1.414430666000,-0.069000000000
1.422117857000,-0.076000000000
1.429805048000,-0.096000000000
1.437492239000,-0.051000000000
1.445179430000,0.220000000000
1.452866621000,0.663000000000
1.460553812000,0.747000000000
1.468241003000,0.168000000000
1.475928194000,-0.455000000000
1.483615385000,-0.482000000000
1.491302576000,-0.247000000000
1.498989767000,-0.202000000000
1.506676958000,-0.165000000000
1.514364149000,-0.064000000000
1.522051340000,-0.054000000000
1.529738531000,-0.074000000000
1.537425722000,-0.051000000000
1.545112913000,-0.032000000000
1.552800104000,-0.034000000000
1.560487295000,-0.034000000000
1.568174486000,-0.024000000000
1.575861677000,-0.017000000000
1.583548868000,-0.017000000000
1.591236059000,-0.017000000000
1.598923250000,-0.007000000000
1.606610441000,0.007000000000
1.614297632000,0.009000000000
1.621984823000,0.012000000000
1.629672014000,0.019000000000
1.637359205000,0.032000000000
1.645046396000,0.042000000000
1.652733587000,0.054000000000
1.660420778000,0.071000000000
1.668107969000,0.079000000000
1.675795160000,0.086000000000
1.683482351000,0.098000000000
1.691169542000,0.113000000000
1.698856733000,0.111000000000
1.706543924000,0.106000000000
1.714231115000,0.108000000000
1.721918306000,0.108000000000
1.729605497000,0.091000000000
1.737292688000,0.064000000000
1.744979879000,0.029000000000
1.752667070000,-0.007000000000
1.760354261000,-0.044000000000
1.768041452000,-0.076000000000
1.775728643000,-0.103000000000
1.783415834000,-0.126000000000
1.791103025000,-0.128000000000
1.798790216000,-0.126000000000
1.806477407000,-0.133000000000
1.814164598000,-0.136000000000
1.821851789000,-0.133000000000
1.829538980000,-0.126000000000
1.837226171000,-0.118000000000
1.844913362000,-0.113000000000
1.852600553000,-0.103000000000
1.860287744000,-0.101000000000
1.867974935000,-0.103000000000
1.875662126000,-0.098000000000
1.883349317000,-0.094000000000
1.891036508000,-0.096000000000
1.898723699000,-0.094000000000
1.906410890000,-0.086000000000
1.914098081000,-0.091000000000
1.921785272000,-0.096000000000
1.929472463000,-0.091000000000
1.937159654000,-0.091000000000
1.944846845000,-0.094000000000
1.952534081000,-0.091000000000
1.960221551000,-0.096000000000
1.967909021000,-0.101000000000
1.975596491000,-0.094000000000
1.983283961000,-0.089000000000
1.990971431000,-0.091000000000
1.998658901000,-0.089000000000
2.006346371000,-0.081000000000
2.014033841000,-0.089000000000
2.021721311000,-0.096000000000
2.029408781000,-0.089000000000
2.037096251000,-0.084000000000
2.044783721000,-0.084000000000
2.052471191000,-0.091000000000
2.060158661000,-0.094000000000
2.067846131000,-0.091000000000
2.075533601000,-0.086000000000
2.083221071000,-0.074000000000
2.090908541000,-0.056000000000
2.098596011000,-0.054000000000
2.106283481000,-0.054000000000
2.113970951000,-0.044000000000
2.121658421000,-0.049000000000
2.129345891000,-0.069000000000
2.137033361000,-0.074000000000
2.144720831000,-0.069000000000
2.152408301000,-0.071000000000
2.160095771000,-0.071000000000
2.167783241000,-0.066000000000
2.175470711000,-0.069000000000
2.183158181000,-0.081000000000
2.190845651000,-0.096000000000
2.198533121000,-0.049000000000
2.206220591000,0.222000000000
2.213908061000,0.667000000000
2.221595531000,0.744000000000
2.229283001000,0.188000000000
2.236970471000,-0.398000000000
2.244657941000,-0.447000000000
2.252345411000,-0.247000000000
2.260032881000,-0.195000000000
2.267720351000,-0.160000000000
2.275407821000,-0.076000000000
2.283095291000,-0.069000000000
2.290782761000,-0.091000000000
2.298470231000,-0.069000000000
2.306157701000,-0.049000000000
2.313845171000,-0.047000000000
2.321532641000,-0.039000000000
2.329220111000,-0.032000000000
2.336907581000,-0.039000000000
2.344595051000,-0.037000000000
2.352282521000,-0.027000000000
2.359969991000,-0.022000000000
2.367657461000,-0.014000000000
2.375344931000,-0.009000000000
2.383032401000,-0.002000000000
2.390719871000,0.004000000000
2.398407341000,0.019000000000
2.406094811000,0.029000000000
2.413782281000,0.037000000000
2.421469751000,0.047000000000
2.429157221000,0.059000000000
2.436844691000,0.064000000000
2.444532161000,0.076000000000
2.452219631000,0.094000000000
2.459907101000,0.096000000000
2.467594571000,0.089000000000
2.475282041000,0.086000000000
2.482969511000,0.084000000000
2.490656981000,0.079000000000
2.498344451000,0.051000000000
2.506031921000,0.012000000000
2.513719409000,-0.017000000000
2.521406530000,-0.049000000000
2.529093651000,-0.086000000000
2.536780772000,-0.118000000000
2.544467893000,-0.138000000000
2.552155014000,-0.145000000000
2.559842135000,-0.141000000000
2.567529256000,-0.141000000000
2.575216377000,-0.145000000000
2.582903498000,-0.148000000000
2.590590619000,-0.138000000000
2.598277740000,-0.133000000000
2.605964861000,-0.138000000000
2.613651982000,-0.133000000000
2.621339103000,-0.121000000000
2.629026224000,-0.118000000000
2.636713345000,-0.126000000000
2.644400466000,-0.126000000000
2.652087587000,-0.121000000000
2.659774708000,-0.121000000000
2.667461829000,-0.121000000000
2.675148950000,-0.121000000000
2.682836071000,-0.118000000000
2.690523192000,-0.118000000000
2.698210313000,-0.126000000000
2.705897434000,-0.131000000000
2.713584555000,-0.126000000000
2.721271676000,-0.123000000000
2.728958797000,-0.126000000000
2.736645918000,-0.126000000000
2.744333039000,-0.121000000000
2.752020160000,-0.121000000000
2.759707281000,-0.123000000000
2.767394402000,-0.118000000000
2.775081523000,-0.113000000000
2.782768644000,-0.116000000000
2.790455765000,-0.118000000000
2.798142886000,-0.113000000000
2.805830007000,-0.111000000000
2.813517128000,-0.121000000000
2.821204249000,-0.118000000000
2.828891370000,-0.103000000000
2.836578491000,-0.096000000000
2.844265612000,-0.106000000000
2.851952733000,-0.116000000000
2.859639854000,-0.116000000000
2.867326975000,-0.116000000000
2.875014096000,-0.123000000000
2.882701217000,-0.116000000000
2.890388338000,-0.086000000000
2.898075459000,-0.066000000000
2.905762580000,-0.074000000000
2.913449701000,-0.074000000000
2.921136822000,-0.066000000000
2.928823943000,-0.079000000000
2.936511064000,-0.098000000000
2.944198185000,-0.101000000000
2.951885306000,-0.098000000000
2.959572427000,-0.108000000000
2.967259548000,-0.108000000000
2.974946669000,-0.091000000000
2.982633790000,-0.089000000000
2.990320911000,-0.103000000000
2.998008032000,-0.111000000000
3.005695153000,-0.022000000000
3.013382274000,0.316000000000
3.021069395000,0.702000000000
3.028756516000,0.559000000000
3.036443637000,-0.106000000000
3.044130758000,-0.536000000000
3.051817879000,-0.420000000000
3.059505000000,-0.254000000000
3.067192121000,-0.254000000000
3.074879306000,-0.170000000000
3.082566427000,-0.069000000000
3.090253548000,-0.094000000000
3.097940669000,-0.106000000000
3.105627790000,-0.064000000000
3.113314911000,-0.056000000000
3.121002032000,-0.059000000000
3.128689153000,-0.049000000000
3.136376274000,-0.051000000000
3.144063395000,-0.054000000000
3.151750516000,-0.042000000000
3.159437637000,-0.032000000000
3.167124758000,-0.027000000000
3.174811879000,-0.022000000000
3.182499000000,-0.009000000000
3.190186121000,-0.002000000000
3.197873242000,0.000000000000
3.205560363000,0.009000000000
3.213247484000,0.022000000000
3.220934605000,0.034000000000
3.228621726000,0.049000000000
3.236308847000,0.069000000000
3.243995968000,0.081000000000
3.251683089000,0.081000000000
3.259370210000,0.094000000000
3.267057331000,0.111000000000
3.274744452000,0.106000000000
3.282431573000,0.079000000000
3.290118694000,0.069000000000
3.297805815000,0.071000000000
3.305492936000,0.054000000000
3.313180057000,0.019000000000
3.320867178000,-0.027000000000
3.328554299000,-0.074000000000
3.336241420000,-0.103000000000
3.343928541000,-0.128000000000
3.351615662000,-0.145000000000
3.359302783000,-0.150000000000
3.366989904000,-0.168000000000
3.374677025000,-0.195000000000
3.382364146000,-0.180000000000
3.390051267000,-0.148000000000
3.397738388000,-0.145000000000
3.405425509000,-0.145000000000
3.413112630000,-0.131000000000
3.420799751000,-0.128000000000
3.428486872000,-0.136000000000
3.436173993000,-0.123000000000
3.443861114000,-0.118000000000
3.451548235000,-0.116000000000
3.459235356000,-0.103000000000
3.466922477000,-0.108000000000
3.474609598000,-0.126000000000
3.482296719000,-0.128000000000
3.489983840000,-0.121000000000
3.497670961000,-0.108000000000
3.505358082000,-0.118000000000
3.513045203000,-0.133000000000
3.520732324000,-0.126000000000
3.528419445000,-0.111000000000
3.536106566000,-0.111000000000
3.543793687000,-0.123000000000
3.551480808000,-0.128000000000
3.559167929000,-0.121000000000
3.566855050000,-0.113000000000
3.574542171000,-0.111000000000
3.582229292000,-0.113000000000
3.589916413000,-0.116000000000
3.597603534000,-0.116000000000
3.605290655000,-0.116000000000
3.612977776000,-0.121000000000
3.620664897000,-0.123000000000
3.628352018000,-0.113000000000
3.636039203000,-0.096000000000
3.643726324000,-0.074000000000
3.651413445000,-0.066000000000
3.659100566000,-0.069000000000
3.666787687000,-0.064000000000
3.674474808000,-0.076000000000
3.682161929000,-0.101000000000
3.689849050000,-0.103000000000
3.697536171000,-0.091000000000
3.705223292000,-0.086000000000
3.712910413000,-0.084000000000
3.720597534000,-0.076000000000
3.728284655000,-0.076000000000
3.735971776000,-0.091000000000
3.743658897000,-0.098000000000
3.751346018000,0.049000000000
3.759033139000,0.470000000000
3.766720260000,0.757000000000
3.774407381000,0.353000000000
3.782094502000,-0.371000000000
3.789781623000,-0.583000000000
3.797468744000,-0.351000000000
3.805155865000,-0.249000000000
3.812842986000,-0.239000000000
3.820530107000,-0.113000000000
3.828217228000,-0.042000000000
3.835904349000,-0.066000000000
3.843591470000,-0.054000000000
3.851278591000,-0.027000000000
3.858965712000,-0.039000000000
3.866652833000,-0.042000000000
3.874339954000,-0.024000000000
3.882027075000,-0.014000000000
3.889714196000,-0.009000000000
3.897401317000,0.000000000000
3.905088438000,0.007000000000
3.912775559000,0.014000000000
3.920462680000,0.022000000000
3.928149801000,0.027000000000
3.935836922000,0.039000000000
3.943524043000,0.051000000000
3.951211164000,0.054000000000
3.958898285000,0.056000000000
3.966585406000,0.071000000000
3.974272527000,0.091000000000
3.981959648000,0.106000000000
3.989646769000,0.123000000000
3.997333890000,0.138000000000
4.005021011000,0.143000000000
4.012708132000,0.145000000000
4.020395253000,0.141000000000
4.028082374000,0.123000000000
4.035769495000,0.103000000000
4.043456616000,0.086000000000
4.051143737000,0.059000000000
4.058830858000,0.019000000000
4.066517979000,-0.024000000000
4.074205100000,-0.059000000000
4.081892221000,-0.094000000000
4.089579342000,-0.126000000000
4.097266463000,-0.148000000000
4.104953584000,-0.153000000000
4.112640705000,-0.145000000000
4.120327826000,-0.143000000000
4.128014947000,-0.143000000000
4.135702068000,-0.141000000000
4.143389189000,-0.133000000000
4.151076310000,-0.126000000000
4.158763431000,-0.118000000000
4.166450552000,-0.113000000000
4.174137673000,-0.098000000000
4.181824794000,-0.094000000000
4.189511915000,-0.096000000000
4.197199100000,-0.091000000000
4.204886639000,-0.086000000000
4.212574178000,-0.084000000000
4.220261717000,-0.074000000000
4.227949256000,-0.079000000000
4.235636795000,-0.098000000000
4.243324334000,-0.096000000000
4.251011873000,-0.079000000000
4.258699412000,-0.079000000000
4.266386951000,-0.086000000000
4.274074490000,-0.091000000000
4.281762029000,-0.091000000000
4.289449568000,-0.084000000000
4.297137107000,-0.086000000000
4.304824646000,-0.091000000000
4.312512185000,-0.086000000000
4.320199724000,-0.076000000000
4.327887263000,-0.079000000000
4.335574802000,-0.081000000000
4.343262341000,-0.079000000000
4.350949880000,-0.079000000000
4.358637419000,-0.076000000000
4.366324958000,-0.071000000000
4.374012497000,-0.066000000000
4.381700036000,-0.074000000000
4.389387575000,-0.084000000000
4.397075114000,-0.089000000000
4.404762653000,-0.084000000000
4.412450192000,-0.074000000000
4.420137731000,-0.051000000000
4.427825270000,-0.032000000000
4.435512809000,-0.029000000000
4.443200348000,-0.027000000000
4.450887887000,-0.022000000000
4.458575426000,-0.039000000000
4.466262965000,-0.061000000000
4.473950504000,-0.059000000000
4.481638043000,-0.056000000000
4.489325582000,-0.059000000000
4.497013121000,-0.051000000000
4.504700660000,-0.044000000000
4.512388199000,-0.044000000000
4.520075738000,-0.059000000000
4.527763277000,-0.066000000000
4.535450816000,0.091000000000
4.543138355000,0.514000000000
4.550825894000,0.811000000000
4.558513433000,0.482000000000
4.566200972000,-0.197000000000
4.573888511000,-0.482000000000
4.581576050000,-0.304000000000
4.589263589000,-0.180000000000
4.596951128000,-0.163000000000
4.604638667000,-0.076000000000
4.612326206000,-0.037000000000
4.620013745000,-0.069000000000
4.627701284000,-0.054000000000
4.635388823000,-0.024000000000
4.643076362000,-0.019000000000
4.650763901000,-0.014000000000
4.658451440000,-0.009000000000
4.666138979000,-0.017000000000
4.673826518000,-0.009000000000
4.681514057000,0.004000000000
4.689201596000,0.007000000000
4.696889135000,0.009000000000
4.704576674000,0.017000000000
4.712264213000,0.024000000000
4.719951752000,0.037000000000
4.727639291000,0.047000000000
4.735326830000,0.049000000000
4.743014369000,0.056000000000
4.750701908000,0.076000000000
4.758389519000,0.091000000000
4.766076640000,0.098000000000
4.773763761000,0.111000000000
4.781450882000,0.123000000000
4.789138003000,0.133000000000
4.796825124000,0.141000000000
4.804512245000,0.141000000000
4.812199366000,0.133000000000
4.819886487000,0.123000000000
4.827573608000,0.106000000000
4.835260729000,0.079000000000
4.842947850000,0.047000000000
4.850634971000,0.009000000000
4.858322092000,-0.029000000000
4.866009213000,-0.059000000000
4.873696334000,-0.079000000000
4.881383455000,-0.096000000000
4.889070576000,-0.103000000000
4.896757697000,-0.108000000000
4.904444818000,-0.108000000000
4.912131939000,-0.106000000000
4.919819060000,-0.108000000000
4.927506181000,-0.106000000000
4.935193302000,-0.096000000000
4.942880423000,-0.089000000000
4.950567544000,-0.086000000000
4.958254665000,-0.081000000000
4.965941786000,-0.081000000000
4.973628907000,-0.089000000000
4.981316028000,-0.081000000000
4.989003149000,-0.074000000000
4.996690270000,-0.076000000000
5.004377391000,-0.071000000000
5.012064512000,-0.069000000000
5.019751633000,-0.081000000000
5.027438754000,-0.084000000000
5.035125875000,-0.081000000000
5.042812996000,-0.079000000000
5.050500117000,-0.074000000000
5.058187238000,-0.074000000000
5.065874359000,-0.084000000000
5.073561480000,-0.086000000000
5.081248601000,-0.076000000000
5.088935722000,-0.074000000000
5.096622843000,-0.076000000000
5.104309964000,-0.071000000000
5.111997085000,-0.069000000000
5.119684206000,-0.071000000000
5.127371327000,-0.069000000000
5.135058448000,-0.066000000000
5.142745569000,-0.064000000000
5.150432690000,-0.059000000000
5.158119811000,-0.064000000000
5.165806932000,-0.069000000000
5.173494053000,-0.061000000000
5.181181174000,-0.054000000000
5.188868295000,-0.061000000000
5.196555416000,-0.069000000000
5.204242537000,-0.064000000000
5.211929658000,-0.056000000000
5.219616779000,-0.054000000000
5.227303900000,-0.047000000000
5.234991021000,-0.029000000000
5.242678142000,-0.022000000000
5.250365263000,-0.019000000000
5.258052384000,-0.024000000000
5.265739505000,-0.039000000000
5.273426626000,-0.049000000000
5.281113747000,-0.047000000000
5.288800868000,-0.044000000000
5.296487989000,-0.047000000000
5.304175110000,-0.047000000000
5.311862231000,-0.049000000000
5.319549416000,-0.047000000000
5.327236677000,-0.054000000000
5.334923938000,-0.064000000000
5.342611199000,0.071000000000
5.350298460000,0.477000000000
5.357985721000,0.779000000000
5.365672982000,0.494000000000
5.373360243000,-0.143000000000
5.381047504000,-0.450000000000
5.388734765000,-0.309000000000
5.396422026000,-0.185000000000
5.404109287000,-0.168000000000
5.411796548000,-0.091000000000
5.419483809000,-0.044000000000
5.427171070000,-0.061000000000
5.434858331000,-0.047000000000
5.442545592000,-0.024000000000
5.450232853000,-0.032000000000
5.457920114000,-0.032000000000
5.465607375000,-0.019000000000
5.473294636000,-0.019000000000
5.480981897000,-0.017000000000
5.488669158000,-0.004000000000
5.496356419000,-0.002000000000
5.504043680000,-0.002000000000
5.511730941000,0.002000000000
5.519418202000,0.019000000000
5.527105463000,0.034000000000
5.534792724000,0.039000000000
5.542479985000,0.037000000000
5.550167246000,0.044000000000
5.557854507000,0.064000000000
5.565541768000,0.079000000000
5.573229029000,0.091000000000
5.580916290000,0.108000000000
5.588603551000,0.116000000000
5.596290812000,0.118000000000
5.603978073000,0.121000000000
5.611665334000,0.118000000000
5.619352595000,0.108000000000
5.627039856000,0.101000000000
5.634727117000,0.094000000000
5.642414378000,0.076000000000
5.650101639000,0.029000000000
5.657788900000,-0.017000000000
5.665476161000,-0.039000000000
5.673163422000,-0.066000000000
5.680850683000,-0.101000000000
5.688537944000,-0.118000000000
5.696225205000,-0.123000000000
5.703912466000,-0.133000000000
5.711599727000,-0.131000000000
5.719286988000,-0.121000000000
5.726974249000,-0.126000000000
5.734661510000,-0.131000000000
5.742348771000,-0.121000000000
5.750036032000,-0.113000000000
5.757723293000,-0.113000000000
5.765410554000,-0.106000000000
5.773097815000,-0.098000000000
5.780785076000,-0.108000000000
5.788472337000,-0.116000000000
5.796159598000,-0.098000000000
5.803846859000,-0.089000000000
5.811534120000,-0.106000000000
5.819221381000,-0.106000000000
5.826908642000,-0.094000000000
5.834595903000,-0.098000000000
5.842283164000,-0.101000000000
5.849970425000,-0.094000000000
5.857657686000,-0.094000000000
5.865344947000,-0.101000000000
5.873032208000,-0.103000000000
5.880719487000,-0.094000000000
5.888406887000,-0.089000000000
5.896094287000,-0.091000000000
5.903781687000,-0.096000000000
5.911469087000,-0.096000000000
5.919156487000,-0.086000000000
5.926843887000,-0.074000000000
5.934531287000,-0.071000000000
5.942218687000,-0.089000000000
5.949906087000,-0.098000000000
5.957593487000,-0.081000000000
5.965280887000,-0.066000000000
5.972968287000,-0.074000000000
5.980655687000,-0.076000000000
5.988343087000,-0.066000000000
5.996030487000,-0.066000000000
6.003717887000,-0.076000000000
6.011405287000,-0.074000000000
6.019092687000,-0.066000000000
6.026780087000,-0.071000000000
6.034467487000,-0.084000000000
6.042154887000,-0.081000000000
6.049842287000,-0.056000000000
6.057529687000,-0.029000000000
6.065217087000,-0.027000000000
6.072904487000,-0.037000000000
6.080591887000,-0.037000000000
6.088279287000,-0.034000000000
6.095966687000,-0.047000000000
6.103654087000,-0.064000000000
6.111341487000,-0.061000000000
6.119028887000,-0.051000000000
6.126716287000,-0.056000000000
6.134403687000,-0.066000000000
6.142091087000,-0.066000000000
6.149778487000,-0.066000000000
6.157465887000,-0.061000000000
6.165153287000,0.027000000000
6.172840687000,0.361000000000
6.180528087000,0.729000000000
6.188215487000,0.556000000000
6.195902887000,-0.106000000000
6.203590287000,-0.494000000000
6.211277687000,-0.373000000000
6.218965087000,-0.230000000000
6.226652487000,-0.212000000000
6.234339887000,-0.118000000000
6.242027287000,-0.039000000000
6.249714687000,-0.061000000000
6.257402087000,-0.056000000000
6.265089487000,-0.022000000000
6.272776887000,-0.022000000000
6.280464287000,-0.022000000000
6.288151687000,-0.007000000000
6.295839087000,-0.007000000000
6.303526487000,-0.012000000000
6.311213887000,-0.002000000000
6.318901287000,0.009000000000
6.326588687000,0.012000000000
6.334276087000,0.024000000000
6.341963487000,0.029000000000
6.349650887000,0.024000000000
6.357338287000,0.032000000000
6.365025687000,0.049000000000
6.372713087000,0.064000000000
6.380400487000,0.081000000000
6.388087887000,0.096000000000
6.395775287000,0.111000000000
6.403462687000,0.116000000000
6.411150087000,0.118000000000
6.418837487000,0.136000000000
6.426524887000,0.150000000000
6.434212287000,0.148000000000
6.441899728000,0.136000000000
6.449586849000,0.118000000000
6.457273970000,0.101000000000
6.464961091000,0.089000000000
6.472648212000,0.061000000000
6.480335333000,0.019000000000
6.488022454000,-0.019000000000
6.495709575000,-0.059000000000
6.503396696000,-0.094000000000
6.511083817000,-0.118000000000
6.518770938000,-0.133000000000
6.526458059000,-0.141000000000
6.534145180000,-0.138000000000
6.541832301000,-0.128000000000
6.549519422000,-0.123000000000
6.557206543000,-0.116000000000
6.564893664000,-0.111000000000
6.572580785000,-0.111000000000
6.580267906000,-0.101000000000
6.587955027000,-0.086000000000
6.595642148000,-0.091000000000
6.603329269000,-0.094000000000
6.611016390000,-0.084000000000
6.618703511000,-0.079000000000
6.626390632000,-0.081000000000
6.634077753000,-0.081000000000
6.641764874000,-0.076000000000
6.649451995000,-0.074000000000
6.657139116000,-0.089000000000
6.664826237000,-0.098000000000
6.672513358000,-0.089000000000
6.680200479000,-0.084000000000
6.687887600000,-0.094000000000
6.695574721000,-0.094000000000
6.703261842000,-0.084000000000
6.710948963000,-0.089000000000
6.718636084000,-0.094000000000
6.726323205000,-0.084000000000
6.734010326000,-0.084000000000
6.741697447000,-0.091000000000
6.749384568000,-0.081000000000
6.757071689000,-0.079000000000
6.764758810000,-0.084000000000
6.772445931000,-0.076000000000
6.780133052000,-0.074000000000
6.787820173000,-0.074000000000
6.795507294000,-0.074000000000
6.803194415000,-0.079000000000
6.810881536000,-0.081000000000
6.818568657000,-0.074000000000
6.826255778000,-0.069000000000
6.833942899000,-0.074000000000
6.841630020000,-0.064000000000
6.849317141000,-0.039000000000
6.857004262000,-0.034000000000
6.864691383000,-0.037000000000
6.872378504000,-0.029000000000
6.880065625000,-0.037000000000
6.887752746000,-0.056000000000
6.895439867000,-0.061000000000
6.903126988000,-0.059000000000
6.910814109000,-0.054000000000
6.918501230000,-0.051000000000
6.926188351000,-0.054000000000
6.933875472000,-0.061000000000
6.941562593000,-0.066000000000
6.949249714000,-0.074000000000
6.956936835000,0.017000000000
6.964623956000,0.378000000000
6.972311077000,0.752000000000
6.979998198000,0.549000000000
6.987685319000,-0.136000000000
6.995372440000,-0.509000000000
7.003059625000,-0.361000000000
7.010746746000,-0.217000000000
7.018433867000,-0.212000000000
7.026120988000,-0.123000000000
7.033808109000,-0.039000000000
7.041495230000,-0.049000000000
7.049182351000,-0.049000000000
7.056869472000,-0.024000000000
7.064556593000,-0.022000000000
7.072243714000,-0.024000000000
7.079930835000,-0.014000000000
7.087617956000,-0.007000000000
7.095305077000,-0.004000000000
7.102992198000,0.000000000000
7.110679319000,0.007000000000
7.118366440000,0.007000000000
7.126053561000,0.007000000000
7.133740682000,0.019000000000
7.141427803000,0.032000000000
7.149114924000,0.037000000000
7.156802045000,0.047000000000
7.164489166000,0.061000000000
7.172176287000,0.069000000000
7.179863408000,0.071000000000
7.187550529000,0.089000000000
7.195237650000,0.111000000000
7.202924771000,0.123000000000
7.210611892000,0.123000000000
7.218299013000,0.131000000000
7.225986134000,0.141000000000
7.233673255000,0.131000000000
7.241360376000,0.111000000000
7.249047497000,0.096000000000
7.256734618000,0.071000000000
7.264421739000,0.039000000000
7.272108860000,0.007000000000
7.279795981000,-0.029000000000
7.287483102000,-0.069000000000
7.295170223000,-0.098000000000
7.302857344000,-0.118000000000
7.310544465000,-0.126000000000
7.318231586000,-0.123000000000
7.325918707000,-0.131000000000
7.333605828000,-0.133000000000
7.341292949000,-0.126000000000
7.348980070000,-0.118000000000
7.356667191000,-0.111000000000
7.364354312000,-0.106000000000
7.372041433000,-0.108000000000
7.379728554000,-0.106000000000
7.387415675000,-0.094000000000
7.395102796000,-0.086000000000
7.402789917000,-0.081000000000
7.410477038000,-0.081000000000
7.418164159000,-0.084000000000
7.425851280000,-0.084000000000
7.433538401000,-0.079000000000
7.441225522000,-0.084000000000
7.448912643000,-0.094000000000
7.456599764000,-0.089000000000
7.464286885000,-0.086000000000
7.471974006000,-0.091000000000
7.479661127000,-0.091000000000
7.487348248000,-0.086000000000
7.495035369000,-0.084000000000
7.502722490000,-0.081000000000
7.510409611000,-0.081000000000
7.518096732000,-0.089000000000
7.525783853000,-0.094000000000
7.533470974000,-0.086000000000
7.541158095000,-0.079000000000
7.548845216000,-0.081000000000
7.556532337000,-0.079000000000
7.564219522000,-0.079000000000
7.571907061000,-0.081000000000
7.579594600000,-0.079000000000
7.587282139000,-0.076000000000
7.594969678000,-0.071000000000
7.602657217000,-0.069000000000
7.610344756000,-0.066000000000
7.618032295000,-0.069000000000
7.625719834000,-0.076000000000
7.633407373000,-0.074000000000
7.641094912000,-0.064000000000
7.648782451000,-0.066000000000
7.656469990000,-0.076000000000
7.664157529000,-0.071000000000
7.671845068000,-0.061000000000
7.679532607000,-0.061000000000
7.687220146000,-0.059000000000
7.694907685000,-0.061000000000
7.702595224000,-0.071000000000
7.710282763000,-0.076000000000
7.717970302000,-0.069000000000
7.725657841000,-0.059000000000
7.733345380000,-0.054000000000
7.741032919000,-0.049000000000
7.748720458000,-0.042000000000
7.756407997000,-0.032000000000
7.764095536000,-0.027000000000
7.771783075000,-0.042000000000
7.779470614000,-0.059000000000
7.787158153000,-0.064000000000
7.794845692000,-0.059000000000
7.802533231000,-0.054000000000
7.810220770000,-0.054000000000
7.817908309000,-0.054000000000
7.825595848000,-0.056000000000
7.833283387000,-0.064000000000
7.840970926000,-0.081000000000
7.848658465000,-0.002000000000
7.856346004000,0.336000000000
7.864033543000,0.739000000000
7.871721082000,0.667000000000
7.879408621000,0.061000000000
7.887096160000,-0.413000000000
7.894783699000,-0.371000000000
7.902471238000,-0.212000000000
7.910158777000,-0.195000000000
7.917846316000,-0.141000000000
7.925533855000,-0.061000000000
7.933221394000,-0.069000000000
7.940908933000,-0.081000000000
7.948596472000,-0.051000000000
7.956284011000,-0.034000000000
7.963971550000,-0.042000000000
7.971659089000,-0.039000000000
7.979346628000,-0.024000000000
7.987034167000,-0.022000000000
7.994721706000,-0.029000000000
8.002409245000,-0.017000000000
8.010096784000,-0.004000000000
8.017784323000,-0.009000000000
8.025471862000,-0.012000000000
8.033159401000,0.002000000000
8.040846940000,0.014000000000
8.048534479000,0.017000000000
8.056222018000,0.027000000000
8.063909557000,0.039000000000
8.071597096000,0.051000000000
8.079284635000,0.069000000000
8.086972174000,0.081000000000
8.094659713000,0.086000000000
8.102347252000,0.091000000000
8.110034791000,0.098000000000
8.117722330000,0.106000000000
8.125409941000,0.103000000000
8.133097062000,0.101000000000
8.140784183000,0.098000000000
8.148471304000,0.084000000000
8.156158425000,0.051000000000
8.163845546000,0.014000000000
8.171532667000,-0.019000000000
8.179219788000,-0.049000000000
8.186906909000,-0.076000000000
8.194594030000,-0.098000000000
8.202281151000,-0.113000000000
8.209968272000,-0.121000000000
8.217655393000,-0.123000000000
8.225342514000,-0.123000000000
8.233029635000,-0.126000000000
8.240716756000,-0.121000000000
8.248403877000,-0.108000000000
8.256090998000,-0.103000000000
8.263778119000,-0.106000000000
8.271465240000,-0.101000000000
8.279152361000,-0.096000000000
8.286839482000,-0.094000000000
8.294526603000,-0.089000000000
8.302213724000,-0.086000000000
8.309900845000,-0.086000000000
8.317587966000,-0.094000000000
8.325275087000,-0.089000000000
8.332962208000,-0.081000000000
8.340649329000,-0.081000000000
8.348336450000,-0.084000000000
8.356023571000,-0.089000000000
8.363710692000,-0.094000000000
8.371397813000,-0.094000000000
8.379084934000,-0.089000000000
8.386772055000,-0.089000000000
8.394459176000,-0.086000000000
8.402146297000,-0.086000000000
8.409833418000,-0.096000000000
8.417520539000,-0.091000000000
8.425207660000,-0.081000000000
8.432894781000,-0.074000000000
8.440581902000,-0.071000000000
8.448269023000,-0.081000000000
8.455956144000,-0.091000000000
8.463643265000,-0.084000000000
8.471330386000,-0.074000000000
8.479017507000,-0.079000000000
8.486704628000,-0.084000000000
8.494391749000,-0.074000000000
8.502078870000,-0.066000000000
8.509765991000,-0.071000000000
8.517453112000,-0.079000000000
8.525140233000,-0.076000000000
8.532827354000,-0.074000000000
8.540514475000,-0.069000000000
8.548201596000,-0.064000000000
8.555888717000,-0.064000000000
8.563575838000,-0.061000000000
8.571262959000,-0.061000000000
8.578950080000,-0.061000000000
8.586637201000,-0.059000000000
8.594324322000,-0.056000000000
8.602011443000,-0.056000000000
8.609698564000,-0.056000000000
8.617385685000,-0.056000000000
8.625072806000,-0.056000000000
8.632759927000,-0.064000000000
8.640447048000,-0.066000000000
8.648134169000,-0.064000000000
8.655821290000,-0.061000000000
8.663508411000,-0.051000000000
8.671195532000,-0.037000000000
8.678882653000,-0.029000000000
8.686569838000,-0.022000000000
8.694257099000,-0.024000000000
8.701944360000,-0.032000000000
8.709631621000,-0.042000000000
8.717318882000,-0.051000000000
8.725006143000,-0.059000000000
8.732693404000,-0.059000000000
8.740380665000,-0.056000000000
8.748067926000,-0.054000000000
8.755755187000,-0.051000000000
8.763442448000,-0.061000000000
8.771129709000,-0.074000000000
8.778816970000,0.032000000000
8.786504231000,0.390000000000
8.794191492000,0.754000000000
8.801878753000,0.613000000000
8.809566014000,0.000000000000
8.817253275000,-0.423000000000
8.824940536000,-0.353000000000
8.832627797000,-0.202000000000
8.840315058000,-0.180000000000
8.848002319000,-0.116000000000
8.855689580000,-0.054000000000
8.863376841000,-0.074000000000
8.871064102000,-0.074000000000
8.878751363000,-0.044000000000
8.886438624000,-0.042000000000
8.894125885000,-0.044000000000
8.901813146000,-0.027000000000
8.909500407000,-0.022000000000
8.917187668000,-0.029000000000
8.924874929000,-0.022000000000
8.932562190000,-0.009000000000
8.940249451000,-0.007000000000
8.947936712000,-0.004000000000
8.955623973000,-0.002000000000
8.963311234000,0.009000000000
8.970998495000,0.022000000000
8.978685756000,0.024000000000
8.986373017000,0.024000000000
8.994060278000,0.042000000000
9.001747539000,0.059000000000
9.009434800000,0.071000000000
9.017122061000,0.079000000000
9.024809322000,0.086000000000
9.032496583000,0.101000000000
9.040183844000,0.106000000000
9.047871105000,0.098000000000
9.055558366000,0.098000000000
9.063245627000,0.098000000000
9.070932888000,0.089000000000
9.078620149000,0.069000000000
9.086307410000,0.047000000000
9.093994671000,0.014000000000
9.101681932000,-0.019000000000
9.109369193000,-0.049000000000
9.117056454000,-0.079000000000
9.124743715000,-0.101000000000
9.132430976000,-0.111000000000
9.140118237000,-0.116000000000
9.147805498000,-0.123000000000
9.155492759000,-0.123000000000
9.163180020000,-0.118000000000
9.170867281000,-0.121000000000
9.178554542000,-0.116000000000
9.186241803000,-0.106000000000
9.193929064000,-0.103000000000
9.201616325000,-0.106000000000
9.209303586000,-0.101000000000
9.216990847000,-0.096000000000
9.224678108000,-0.096000000000
9.232365369000,-0.091000000000
9.240052630000,-0.084000000000
9.247739909000,-0.089000000000
9.255427309000,-0.094000000000
9.263114709000,-0.091000000000
9.270802109000,-0.086000000000
9.278489509000,-0.089000000000
9.286176909000,-0.094000000000
9.293864309000,-0.096000000000
9.301551709000,-0.094000000000
9.309239109000,-0.094000000000
9.316926509000,-0.098000000000
9.324613909000,-0.101000000000
9.332301309000,-0.098000000000
9.339988709000,-0.098000000000
9.347676109000,-0.096000000000
9.355363509000,-0.089000000000
9.363050909000,-0.086000000000
9.370738309000,-0.089000000000
9.378425709000,-0.091000000000
9.386113109000,-0.089000000000
9.393800509000,-0.091000000000
9.401487909000,-0.089000000000
9.409175309000,-0.081000000000
9.416862709000,-0.076000000000
9.424550109000,-0.081000000000
9.432237509000,-0.084000000000
9.439924909000,-0.074000000000
9.447612309000,-0.069000000000
9.455299709000,-0.079000000000
9.462987109000,-0.081000000000
9.470674509000,-0.074000000000
9.478361909000,-0.074000000000
9.486049309000,-0.071000000000
9.493736709000,-0.064000000000
9.501424109000,-0.066000000000
9.509111509000,-0.069000000000
9.516798909000,-0.064000000000
9.524486309000,-0.061000000000
9.532173709000,-0.064000000000
9.539861109000,-0.059000000000
9.547548509000,-0.056000000000
9.555235909000,-0.064000000000
9.562923309000,-0.074000000000
9.570610709000,-0.079000000000
9.578298109000,-0.076000000000
9.585985509000,-0.071000000000
9.593672909000,-0.064000000000
9.601360309000,-0.049000000000
9.609047709000,-0.037000000000
9.616735109000,-0.034000000000
9.624422509000,-0.024000000000
9.632109909000,-0.032000000000
9.639797309000,-0.056000000000
9.647484709000,-0.066000000000
9.655172109000,-0.061000000000
9.662859509000,-0.061000000000
9.670546909000,-0.061000000000
9.678234309000,-0.056000000000
9.685921709000,-0.051000000000
9.693609109000,-0.064000000000
9.701296509000,-0.089000000000
9.708983909000,-0.044000000000
9.716671309000,0.207000000000
9.724358709000,0.623000000000
9.732046109000,0.714000000000
9.739733509000,0.230000000000
9.747420909000,-0.326000000000
9.755108309000,-0.425000000000
9.762795709000,-0.254000000000
9.770483109000,-0.192000000000
9.778170509000,-0.160000000000
9.785857909000,-0.079000000000
9.793545309000,-0.054000000000
9.801232709000,-0.076000000000
9.808920150000,-0.074000000000
9.816607271000,-0.056000000000
9.824294392000,-0.042000000000
9.831981513000,-0.034000000000
9.839668634000,-0.034000000000
9.847355755000,-0.037000000000
9.855042876000,-0.029000000000
9.862729997000,-0.022000000000
9.870417118000,-0.014000000000
9.878104239000,-0.007000000000
9.885791360000,-0.007000000000
9.893478481000,-0.004000000000
9.901165602000,0.007000000000
9.908852723000,0.017000000000
9.916539844000,0.024000000000
9.924226965000,0.034000000000
9.931914086000,0.047000000000
9.939601207000,0.059000000000
9.947288328000,0.069000000000
9.954975449000,0.079000000000
9.962662570000,0.094000000000
9.970349691000,0.111000000000
9.978036812000,0.106000000000
9.985723933000,0.086000000000
9.993411054000,0.081000000000
10.001098175000,0.091000000000
10.008785296000,0.081000000000
10.016472417000,0.054000000000
10.024159538000,0.024000000000
10.031846659000,-0.007000000000
10.039533780000,-0.039000000000
10.047220901000,-0.069000000000
10.054908022000,-0.096000000000
10.062595143000,-0.111000000000
10.070282264000,-0.118000000000
10.077969385000,-0.131000000000
10.085656506000,-0.138000000000
10.093343627000,-0.126000000000
10.101030748000,-0.113000000000
10.108717869000,-0.118000000000
10.116404990000,-0.123000000000
10.124092111000,-0.111000000000
10.131779232000,-0.101000000000
10.139466353000,-0.101000000000
10.147153474000,-0.101000000000
10.154840595000,-0.091000000000
10.162527716000,-0.089000000000
10.170214837000,-0.091000000000
10.177901958000,-0.089000000000
10.185589079000,-0.094000000000
10.193276200000,-0.096000000000
10.200963321000,-0.091000000000
10.208650442000,-0.089000000000
10.216337563000,-0.091000000000
10.224024684000,-0.091000000000
10.231711805000,-0.096000000000
10.239398926000,-0.096000000000
10.247086047000,-0.094000000000
10.254773168000,-0.094000000000
10.262460289000,-0.096000000000
10.270147410000,-0.096000000000
10.277834531000,-0.089000000000
10.285521652000,-0.081000000000
10.293208773000,-0.084000000000
10.300895894000,-0.089000000000
10.308583015000,-0.089000000000
10.316270136000,-0.091000000000
10.323957257000,-0.086000000000
10.331644378000,-0.079000000000
10.339331499000,-0.079000000000
10.347018620000,-0.079000000000
10.354705741000,-0.076000000000
10.362392862000,-0.074000000000
10.370080047000,-0.074000000000
10.377767517000,-0.066000000000
10.385454987000,-0.064000000000
10.393142457000,-0.071000000000
10.400829927000,-0.074000000000
10.408517397000,-0.066000000000
10.416204867000,-0.061000000000
10.423892337000,-0.066000000000
10.431579807000,-0.071000000000
10.439267277000,-0.064000000000
10.446954747000,-0.064000000000
10.454642217000,-0.069000000000
10.462329687000,-0.066000000000
10.470017157000,-0.069000000000
10.477704627000,-0.076000000000
10.485392097000,-0.074000000000
10.493079567000,-0.069000000000
10.500767037000,-0.064000000000
10.508454507000,-0.047000000000
10.516141977000,-0.029000000000
10.523829447000,-0.027000000000
10.531516917000,-0.032000000000
10.539204387000,-0.037000000000
10.546891857000,-0.054000000000
10.554579327000,-0.064000000000
10.562266797000,-0.064000000000
10.569954267000,-0.069000000000
10.577641737000,-0.069000000000
10.585329207000,-0.056000000000
10.593016677000,-0.056000000000
10.600704147000,-0.066000000000
10.608391617000,-0.076000000000
10.616079087000,-0.054000000000
10.623766557000,0.143000000000
10.631454027000,0.556000000000
10.639141497000,0.729000000000
10.646828967000,0.301000000000
10.654516437000,-0.289000000000
10.662203907000,-0.445000000000
10.669891377000,-0.274000000000
10.677578847000,-0.192000000000
10.685266317000,-0.160000000000
10.692953787000,-0.076000000000
10.700641257000,-0.056000000000
10.708328727000,-0.081000000000
10.716016197000,-0.061000000000
10.723703667000,-0.047000000000
10.731391137000,-0.056000000000
10.739078607000,-0.049000000000
10.746766077000,-0.032000000000
10.754453547000,-0.029000000000
10.762141017000,-0.032000000000
10.769828487000,-0.024000000000
10.777515957000,-0.017000000000
10.785203427000,-0.012000000000
10.792890897000,-0.007000000000
10.800578367000,0.000000000000
10.808265837000,0.004000000000
10.815953307000,0.012000000000
10.823640777000,0.024000000000
10.831328247000,0.034000000000
10.839015717000,0.044000000000
10.846703187000,0.054000000000
10.854390657000,0.069000000000
10.862078127000,0.084000000000
10.869765597000,0.089000000000
10.877453067000,0.096000000000
10.885140537000,0.101000000000
10.892828007000,0.091000000000
10.900515477000,0.089000000000
10.908202947000,0.086000000000
10.915890417000,0.071000000000
10.923577887000,0.051000000000
10.931265379000,0.022000000000
10.938952570000,-0.014000000000
10.946639761000,-0.044000000000
10.954326952000,-0.074000000000
10.962014143000,-0.111000000000
10.969701334000,-0.131000000000
10.977388525000,-0.138000000000
10.985075716000,-0.145000000000
10.992762907000,-0.143000000000
11.000450098000,-0.141000000000
11.008137289000,-0.133000000000
11.015824480000,-0.131000000000
11.023511671000,-0.131000000000
11.031198862000,-0.123000000000
11.038886053000,-0.113000000000
11.046573244000,-0.113000000000
11.054260435000,-0.116000000000
11.061947626000,-0.113000000000
11.069634817000,-0.108000000000
11.077322008000,-0.101000000000
11.085009199000,-0.096000000000
11.092696390000,-0.101000000000
11.100383581000,-0.106000000000
11.108070772000,-0.098000000000
11.115757963000,-0.098000000000
11.123445154000,-0.106000000000
11.131132345000,-0.108000000000
11.138819536000,-0.106000000000
11.146506727000,-0.103000000000
11.154193918000,-0.103000000000
11.161881109000,-0.101000000000
11.169568300000,-0.101000000000
11.177255491000,-0.103000000000
11.184942682000,-0.103000000000
11.192629873000,-0.103000000000
11.200317064000,-0.098000000000
11.208004255000,-0.094000000000
11.215691446000,-0.096000000000
11.223378637000,-0.101000000000
11.231065828000,-0.101000000000
11.238753019000,-0.101000000000
11.246440210000,-0.101000000000
11.254127401000,-0.091000000000
11.261814592000,-0.084000000000
11.269501783000,-0.091000000000
11.277188974000,-0.096000000000
11.284876165000,-0.089000000000
11.292563356000,-0.084000000000
11.300250547000,-0.081000000000
11.307937738000,-0.076000000000
11.315624929000,-0.079000000000
11.323312120000,-0.091000000000
11.330999311000,-0.089000000000
11.338686502000,-0.081000000000
11.346373693000,-0.081000000000
11.354060884000,-0.081000000000
11.361748075000,-0.079000000000
11.369435266000,-0.079000000000
11.377122457000,-0.071000000000
11.384809648000,-0.066000000000
11.392496839000,-0.074000000000
11.400184030000,-0.084000000000
11.407871221000,-0.081000000000
11.415558412000,-0.074000000000
11.423245603000,-0.079000000000
11.430932794000,-0.084000000000
11.438619985000,-0.084000000000
11.446307176000,-0.079000000000
11.453994367000,-0.069000000000
11.461681558000,-0.054000000000
11.469368749000,-0.047000000000
11.477055940000,-0.042000000000
11.484743131000,-0.029000000000
11.492430359000,-0.039000000000
11.500117898000,-0.066000000000
11.507805437000,-0.069000000000
11.515492976000,-0.064000000000
11.523180515000,-0.069000000000
11.530868054000,-0.074000000000
11.538555593000,-0.069000000000
11.546243132000,-0.071000000000
11.553930671000,-0.079000000000
11.561618210000,-0.089000000000
11.569305749000,-0.029000000000
11.576993288000,0.254000000000
11.584680827000,0.660000000000
11.592368366000,0.655000000000
11.600055905000,0.098000000000
11.607743444000,-0.395000000000
11.615430983000,-0.408000000000
11.623118522000,-0.249000000000
11.630806061000,-0.207000000000
11.638493600000,-0.158000000000
11.646181139000,-0.079000000000
11.653868678000,-0.081000000000
11.661556217000,-0.096000000000
11.669243756000,-0.071000000000
11.676931295000,-0.056000000000
11.684618834000,-0.054000000000
11.692306373000,-0.044000000000
11.699993912000,-0.042000000000
11.707681451000,-0.042000000000
11.715368990000,-0.037000000000
11.723056529000,-0.029000000000
11.730744068000,-0.019000000000
11.738431607000,-0.014000000000
11.746119146000,-0.014000000000
11.753806685000,0.000000000000
11.761494224000,0.004000000000
11.769181763000,-0.007000000000
11.776869302000,0.000000000000
11.784556841000,0.024000000000
11.792244380000,0.037000000000
11.799931919000,0.044000000000
11.807619458000,0.061000000000
11.815306997000,0.081000000000
11.822994536000,0.081000000000
11.830682075000,0.086000000000
11.838369614000,0.094000000000
11.846057153000,0.086000000000
11.853744692000,0.079000000000
11.861432231000,0.076000000000
11.869119770000,0.069000000000
11.876807309000,0.044000000000
11.884494848000,0.014000000000
11.892182387000,-0.014000000000
11.899869926000,-0.044000000000
11.907557465000,-0.076000000000
11.915245004000,-0.101000000000
11.922932543000,-0.116000000000
11.930620082000,-0.128000000000
11.938307621000,-0.136000000000
11.945995160000,-0.133000000000
11.953682699000,-0.131000000000
11.961370238000,-0.128000000000
11.969057777000,-0.123000000000
11.976745316000,-0.118000000000
11.984432855000,-0.111000000000
11.992120394000,-0.108000000000
11.999807933000,-0.106000000000
12.007495472000,-0.098000000000
12.015183011000,-0.096000000000
12.022870550000,-0.096000000000
12.030558089000,-0.089000000000
12.038245628000,-0.089000000000
12.045933167000,-0.096000000000
12.053620778000,-0.091000000000
12.061307899000,-0.084000000000
12.068995020000,-0.094000000000
12.076682141000,-0.101000000000
12.084369262000,-0.096000000000
12.092056383000,-0.091000000000
12.099743504000,-0.094000000000
12.107430625000,-0.096000000000
12.115117746000,-0.098000000000
12.122804867000,-0.103000000000
12.130491988000,-0.098000000000
12.138179109000,-0.091000000000
12.145866230000,-0.094000000000
12.153553351000,-0.098000000000
12.161240472000,-0.094000000000
12.168927593000,-0.089000000000
12.176614714000,-0.094000000000
12.184301835000,-0.096000000000
12.191988956000,-0.086000000000
12.199676077000,-0.081000000000
12.207363198000,-0.086000000000
12.215050319000,-0.084000000000
12.222737440000,-0.081000000000
12.230424561000,-0.081000000000
12.238111682000,-0.074000000000
12.245798803000,-0.071000000000
12.253485924000,-0.081000000000
12.261173045000,-0.079000000000
12.268860166000,-0.069000000000
12.276547287000,-0.069000000000
12.284234408000,-0.076000000000
12.291921529000,-0.071000000000
12.299608650000,-0.064000000000
12.307295771000,-0.061000000000
12.314982892000,-0.056000000000
12.322670013000,-0.059000000000
12.330357134000,-0.064000000000
12.338044255000,-0.069000000000
12.345731376000,-0.071000000000
12.353418497000,-0.066000000000
12.361105618000,-0.061000000000
12.368792739000,-0.059000000000
12.376479860000,-0.059000000000
12.384166981000,-0.066000000000
12.391854102000,-0.074000000000
12.399541223000,-0.074000000000
12.407228344000,-0.064000000000
12.414915465000,-0.047000000000
12.422602586000,-0.039000000000
12.430289707000,-0.042000000000
12.437976828000,-0.029000000000
12.445663949000,-0.029000000000
12.453351070000,-0.051000000000
12.461038191000,-0.061000000000
12.468725312000,-0.056000000000
12.476412433000,-0.064000000000
12.484099554000,-0.066000000000
12.491786675000,-0.061000000000
12.499473796000,-0.056000000000
12.507160917000,-0.054000000000
12.514848038000,-0.066000000000
12.522535159000,-0.061000000000
12.530222280000,0.108000000000
12.537909401000,0.507000000000
12.545596522000,0.724000000000
12.553283643000,0.366000000000
12.560970764000,-0.222000000000
12.568657885000,-0.435000000000
12.576345006000,-0.294000000000
12.584032127000,-0.212000000000
12.591719248000,-0.190000000000
12.599406369000,-0.098000000000
12.607093490000,-0.056000000000
12.614780675000,-0.074000000000
12.622468005000,-0.066000000000
12.630155335000,-0.051000000000
12.637842665000,-0.049000000000
12.645529995000,-0.037000000000
12.653217325000,-0.027000000000
12.660904655000,-0.032000000000
12.668591985000,-0.029000000000
12.676279315000,-0.017000000000
12.683966645000,-0.017000000000
12.691653975000,-0.014000000000
12.699341305000,-0.004000000000
12.707028635000,0.002000000000
12.714715965000,0.004000000000
12.722403295000,0.019000000000
12.730090625000,0.029000000000
12.737777955000,0.034000000000
12.745465285000,0.042000000000
12.753152615000,0.059000000000
12.760839945000,0.069000000000
12.768527275000,0.079000000000
12.776214605000,0.091000000000
12.783901935000,0.098000000000
12.791589265000,0.103000000000
12.799276595000,0.103000000000
12.806963925000,0.101000000000
12.814651255000,0.094000000000
12.822338585000,0.084000000000
12.830025915000,0.069000000000
12.837713245000,0.039000000000
12.845400575000,0.007000000000
12.853087905000,-0.022000000000
12.860775235000,-0.056000000000
12.868462565000,-0.089000000000
12.876149895000,-0.106000000000
12.883837225000,-0.118000000000
12.891524555000,-0.128000000000
12.899211885000,-0.128000000000
12.906899215000,-0.128000000000
12.914586545000,-0.123000000000
12.922273875000,-0.116000000000
12.929961205000,-0.118000000000
12.937648535000,-0.118000000000
12.945335865000,-0.108000000000
12.953023195000,-0.098000000000
12.960710525000,-0.096000000000
12.968397855000,-0.098000000000
12.976085185000,-0.094000000000
12.983772515000,-0.089000000000
12.991459845000,-0.081000000000
12.999147175000,-0.081000000000
13.006834505000,-0.091000000000
13.014521835000,-0.091000000000
13.022209165000,-0.086000000000
13.029896495000,-0.094000000000
13.037583825000,-0.098000000000
13.045271155000,-0.091000000000
13.052958485000,-0.081000000000
13.060645815000,-0.091000000000
13.068333145000,-0.101000000000
13.076020475000,-0.096000000000
13.083707805000,-0.094000000000
13.091395135000,-0.094000000000
13.099082465000,-0.091000000000
13.106769795000,-0.089000000000
13.114457125000,-0.094000000000
13.122144455000,-0.089000000000
13.129831785000,-0.081000000000
13.137519115000,-0.084000000000
13.145206445000,-0.089000000000
13.152893775000,-0.089000000000
13.160581105000,-0.081000000000
13.168268435000,-0.074000000000
13.175955833000,-0.071000000000
13.183643024000,-0.074000000000
13.191330215000,-0.081000000000
13.199017406000,-0.084000000000
13.206704597000,-0.084000000000
13.214391788000,-0.081000000000
13.222078979000,-0.076000000000
13.229766170000,-0.071000000000
13.237453361000,-0.066000000000
13.245140552000,-0.059000000000
13.252827743000,-0.047000000000
13.260514934000,-0.034000000000
13.268202125000,-0.039000000000
13.275889316000,-0.061000000000
13.283576507000,-0.069000000000
13.291263698000,-0.066000000000
13.298950889000,-0.071000000000
13.306638080000,-0.071000000000
13.314325271000,-0.066000000000
13.322012462000,-0.071000000000
13.329699653000,-0.079000000000
13.337386844000,-0.071000000000
13.345074035000,-0.066000000000
13.352761226000,0.007000000000
13.360448417000,0.311000000000
13.368135608000,0.690000000000
13.375822799000,0.573000000000
13.383509990000,-0.069000000000
13.391197181000,-0.489000000000
13.398884372000,-0.400000000000
13.406571563000,-0.254000000000
13.414258754000,-0.244000000000
13.421945945000,-0.163000000000
13.429633136000,-0.059000000000
13.437320327000,-0.054000000000
13.445007518000,-0.069000000000
13.452694709000,-0.054000000000
13.460381900000,-0.039000000000
13.468069091000,-0.037000000000
13.475756282000,-0.032000000000
13.483443473000,-0.024000000000
13.491130664000,-0.017000000000
13.498817855000,-0.014000000000
13.506505046000,-0.009000000000
13.514192237000,-0.002000000000
13.521879428000,0.002000000000
13.529566619000,0.007000000000
13.537253810000,0.022000000000
13.544941001000,0.032000000000
13.552628192000,0.037000000000
13.560315383000,0.047000000000
13.568002574000,0.061000000000
13.575689765000,0.079000000000
13.583376956000,0.091000000000
13.591064147000,0.098000000000
13.598751338000,0.111000000000
13.606438529000,0.133000000000
13.614125720000,0.138000000000
13.621812911000,0.128000000000
13.629500102000,0.131000000000
13.637187293000,0.133000000000
13.644874484000,0.116000000000
13.652561675000,0.094000000000
13.660248866000,0.071000000000
13.667936057000,0.037000000000
13.675623248000,-0.007000000000
13.683310439000,-0.059000000000
13.690997630000,-0.118000000000
13.698684821000,-0.150000000000
13.706372012000,-0.148000000000
13.714059203000,-0.150000000000
13.721746394000,-0.160000000000
13.729433585000,-0.153000000000
13.737120817000,-0.141000000000
13.744808078000,-0.138000000000
13.752495339000,-0.131000000000
13.760182600000,-0.123000000000
13.767869861000,-0.128000000000
13.775557122000,-0.121000000000
13.783244383000,-0.103000000000
13.790931644000,-0.101000000000
13.798618905000,-0.101000000000
13.806306166000,-0.101000000000
13.813993427000,-0.098000000000
13.821680688000,-0.096000000000
13.829367949000,-0.098000000000
13.837055210000,-0.096000000000
13.844742471000,-0.091000000000
13.852429732000,-0.094000000000
13.860116993000,-0.096000000000
13.867804254000,-0.096000000000
13.875491515000,-0.094000000000
13.883178776000,-0.098000000000
13.890866037000,-0.101000000000
13.898553298000,-0.096000000000
13.906240559000,-0.094000000000
13.913927820000,-0.103000000000
13.921615081000,-0.098000000000
13.929302342000,-0.081000000000
13.936989603000,-0.079000000000
13.944676864000,-0.091000000000
13.952364125000,-0.096000000000
13.960051386000,-0.096000000000
13.967738647000,-0.094000000000
13.975425908000,-0.084000000000
13.983113169000,-0.079000000000
13.990800430000,-0.084000000000
13.998487691000,-0.086000000000
14.006174952000,-0.086000000000
14.013862213000,-0.086000000000
14.021549474000,-0.091000000000
14.029236735000,-0.081000000000
14.036923996000,-0.056000000000
14.044611257000,-0.034000000000
14.052298518000,-0.032000000000
14.059985779000,-0.047000000000
14.067673040000,-0.066000000000
14.075360301000,-0.076000000000
14.083047562000,-0.074000000000
14.090734823000,-0.069000000000
14.098422084000,-0.069000000000
14.106109345000,-0.066000000000
14.113796606000,-0.056000000000
14.121483867000,-0.056000000000
14.129171128000,-0.079000000000
14.136858389000,-0.091000000000
14.144545650000,-0.042000000000
14.152232911000,0.192000000000
14.159920172000,0.591000000000
14.167607433000,0.672000000000
14.175294694000,0.163000000000
14.182981955000,-0.385000000000
14.190669216000,-0.440000000000
14.198356477000,-0.257000000000
14.206043738000,-0.210000000000
14.213730999000,-0.178000000000
14.221418260000,-0.084000000000
14.229105521000,-0.061000000000
14.236792782000,-0.079000000000
14.244480043000,-0.059000000000
14.252167304000,-0.039000000000
14.259854565000,-0.042000000000
14.267541826000,-0.042000000000
14.275229087000,-0.037000000000
14.282916348000,-0.027000000000
14.290603609000,-0.022000000000
14.298290884000,-0.027000000000
14.305978005000,-0.017000000000
14.313665126000,-0.002000000000
14.321352247000,-0.002000000000
14.329039368000,-0.002000000000
14.336726489000,0.009000000000
14.344413610000,0.019000000000
14.352100731000,0.027000000000
14.359787852000,0.044000000000
14.367474973000,0.061000000000
14.375162094000,0.066000000000
14.382849215000,0.074000000000
14.390536336000,0.096000000000
14.398223457000,0.116000000000
14.405910578000,0.116000000000
14.413597699000,0.113000000000
14.421284820000,0.113000000000
14.428971941000,0.108000000000
14.436659062000,0.096000000000
14.444346183000,0.074000000000
14.452033304000,0.047000000000
14.459720425000,0.014000000000
14.467407546000,-0.022000000000
14.475094667000,-0.059000000000
14.482781788000,-0.086000000000
14.490468909000,-0.111000000000
14.498156030000,-0.128000000000
14.505843151000,-0.133000000000
14.513530272000,-0.148000000000
14.521217393000,-0.160000000000
14.528904514000,-0.150000000000
14.536591635000,-0.141000000000
14.544278756000,-0.133000000000
14.551965877000,-0.123000000000
14.559652998000,-0.118000000000
14.567340119000,-0.118000000000
14.575027240000,-0.118000000000
14.582714361000,-0.108000000000
14.590401482000,-0.091000000000
14.598088603000,-0.084000000000
14.605775724000,-0.096000000000
14.613462845000,-0.113000000000
14.621149966000,-0.113000000000
14.628837087000,-0.101000000000
14.636524208000,-0.098000000000
14.644211329000,-0.101000000000
14.651898450000,-0.094000000000
14.659585571000,-0.101000000000
14.667272692000,-0.108000000000
14.674959813000,-0.098000000000
14.682646934000,-0.096000000000
14.690334055000,-0.108000000000
14.698021176000,-0.111000000000
14.705708297000,-0.101000000000
14.713395418000,-0.091000000000
14.721082539000,-0.094000000000
14.728769660000,-0.094000000000
14.736456781000,-0.091000000000
14.744143902000,-0.094000000000
14.751831023000,-0.101000000000
14.759518144000,-0.096000000000
14.767205265000,-0.086000000000
14.774892386000,-0.086000000000
14.782579507000,-0.098000000000
14.790266628000,-0.098000000000
14.797953749000,-0.101000000000
14.805640870000,-0.096000000000
14.813327991000,-0.081000000000
14.821015112000,-0.069000000000
14.828702233000,-0.064000000000
14.836389354000,-0.061000000000
14.844076475000,-0.051000000000
14.851763596000,-0.054000000000
14.859450781000,-0.076000000000
14.867138320000,-0.081000000000
14.874825859000,-0.074000000000
14.882513398000,-0.079000000000
14.890200937000,-0.086000000000
14.897888476000,-0.086000000000
14.905576015000,-0.081000000000
14.913263554000,-0.079000000000
14.920951093000,-0.089000000000
14.928638632000,-0.066000000000
14.936326171000,0.116000000000
14.944013710000,0.494000000000
14.951701249000,0.650000000000
14.959388788000,0.254000000000
14.967076327000,-0.294000000000
14.974763866000,-0.447000000000
14.982451405000,-0.296000000000
14.990138944000,-0.220000000000
14.997826483000,-0.190000000000
15.005514022000,-0.101000000000
15.013201561000,-0.066000000000
15.020889100000,-0.089000000000
15.028576639000,-0.074000000000
15.036264178000,-0.047000000000
15.043951717000,-0.044000000000
15.051639256000,-0.051000000000
15.059326795000,-0.044000000000
15.067014334000,-0.037000000000
15.074701873000,-0.037000000000
15.082389412000,-0.022000000000
15.090076951000,-0.012000000000
15.097764490000,-0.012000000000
15.105452029000,0.000000000000
15.113139568000,0.009000000000
15.120827107000,0.000000000000
15.128514646000,0.002000000000
15.136202185000,0.022000000000
15.143889724000,0.034000000000
15.151577263000,0.042000000000
15.159264802000,0.056000000000
15.166952341000,0.069000000000
15.174639880000,0.084000000000
15.182327419000,0.098000000000
15.190014958000,0.106000000000
15.197702497000,0.108000000000
15.205390036000,0.116000000000
15.213077575000,0.113000000000
15.220765114000,0.096000000000
15.228452653000,0.071000000000
15.236140192000,0.042000000000
15.243827731000,0.007000000000
15.251515270000,-0.029000000000
15.259202809000,-0.059000000000
15.266890348000,-0.076000000000
15.274577887000,-0.101000000000
15.282265426000,-0.123000000000
15.289952965000,-0.136000000000
15.297640504000,-0.141000000000
15.305328043000,-0.138000000000
15.313015582000,-0.141000000000
15.320703121000,-0.143000000000
15.328390660000,-0.133000000000
15.336078199000,-0.128000000000
15.343765738000,-0.126000000000
15.351453277000,-0.118000000000
15.359140816000,-0.103000000000
15.366828355000,-0.094000000000
15.374515894000,-0.091000000000
15.382203433000,-0.098000000000
15.389890972000,-0.096000000000
15.397578511000,-0.089000000000
15.405266050000,-0.089000000000
15.412953589000,-0.094000000000
15.420641200000,-0.091000000000
15.428328461000,-0.086000000000
15.436015722000,-0.089000000000
15.443702983000,-0.096000000000
15.451390244000,-0.103000000000
15.459077505000,-0.106000000000
15.466764766000,-0.103000000000
15.474452027000,-0.103000000000
15.482139288000,-0.108000000000
15.489826549000,-0.108000000000
15.497513810000,-0.103000000000
15.505201071000,-0.103000000000
15.512888332000,-0.098000000000
15.520575593000,-0.094000000000
15.528262854000,-0.101000000000
15.535950115000,-0.108000000000
15.543637376000,-0.103000000000
15.551324637000,-0.103000000000
15.559011898000,-0.101000000000
15.566699159000,-0.094000000000
15.574386420000,-0.094000000000
15.582073681000,-0.098000000000
15.589760942000,-0.098000000000
15.597448203000,-0.098000000000
15.605135464000,-0.106000000000
15.612822725000,-0.111000000000
15.620509986000,-0.103000000000
15.628197247000,-0.089000000000
15.635884508000,-0.071000000000
15.643571769000,-0.064000000000
15.651259030000,-0.059000000000
15.658946291000,-0.061000000000
15.666633552000,-0.076000000000
15.674320813000,-0.091000000000
15.682008074000,-0.098000000000
15.689695335000,-0.096000000000
15.697382596000,-0.094000000000
15.705069857000,-0.096000000000
15.712757118000,-0.089000000000
15.720444379000,-0.089000000000
15.728131640000,-0.101000000000
15.735818901000,-0.106000000000
15.743506162000,-0.061000000000
15.751193423000,0.165000000000
15.758880684000,0.531000000000
15.766567945000,0.578000000000
15.774255206000,0.103000000000
15.781942467000,-0.366000000000
15.789629728000,-0.415000000000
15.797316989000,-0.277000000000
15.805004250000,-0.232000000000
15.812691511000,-0.185000000000
15.820378772000,-0.103000000000
15.828066033000,-0.089000000000
15.835753294000,-0.101000000000
15.843440555000,-0.089000000000
15.851127816000,-0.079000000000
15.858815077000,-0.079000000000
15.866502338000,-0.071000000000
15.874189599000,-0.061000000000
15.881876860000,-0.054000000000
15.889564121000,-0.056000000000
15.897251382000,-0.054000000000
15.904938643000,-0.044000000000
15.912625904000,-0.042000000000
15.920313165000,-0.047000000000
15.928000426000,-0.039000000000
15.935687687000,-0.022000000000
15.943374948000,-0.017000000000
15.951062209000,-0.014000000000
15.958749470000,0.000000000000
15.966436731000,0.017000000000
15.974123992000,0.024000000000
15.981811271000,0.037000000000
15.989498671000,0.051000000000
15.997186071000,0.061000000000
16.004873471000,0.066000000000
16.012560871000,0.069000000000
16.020248271000,0.069000000000
16.027935671000,0.069000000000
16.035623071000,0.056000000000
16.043310471000,0.042000000000
16.050997871000,0.019000000000
16.058685271000,-0.022000000000
16.066372671000,-0.061000000000
16.074060071000,-0.094000000000
16.081747471000,-0.126000000000
16.089434871000,-0.150000000000
16.097122271000,-0.168000000000
16.104809671000,-0.178000000000
16.112497071000,-0.175000000000
16.120184471000,-0.178000000000
16.127871871000,-0.190000000000
16.135559271000,-0.183000000000
16.143246671000,-0.168000000000
16.150934071000,-0.170000000000
16.158621471000,-0.175000000000
16.166308871000,-0.168000000000
16.173996271000,-0.155000000000
16.181683671000,-0.153000000000
16.189371071000,-0.153000000000
16.197058471000,-0.148000000000
16.204745871000,-0.150000000000
16.212433271000,-0.155000000000
16.220120671000,-0.158000000000
16.227808071000,-0.158000000000
16.235495471000,-0.155000000000
16.243182871000,-0.153000000000
16.250870271000,-0.153000000000
16.258557671000,-0.155000000000
16.266245071000,-0.155000000000
16.273932471000,-0.155000000000
16.281619871000,-0.155000000000
16.289307271000,-0.160000000000
16.296994671000,-0.165000000000
16.304682071000,-0.165000000000
16.312369471000,-0.168000000000
16.320056871000,-0.168000000000
16.327744271000,-0.160000000000
16.335431671000,-0.163000000000
16.343119071000,-0.170000000000
16.350806471000,-0.163000000000
16.358493871000,-0.155000000000
16.366181271000,-0.153000000000
16.373868671000,-0.153000000000
16.381556071000,-0.153000000000
16.389243471000,-0.168000000000
16.396930871000,-0.175000000000
16.404618271000,-0.165000000000
16.412305671000,-0.165000000000
16.419993071000,-0.165000000000
16.427680471000,-0.143000000000
16.435367871000,-0.128000000000
16.443055271000,-0.126000000000
16.450742671000,-0.113000000000
16.458430071000,-0.118000000000
16.466117471000,-0.153000000000
16.473804871000,-0.160000000000
16.481492271000,-0.148000000000
16.489179671000,-0.150000000000
16.496867071000,-0.148000000000
16.504554471000,-0.141000000000
16.512241871000,-0.153000000000
16.519929271000,-0.155000000000
16.527616671000,-0.148000000000
16.535304071000,-0.138000000000
16.542991512000,0.012000000000
16.550678633000,0.380000000000
16.558365754000,0.573000000000
16.566052875000,0.210000000000
16.573739996000,-0.336000000000
16.581427117000,-0.507000000000
16.589114238000,-0.380000000000
16.596801359000,-0.311000000000
16.604488480000,-0.269000000000
16.612175601000,-0.175000000000
16.619862722000,-0.136000000000
16.627549843000,-0.150000000000
16.635236964000,-0.138000000000
16.642924085000,-0.111000000000
16.650611206000,-0.108000000000
16.658298327000,-0.111000000000
16.665985448000,-0.101000000000
16.673672569000,-0.091000000000
16.681359690000,-0.089000000000
16.689046811000,-0.076000000000
16.696733932000,-0.074000000000
16.704421053000,-0.079000000000
16.712108174000,-0.069000000000
16.719795295000,-0.051000000000
16.727482416000,-0.049000000000
16.735169537000,-0.044000000000
16.742856658000,-0.029000000000
16.750543779000,-0.017000000000
16.758230900000,-0.004000000000
16.765918021000,0.009000000000
16.773605142000,0.017000000000
16.781292263000,0.029000000000
16.788979384000,0.047000000000
16.796666505000,0.056000000000
16.804353626000,0.061000000000
16.812040747000,0.061000000000
16.819727868000,0.059000000000
16.827414989000,0.054000000000
16.835102110000,0.039000000000
16.842789231000,0.014000000000
16.850476352000,-0.014000000000
16.858163473000,-0.051000000000
16.865850594000,-0.094000000000
16.873537715000,-0.123000000000
16.881224836000,-0.148000000000
16.888911957000,-0.168000000000
16.896599078000,-0.178000000000
16.904286199000,-0.185000000000
16.911973320000,-0.183000000000
16.919660441000,-0.173000000000
16.927347562000,-0.168000000000
16.935034683000,-0.170000000000
16.942721804000,-0.173000000000
16.950408925000,-0.168000000000
16.958096046000,-0.158000000000
16.965783167000,-0.148000000000
16.973470288000,-0.143000000000
16.981157409000,-0.143000000000
16.988844530000,-0.136000000000
16.996531651000,-0.126000000000
17.004218772000,-0.123000000000
17.011905893000,-0.131000000000
17.019593014000,-0.123000000000
17.027280135000,-0.118000000000
17.034967256000,-0.123000000000
17.042654377000,-0.131000000000
17.050341498000,-0.126000000000
17.058028619000,-0.121000000000
17.065715740000,-0.121000000000
17.073402861000,-0.118000000000
17.081089982000,-0.126000000000
17.088777103000,-0.131000000000
17.096464224000,-0.126000000000
17.104151409000,-0.123000000000
17.111838879000,-0.126000000000
17.119526349000,-0.118000000000
17.127213819000,-0.103000000000
17.134901289000,-0.111000000000
17.142588759000,-0.128000000000
17.150276229000,-0.116000000000
17.157963699000,-0.098000000000
17.165651169000,-0.106000000000
17.173338639000,-0.116000000000
17.181026109000,-0.111000000000
17.188713579000,-0.111000000000
17.196401049000,-0.113000000000
17.204088519000,-0.111000000000
17.211775989000,-0.098000000000
17.219463459000,-0.081000000000
17.227150929000,-0.074000000000
17.234838399000,-0.076000000000
17.242525869000,-0.071000000000
17.250213339000,-0.069000000000
17.257900809000,-0.081000000000
17.265588279000,-0.094000000000
17.273275749000,-0.096000000000
17.280963219000,-0.094000000000
17.288650689000,-0.096000000000
17.296338159000,-0.094000000000
17.304025629000,-0.086000000000
17.311713099000,-0.086000000000
17.319400569000,-0.103000000000
17.327088039000,-0.086000000000
17.334775509000,0.111000000000
17.342462979000,0.492000000000
17.350150449000,0.638000000000
17.357837919000,0.235000000000
17.365525389000,-0.306000000000
17.373212859000,-0.445000000000
17.380900329000,-0.294000000000
17.388587799000,-0.225000000000
17.396275269000,-0.197000000000
17.403962739000,-0.108000000000
17.411650209000,-0.081000000000
17.419337679000,-0.098000000000
17.427025149000,-0.081000000000
17.434712619000,-0.064000000000
17.442400089000,-0.066000000000
17.450087559000,-0.059000000000
17.457775029000,-0.047000000000
17.465462499000,-0.044000000000
17.473149969000,-0.039000000000
17.480837439000,-0.029000000000
17.488524909000,-0.029000000000
17.496212379000,-0.032000000000
17.503899849000,-0.022000000000
17.511587319000,-0.009000000000
17.519274789000,-0.009000000000
17.526962259000,-0.004000000000
17.534649729000,0.012000000000
17.542337199000,0.027000000000
17.550024669000,0.037000000000
17.557712139000,0.051000000000
17.565399609000,0.064000000000
17.573087079000,0.076000000000
17.580774549000,0.086000000000
17.588462019000,0.094000000000
17.596149489000,0.103000000000
17.603836959000,0.103000000000
17.611524429000,0.094000000000
17.619211899000,0.091000000000
17.626899369000,0.086000000000
17.634586839000,0.059000000000
17.642274309000,0.022000000000
17.649961779000,-0.012000000000
17.657649249000,-0.044000000000
17.665336741000,-0.076000000000
17.673023932000,-0.103000000000
17.680711123000,-0.121000000000
17.688398314000,-0.128000000000
17.696085505000,-0.131000000000
17.703772696000,-0.136000000000
17.711459887000,-0.138000000000
17.719147078000,-0.128000000000
17.726834269000,-0.118000000000
17.734521460000,-0.121000000000
17.742208651000,-0.118000000000
17.749895842000,-0.108000000000
17.757583033000,-0.103000000000
17.765270224000,-0.103000000000
17.772957415000,-0.096000000000
17.780644606000,-0.091000000000
17.788331797000,-0.094000000000
17.796018988000,-0.089000000000
17.803706179000,-0.084000000000
17.811393370000,-0.086000000000
17.819080561000,-0.086000000000
17.826767752000,-0.086000000000
17.834454943000,-0.084000000000
17.842142134000,-0.084000000000
17.849829325000,-0.086000000000
17.857516516000,-0.086000000000
17.865203707000,-0.084000000000
17.872890898000,-0.084000000000
17.880578089000,-0.086000000000
17.888265280000,-0.084000000000
17.895952471000,-0.086000000000
17.903639662000,-0.081000000000
17.911326853000,-0.076000000000
17.919014044000,-0.079000000000
17.926701235000,-0.076000000000
17.934388426000,-0.074000000000
17.942075617000,-0.074000000000
17.949762808000,-0.074000000000
17.957449999000,-0.069000000000
17.965137190000,-0.069000000000
17.972824381000,-0.071000000000
17.980511572000,-0.071000000000
17.988198763000,-0.074000000000
17.995885954000,-0.084000000000
18.003573145000,-0.081000000000
18.011260336000,-0.061000000000
18.018947527000,-0.044000000000
18.026634718000,-0.042000000000
18.034321909000,-0.044000000000
18.042009100000,-0.037000000000
18.049696291000,-0.032000000000
18.057383482000,-0.042000000000
18.065070673000,-0.054000000000
18.072757864000,-0.064000000000
18.080445055000,-0.064000000000
18.088132246000,-0.056000000000
18.095819437000,-0.054000000000
18.103506628000,-0.061000000000
18.111193819000,-0.061000000000
18.118881010000,-0.056000000000
18.126568201000,-0.061000000000
18.134255392000,-0.004000000000
18.141942583000,0.269000000000
18.149629774000,0.628000000000
18.157316965000,0.576000000000
18.165004156000,0.044000000000
18.172691347000,-0.378000000000
18.180378538000,-0.368000000000
18.188065729000,-0.230000000000
18.195752920000,-0.185000000000
18.203440111000,-0.126000000000
18.211127302000,-0.059000000000
18.218814493000,-0.061000000000
18.226501721000,-0.059000000000
18.234189260000,-0.039000000000
18.241876799000,-0.037000000000
18.249564338000,-0.034000000000
18.257251877000,-0.022000000000
18.264939416000,-0.019000000000
18.272626955000,-0.022000000000
18.280314494000,-0.019000000000
18.288002033000,-0.012000000000
18.295689572000,-0.004000000000
18.303377111000,-0.002000000000
18.311064650000,0.007000000000
18.318752189000,0.019000000000
18.326439728000,0.024000000000
18.334127267000,0.029000000000
18.341814806000,0.037000000000
18.349502345000,0.047000000000
18.357189884000,0.056000000000
18.364877423000,0.071000000000
18.372564962000,0.089000000000
18.380252501000,0.106000000000
18.387940040000,0.113000000000
18.395627579000,0.113000000000
18.403315118000,0.121000000000
18.411002657000,0.126000000000
18.418690196000,0.118000000000
18.426377735000,0.113000000000
18.434065274000,0.096000000000
18.441752813000,0.061000000000
18.449440352000,0.034000000000
18.457127891000,0.007000000000
18.464815430000,-0.032000000000
18.472502969000,-0.064000000000
18.480190508000,-0.079000000000
18.487878047000,-0.101000000000
18.495565586000,-0.116000000000
18.503253125000,-0.113000000000
18.510940664000,-0.111000000000
18.518628203000,-0.111000000000
18.526315742000,-0.108000000000
18.534003281000,-0.101000000000
18.541690820000,-0.096000000000
18.549378359000,-0.094000000000
18.557065898000,-0.094000000000
18.564753437000,-0.089000000000
18.572440976000,-0.079000000000
18.580128515000,-0.069000000000
18.587816054000,-0.074000000000
18.595503593000,-0.076000000000
18.603191132000,-0.064000000000
18.610878671000,-0.061000000000
18.618566210000,-0.074000000000
18.626253749000,-0.076000000000
18.633941288000,-0.071000000000
18.641628827000,-0.079000000000
18.649316366000,-0.076000000000
18.657003905000,-0.064000000000
18.664691444000,-0.066000000000
18.672378983000,-0.086000000000
18.680066522000,-0.084000000000
18.687754061000,-0.069000000000
18.695441600000,-0.069000000000
18.703129139000,-0.076000000000
18.710816678000,-0.074000000000
18.718504217000,-0.069000000000
18.726191756000,-0.066000000000
18.733879295000,-0.066000000000
18.741566834000,-0.066000000000
18.749254373000,-0.066000000000
18.756941912000,-0.064000000000
18.764629451000,-0.064000000000
18.772316990000,-0.066000000000
18.780004529000,-0.059000000000
18.787692140000,-0.049000000000
18.795379401000,-0.054000000000
18.803066662000,-0.064000000000
18.810753923000,-0.061000000000
18.818441184000,-0.056000000000
18.826128445000,-0.059000000000
18.833815706000,-0.061000000000
18.841502967000,-0.061000000000
18.849190228000,-0.061000000000
18.856877489000,-0.054000000000
18.864564750000,-0.034000000000
18.872252011000,-0.024000000000
18.879939272000,-0.027000000000
18.887626533000,-0.027000000000
18.895313794000,-0.032000000000
18.903001055000,-0.047000000000
18.910688316000,-0.051000000000
18.918375577000,-0.049000000000
18.926062838000,-0.056000000000
18.933750099000,-0.064000000000
18.941437360000,-0.056000000000
18.949124621000,-0.049000000000
18.956811882000,-0.054000000000
18.964499143000,-0.066000000000
18.972186404000,-0.059000000000
18.979873665000,0.074000000000
18.987560926000,0.418000000000
18.995248187000,0.665000000000
19.002935448000,0.405000000000
19.010622709000,-0.143000000000
19.018309970000,-0.408000000000
19.025997231000,-0.304000000000
19.033684492000,-0.200000000000
19.041371753000,-0.173000000000
19.049059014000,-0.096000000000
19.056746275000,-0.047000000000
19.064433536000,-0.059000000000
19.072120797000,-0.051000000000
19.079808058000,-0.034000000000
19.087495319000,-0.037000000000
19.095182580000,-0.032000000000
19.102869841000,-0.019000000000
19.110557102000,-0.019000000000
19.118244363000,-0.019000000000
19.125931624000,-0.009000000000
19.133618885000,-0.002000000000
19.141306146000,0.004000000000
19.148993407000,0.009000000000
19.156680668000,0.014000000000
19.164367929000,0.014000000000
19.172055190000,0.019000000000
19.179742451000,0.027000000000
19.187429712000,0.037000000000
19.195116973000,0.047000000000
19.202804234000,0.056000000000
19.210491495000,0.066000000000
19.218178756000,0.076000000000
19.225866017000,0.094000000000
19.233553278000,0.111000000000
19.241240539000,0.113000000000
19.248927800000,0.108000000000
19.256615061000,0.108000000000
19.264302322000,0.106000000000
19.271989583000,0.098000000000
19.279676844000,0.084000000000
19.287364105000,0.059000000000
19.295051366000,0.024000000000
19.302738627000,-0.007000000000
19.310425888000,-0.037000000000
19.318113149000,-0.059000000000
19.325800410000,-0.081000000000
19.333487671000,-0.098000000000
19.341174932000,-0.106000000000
19.348862211000,-0.108000000000
19.356549611000,-0.113000000000
19.364237011000,-0.113000000000
19.371924411000,-0.103000000000
19.379611811000,-0.101000000000
19.387299211000,-0.098000000000
19.394986611000,-0.091000000000
19.402674011000,-0.086000000000
19.410361411000,-0.084000000000
19.418048811000,-0.081000000000
19.425736211000,-0.079000000000
19.433423611000,-0.079000000000
19.441111011000,-0.079000000000
19.448798411000,-0.074000000000
19.456485811000,-0.071000000000
19.464173211000,-0.071000000000
19.471860611000,-0.071000000000
19.479548011000,-0.079000000000
19.487235411000,-0.084000000000
19.494922811000,-0.081000000000
19.502610211000,-0.079000000000
19.510297611000,-0.084000000000
19.517985011000,-0.086000000000
19.525672411000,-0.084000000000
19.533359811000,-0.084000000000
19.541047211000,-0.084000000000
19.548734611000,-0.079000000000
19.556422011000,-0.074000000000
19.564109411000,-0.076000000000
19.571796811000,-0.079000000000
19.579484211000,-0.079000000000
19.587171611000,-0.079000000000
19.594859011000,-0.074000000000
19.602546411000,-0.071000000000
19.610233811000,-0.066000000000
19.617921211000,-0.061000000000
19.625608611000,-0.064000000000
19.633296011000,-0.069000000000
19.640983411000,-0.071000000000
19.648670811000,-0.064000000000
19.656358211000,-0.064000000000
19.664045611000,-0.064000000000
19.671733011000,-0.061000000000
19.679420411000,-0.066000000000
19.687107811000,-0.071000000000
19.694795211000,-0.066000000000
19.702482611000,-0.066000000000
19.710170011000,-0.061000000000
19.717857411000,-0.042000000000
19.725544811000,-0.027000000000
19.733232211000,-0.027000000000
19.740919611000,-0.027000000000
19.748607011000,-0.042000000000
19.756294411000,-0.059000000000
19.763981811000,-0.059000000000
19.771669211000,-0.054000000000
19.779356611000,-0.059000000000
19.787044011000,-0.064000000000
19.794731411000,-0.066000000000
19.802418811000,-0.059000000000
19.810106211000,-0.061000000000
19.817793611000,-0.071000000000
19.825481011000,-0.037000000000
19.833168411000,0.173000000000
19.840855811000,0.546000000000
19.848543211000,0.643000000000
19.856230611000,0.195000000000
19.863918011000,-0.319000000000
19.871605411000,-0.410000000000
19.879292811000,-0.264000000000
19.886980211000,-0.210000000000
19.894667611000,-0.168000000000
19.902355011000,-0.076000000000
19.910042452000,-0.056000000000
19.917729573000,-0.071000000000
19.925416694000,-0.049000000000
19.933103815000,-0.037000000000
19.940790936000,-0.044000000000
19.948478057000,-0.034000000000
19.956165178000,-0.024000000000
19.963852299000,-0.029000000000
19.971539420000,-0.029000000000
19.979226541000,-0.012000000000
19.986913662000,0.002000000000
19.994600783000,-0.004000000000
20.002287904000,-0.012000000000
20.009975025000,-0.002000000000
20.017662146000,0.012000000000
20.025349267000,0.027000000000
20.033036388000,0.037000000000
20.040723509000,0.037000000000
20.048410630000,0.049000000000
20.056097751000,0.069000000000
20.063784872000,0.079000000000
20.071471993000,0.086000000000
20.079159114000,0.103000000000
20.086846235000,0.113000000000
20.094533356000,0.116000000000
20.102220477000,0.113000000000
20.109907598000,0.111000000000
20.117594719000,0.108000000000
20.125281840000,0.098000000000
20.132968961000,0.081000000000
20.140656082000,0.056000000000
20.148343203000,0.022000000000
20.156030324000,-0.022000000000
20.163717445000,-0.059000000000
20.171404566000,-0.081000000000
20.179091687000,-0.098000000000
20.186778808000,-0.113000000000
20.194465929000,-0.126000000000
20.202153050000,-0.126000000000
20.209840171000,-0.121000000000
20.217527292000,-0.116000000000
20.225214413000,-0.118000000000
20.232901534000,-0.111000000000
20.240588655000,-0.101000000000
20.248275776000,-0.101000000000
20.255962897000,-0.098000000000
20.263650018000,-0.091000000000
20.271337139000,-0.089000000000
20.279024260000,-0.091000000000
20.286711381000,-0.084000000000
20.294398502000,-0.079000000000
20.302085623000,-0.086000000000
20.309772744000,-0.089000000000
20.317459865000,-0.084000000000
20.325146986000,-0.084000000000
20.332834107000,-0.084000000000
20.340521228000,-0.081000000000
20.348208349000,-0.084000000000
20.355895470000,-0.089000000000
20.363582591000,-0.089000000000
20.371269712000,-0.086000000000
20.378956833000,-0.089000000000
20.386643954000,-0.091000000000
20.394331075000,-0.089000000000
20.402018196000,-0.084000000000
20.409705317000,-0.084000000000
20.417392438000,-0.084000000000
20.425079559000,-0.081000000000
20.432766680000,-0.079000000000
20.440453801000,-0.076000000000
20.448140922000,-0.071000000000
20.455828043000,-0.076000000000
20.463515164000,-0.079000000000
20.471202349000,-0.071000000000
20.478889819000,-0.069000000000
20.486577289000,-0.076000000000
20.494264759000,-0.079000000000
20.501952229000,-0.079000000000
20.509639699000,-0.076000000000
20.517327169000,-0.066000000000
20.525014639000,-0.051000000000
20.532702109000,-0.039000000000
20.540389579000,-0.037000000000
20.548077049000,-0.039000000000
20.555764519000,-0.037000000000
20.563451989000,-0.049000000000
20.571139459000,-0.069000000000
20.578826929000,-0.071000000000
20.586514399000,-0.064000000000
20.594201869000,-0.064000000000
20.601889339000,-0.059000000000
20.609576809000,-0.056000000000
20.617264279000,-0.061000000000
20.624951749000,-0.069000000000
20.632639219000,-0.054000000000
20.640326689000,0.106000000000
20.648014159000,0.477000000000
20.655701629000,0.677000000000
20.663389099000,0.314000000000
20.671076569000,-0.262000000000
20.678764039000,-0.442000000000
20.686451509000,-0.289000000000
20.694138979000,-0.205000000000
20.701826449000,-0.188000000000
20.709513919000,-0.098000000000
20.717201389000,-0.047000000000
20.724888859000,-0.064000000000
20.732576329000,-0.054000000000
20.740263799000,-0.029000000000
20.747951269000,-0.029000000000
20.755638739000,-0.029000000000
20.763326209000,-0.017000000000
20.771013679000,-0.009000000000
20.778701149000,-0.007000000000
20.786388619000,-0.007000000000
20.794076089000,0.000000000000
20.801763559000,0.004000000000
20.809451029000,0.004000000000
20.817138499000,0.012000000000
20.824825969000,0.024000000000
20.832513439000,0.027000000000
20.840200909000,0.032000000000
20.847888379000,0.047000000000
20.855575849000,0.059000000000
20.863263319000,0.066000000000
20.870950789000,0.081000000000
20.878638259000,0.094000000000
20.886325729000,0.106000000000
20.894013199000,0.116000000000
20.901700669000,0.121000000000
20.909388139000,0.118000000000
20.917075609000,0.118000000000
20.924763079000,0.118000000000
20.932450549000,0.103000000000
20.940138019000,0.079000000000
20.947825489000,0.051000000000
20.955512959000,0.022000000000
20.963200429000,-0.014000000000
20.970887899000,-0.044000000000
20.978575369000,-0.069000000000
20.986262839000,-0.094000000000
20.993950309000,-0.113000000000
21.001637779000,-0.121000000000
21.009325249000,-0.123000000000
21.017012719000,-0.123000000000
21.024700189000,-0.118000000000
21.032387681000,-0.116000000000
21.040074872000,-0.111000000000
21.047762063000,-0.106000000000
21.055449254000,-0.098000000000
21.063136445000,-0.091000000000
21.070823636000,-0.091000000000
21.078510827000,-0.086000000000
21.086198018000,-0.079000000000
21.093885209000,-0.076000000000
21.101572400000,-0.076000000000
21.109259591000,-0.079000000000
21.116946782000,-0.081000000000
21.124633973000,-0.081000000000
21.132321164000,-0.084000000000
21.140008355000,-0.084000000000
21.147695546000,-0.081000000000
21.155382737000,-0.084000000000
21.163069928000,-0.086000000000
21.170757119000,-0.081000000000
21.178444310000,-0.084000000000
21.186131501000,-0.084000000000
21.193818692000,-0.076000000000
21.201505883000,-0.074000000000
21.209193074000,-0.084000000000
21.216880265000,-0.081000000000
21.224567456000,-0.076000000000
21.232254647000,-0.079000000000
21.239941838000,-0.079000000000
21.247629029000,-0.071000000000
21.255316220000,-0.071000000000
21.263003411000,-0.066000000000
21.270690602000,-0.064000000000
21.278377793000,-0.069000000000
21.286064984000,-0.071000000000
21.293752175000,-0.064000000000
21.301439366000,-0.064000000000
21.309126557000,-0.071000000000
21.316813748000,-0.069000000000
21.324500939000,-0.056000000000
21.332188130000,-0.051000000000
21.339875321000,-0.064000000000
21.347562512000,-0.076000000000
21.355249703000,-0.074000000000
21.362936894000,-0.071000000000
21.370624085000,-0.066000000000
21.378311276000,-0.049000000000
21.385998467000,-0.034000000000
21.393685658000,-0.034000000000
21.401372849000,-0.032000000000
21.409060040000,-0.024000000000
21.416747231000,-0.029000000000
21.424434422000,-0.049000000000
21.432121613000,-0.054000000000
21.439808804000,-0.051000000000
21.447495995000,-0.061000000000
21.455183186000,-0.066000000000
21.462870377000,-0.054000000000
21.470557568000,-0.051000000000
21.478244759000,-0.059000000000
21.485931950000,-0.061000000000
21.493619141000,-0.024000000000
21.501306332000,0.195000000000
21.508993523000,0.578000000000
21.516680714000,0.672000000000
21.524367905000,0.220000000000
21.532055096000,-0.296000000000
21.539742287000,-0.395000000000
21.547429478000,-0.242000000000
21.555116669000,-0.183000000000
21.562803860000,-0.150000000000
21.570491051000,-0.071000000000
21.578178242000,-0.059000000000
21.585865433000,-0.069000000000
21.593552661000,-0.047000000000
21.601240200000,-0.034000000000
21.608927739000,-0.044000000000
21.616615278000,-0.034000000000
21.624302817000,-0.024000000000
21.631990356000,-0.027000000000
21.639677895000,-0.022000000000
21.647365434000,-0.012000000000
21.655052973000,-0.009000000000
21.662740512000,-0.007000000000
21.670428051000,0.000000000000
21.678115590000,0.007000000000
21.685803129000,0.009000000000
21.693490668000,0.014000000000
21.701178207000,0.019000000000
21.708865746000,0.034000000000
21.716553285000,0.051000000000
21.724240824000,0.056000000000
21.731928363000,0.064000000000
21.739615902000,0.081000000000
21.747303441000,0.091000000000
21.754990980000,0.089000000000
21.762678519000,0.089000000000
21.770366058000,0.098000000000
21.778053597000,0.103000000000
21.785741136000,0.094000000000
21.793428675000,0.081000000000
21.801116214000,0.071000000000
21.808803753000,0.051000000000
21.816491292000,0.017000000000
21.824178831000,-0.019000000000
21.831866370000,-0.047000000000
21.839553909000,-0.069000000000
21.847241448000,-0.096000000000
21.854928987000,-0.113000000000
21.862616526000,-0.118000000000
21.870304065000,-0.118000000000
21.877991604000,-0.113000000000
21.885679143000,-0.108000000000
21.893366682000,-0.116000000000
21.901054221000,-0.116000000000
21.908741760000,-0.106000000000
21.916429299000,-0.098000000000
21.924116838000,-0.098000000000
21.931804377000,-0.094000000000
21.939491916000,-0.089000000000
21.947179455000,-0.089000000000
21.954866994000,-0.089000000000
21.962554533000,-0.086000000000
21.970242072000,-0.076000000000
21.977929611000,-0.076000000000
21.985617150000,-0.086000000000
21.993304689000,-0.091000000000
22.000992228000,-0.086000000000
22.008679767000,-0.089000000000
22.016367306000,-0.096000000000
22.024054845000,-0.096000000000
22.031742384000,-0.086000000000
22.039429923000,-0.089000000000
22.047117462000,-0.094000000000
22.054805001000,-0.091000000000
22.062492540000,-0.086000000000
22.070180079000,-0.091000000000
22.077867618000,-0.094000000000
22.085555157000,-0.086000000000
22.093242696000,-0.081000000000
22.100930235000,-0.081000000000
22.108617774000,-0.079000000000
22.116305313000,-0.079000000000
22.123992852000,-0.079000000000
22.131680391000,-0.076000000000
22.139367930000,-0.081000000000
22.147055469000,-0.084000000000
22.154743080000,-0.076000000000
22.162430341000,-0.071000000000
22.170117602000,-0.074000000000
22.177804863000,-0.076000000000
22.185492124000,-0.076000000000
22.193179385000,-0.079000000000
22.200866646000,-0.079000000000
22.208553907000,-0.074000000000
22.216241168000,-0.059000000000
22.223928429000,-0.042000000000
22.231615690000,-0.034000000000
22.239302951000,-0.042000000000
22.246990212000,-0.051000000000
22.254677473000,-0.059000000000
22.262364734000,-0.066000000000
22.270051995000,-0.069000000000
22.277739256000,-0.069000000000
22.285426517000,-0.064000000000
22.293113778000,-0.059000000000
22.300801039000,-0.059000000000
22.308488300000,-0.071000000000
22.316175561000,-0.079000000000
22.323862822000,-0.049000000000
22.331550083000,0.143000000000
22.339237344000,0.517000000000
22.346924605000,0.665000000000
22.354611866000,0.262000000000
22.362299127000,-0.282000000000
22.369986388000,-0.423000000000
22.377673649000,-0.264000000000
22.385360910000,-0.190000000000
22.393048171000,-0.168000000000
22.400735432000,-0.086000000000
22.408422693000,-0.056000000000
22.416109954000,-0.074000000000
22.423797215000,-0.059000000000
22.431484476000,-0.039000000000
22.439171737000,-0.042000000000
22.446858998000,-0.047000000000
22.454546259000,-0.037000000000
22.462233520000,-0.024000000000
22.469920781000,-0.022000000000
22.477608042000,-0.022000000000
22.485295303000,-0.014000000000
22.492982564000,-0.007000000000
22.500669825000,-0.002000000000
22.508357086000,0.002000000000
22.516044347000,0.009000000000
22.523731608000,0.017000000000
22.531418869000,0.022000000000
22.539106130000,0.029000000000
22.546793391000,0.044000000000
22.554480652000,0.054000000000
22.562167913000,0.054000000000
22.569855174000,0.064000000000
22.577542435000,0.079000000000
22.585229696000,0.094000000000
22.592916957000,0.103000000000
22.600604218000,0.106000000000
22.608291479000,0.113000000000
22.615978740000,0.108000000000
22.623666001000,0.084000000000
22.631353262000,0.066000000000
22.639040523000,0.051000000000
22.646727784000,0.017000000000
22.654415045000,-0.019000000000
22.662102306000,-0.049000000000
22.669789567000,-0.079000000000
22.677476828000,-0.101000000000
22.685164089000,-0.108000000000
22.692851350000,-0.118000000000
22.700538611000,-0.133000000000
22.708225872000,-0.133000000000
22.715913151000,-0.123000000000
22.723600551000,-0.113000000000
22.731287951000,-0.108000000000
22.738975351000,-0.106000000000
22.746662751000,-0.101000000000
22.754350151000,-0.094000000000
22.762037551000,-0.086000000000
22.769724951000,-0.089000000000
22.777412351000,-0.089000000000
22.785099751000,-0.081000000000
22.792787151000,-0.084000000000
22.800474551000,-0.091000000000
22.808161951000,-0.086000000000
22.815849351000,-0.084000000000
22.823536751000,-0.084000000000
22.831224151000,-0.084000000000
22.838911551000,-0.089000000000
22.846598951000,-0.086000000000
22.854286351000,-0.086000000000
22.861973751000,-0.091000000000
22.869661151000,-0.094000000000
22.877348551000,-0.086000000000
22.885035951000,-0.084000000000
22.892723351000,-0.086000000000
22.900410751000,-0.091000000000
22.908098151000,-0.086000000000
22.915785551000,-0.084000000000
22.923472951000,-0.081000000000
22.931160351000,-0.081000000000
22.938847751000,-0.086000000000
22.946535151000,-0.089000000000
22.954222551000,-0.079000000000
22.961909951000,-0.071000000000
22.969597351000,-0.076000000000
22.977284751000,-0.081000000000
22.984972151000,-0.084000000000
22.992659551000,-0.086000000000
23.000346951000,-0.084000000000
23.008034351000,-0.071000000000
23.015721751000,-0.054000000000
23.023409151000,-0.047000000000
23.031096551000,-0.047000000000
23.038783951000,-0.047000000000
23.046471351000,-0.047000000000
23.054158751000,-0.059000000000
23.061846151000,-0.071000000000
23.069533551000,-0.066000000000
23.077220951000,-0.066000000000
23.084908351000,-0.076000000000
23.092595751000,-0.076000000000
23.100283151000,-0.061000000000
23.107970551000,-0.059000000000
23.115657951000,-0.076000000000
23.123345351000,-0.079000000000
23.131032751000,0.061000000000
23.138720151000,0.420000000000
23.146407551000,0.655000000000
23.154094951000,0.368000000000
23.161782351000,-0.185000000000
23.169469751000,-0.432000000000
23.177157151000,-0.314000000000
23.184844551000,-0.207000000000
23.192531951000,-0.175000000000
23.200219351000,-0.101000000000
23.207906751000,-0.061000000000
23.215594151000,-0.071000000000
23.223281551000,-0.059000000000
23.230968951000,-0.044000000000
23.238656351000,-0.047000000000
23.246343751000,-0.044000000000
23.254031151000,-0.032000000000
23.261718551000,-0.032000000000
23.269405951000,-0.037000000000
23.277093392000,-0.024000000000
23.284780513000,-0.009000000000
23.292467634000,-0.009000000000
23.300154755000,-0.012000000000
23.307841876000,0.002000000000
23.315528997000,0.014000000000
23.323216118000,0.009000000000
23.330903239000,0.014000000000
23.338590360000,0.032000000000
23.346277481000,0.047000000000
23.353964602000,0.054000000000
23.361651723000,0.066000000000
23.369338844000,0.084000000000
23.377025965000,0.089000000000
23.384713086000,0.089000000000
23.392400207000,0.098000000000
23.400087328000,0.106000000000
23.407774449000,0.103000000000
23.415461570000,0.096000000000
23.423148691000,0.089000000000
23.430835812000,0.076000000000
23.438522933000,0.051000000000
23.446210054000,0.009000000000
23.453897175000,-0.027000000000
23.461584296000,-0.054000000000
23.469271417000,-0.079000000000
23.476958538000,-0.106000000000
23.484645659000,-0.123000000000
23.492332780000,-0.128000000000
23.500019901000,-0.131000000000
23.507707022000,-0.128000000000
23.515394143000,-0.121000000000
23.523081264000,-0.121000000000
23.530768385000,-0.128000000000
23.538455506000,-0.121000000000
23.546142627000,-0.108000000000
23.553829748000,-0.101000000000
23.561516869000,-0.098000000000
23.569203990000,-0.094000000000
23.576891111000,-0.094000000000
23.584578232000,-0.091000000000
23.592265353000,-0.086000000000
23.599952474000,-0.084000000000
23.607639595000,-0.089000000000
23.615326716000,-0.091000000000
23.623013837000,-0.089000000000
23.630700958000,-0.089000000000
23.638388079000,-0.091000000000
23.646075200000,-0.096000000000
23.653762321000,-0.096000000000
23.661449442000,-0.096000000000
23.669136563000,-0.098000000000
23.676823684000,-0.096000000000
23.684510805000,-0.086000000000
23.692197926000,-0.084000000000
23.699885047000,-0.094000000000
23.707572168000,-0.101000000000
23.715259289000,-0.094000000000
23.722946410000,-0.086000000000
23.730633531000,-0.086000000000
23.738320652000,-0.086000000000
23.746007773000,-0.084000000000
23.753694894000,-0.084000000000
23.761382015000,-0.086000000000
23.769069136000,-0.081000000000
23.776756257000,-0.076000000000
23.784443378000,-0.086000000000
23.792130499000,-0.094000000000
23.799817620000,-0.089000000000
23.807504741000,-0.084000000000
23.815191862000,-0.081000000000
23.822878983000,-0.069000000000
23.830566104000,-0.049000000000
23.838253289000,-0.039000000000
23.845940759000,-0.044000000000
23.853628229000,-0.042000000000
23.861315699000,-0.049000000000
23.869003169000,-0.076000000000
23.876690639000,-0.084000000000
23.884378109000,-0.069000000000
23.892065579000,-0.071000000000
23.899753049000,-0.074000000000
23.907440519000,-0.066000000000
23.915127989000,-0.066000000000
23.922815459000,-0.074000000000
23.930502929000,-0.076000000000
23.938190399000,-0.029000000000
23.945877869000,0.202000000000
23.953565339000,0.564000000000
23.961252809000,0.586000000000
23.968940279000,0.098000000000
23.976627749000,-0.363000000000
23.984315219000,-0.393000000000
23.992002689000,-0.249000000000
23.999690159000,-0.207000000000
24.007377629000,-0.153000000000
24.015065099000,-0.069000000000
24.022752569000,-0.066000000000
24.030440039000,-0.079000000000
24.038127509000,-0.056000000000
24.045814979000,-0.049000000000
24.053502449000,-0.056000000000
24.061189919000,-0.039000000000
24.068877389000,-0.029000000000
24.076564859000,-0.034000000000
24.084252329000,-0.029000000000
24.091939799000,-0.019000000000
24.099627269000,-0.017000000000
24.107314739000,-0.009000000000
24.115002209000,-0.002000000000
24.122689679000,-0.002000000000
24.130377149000,0.002000000000
24.138064619000,0.012000000000
24.145752089000,0.022000000000
24.153439559000,0.027000000000
24.161127029000,0.039000000000
24.168814499000,0.056000000000
24.176501969000,0.069000000000
24.184189439000,0.076000000000
24.191876909000,0.086000000000
24.199564379000,0.091000000000
24.207251849000,0.094000000000
24.214939319000,0.096000000000
24.222626789000,0.096000000000
24.230314259000,0.091000000000
24.238001729000,0.076000000000
24.245689199000,0.056000000000
24.253376669000,0.027000000000
24.261064139000,-0.007000000000
24.268751609000,-0.039000000000
24.276439079000,-0.064000000000
24.284126549000,-0.089000000000
24.291814019000,-0.111000000000
24.299501489000,-0.128000000000
24.307188959000,-0.133000000000
24.314876429000,-0.128000000000
24.322563899000,-0.126000000000
24.330251369000,-0.123000000000
24.337938839000,-0.116000000000
24.345626309000,-0.116000000000
24.353313779000,-0.118000000000
24.361001249000,-0.108000000000
24.368688719000,-0.098000000000
24.376376189000,-0.096000000000
24.384063659000,-0.096000000000
24.391751129000,-0.091000000000
24.399438621000,-0.084000000000
24.407125812000,-0.081000000000
24.414813003000,-0.081000000000
24.422500194000,-0.086000000000
24.430187385000,-0.091000000000
24.437874576000,-0.094000000000
24.445561767000,-0.089000000000
24.453248958000,-0.091000000000
24.460936149000,-0.094000000000
24.468623340000,-0.091000000000
24.476310531000,-0.094000000000
24.483997722000,-0.098000000000
24.491684913000,-0.096000000000
24.499372104000,-0.094000000000
24.507059295000,-0.098000000000
24.514746486000,-0.098000000000
24.522433677000,-0.089000000000
24.530120868000,-0.086000000000
24.537808059000,-0.094000000000
24.545495250000,-0.096000000000
24.553182441000,-0.091000000000
24.560869632000,-0.086000000000
24.568556823000,-0.086000000000
24.576244014000,-0.089000000000
24.583931205000,-0.086000000000
24.591618396000,-0.084000000000
24.599305587000,-0.086000000000
24.606992778000,-0.091000000000
24.614679969000,-0.094000000000
24.622367160000,-0.084000000000
24.630054351000,-0.064000000000
24.637741542000,-0.056000000000
24.645428733000,-0.064000000000
24.653115924000,-0.059000000000
24.660803115000,-0.047000000000
24.668490306000,-0.054000000000
24.676177497000,-0.066000000000
24.683864688000,-0.069000000000
24.691551879000,-0.079000000000
24.699239070000,-0.084000000000
24.706926261000,-0.076000000000
24.714613452000,-0.074000000000
24.722300643000,-0.079000000000
24.729987834000,-0.084000000000
24.737675025000,-0.071000000000
24.745362216000,0.029000000000
24.753049407000,0.343000000000
24.760736598000,0.640000000000
24.768423789000,0.435000000000
24.776110980000,-0.148000000000
24.783798171000,-0.457000000000
24.791485362000,-0.348000000000
24.799172553000,-0.232000000000
24.806859744000,-0.217000000000
24.814546935000,-0.133000000000
24.822234126000,-0.056000000000
24.829921317000,-0.069000000000
24.837608508000,-0.079000000000
24.845295699000,-0.049000000000
24.852982890000,-0.034000000000
24.860670081000,-0.042000000000
24.868357272000,-0.037000000000
24.876044463000,-0.032000000000
24.883731654000,-0.024000000000
24.891418845000,-0.014000000000
24.899106036000,-0.014000000000
24.906793227000,-0.014000000000
24.914480418000,-0.002000000000
24.922167609000,0.007000000000
24.929854800000,0.007000000000
24.937541991000,0.009000000000
24.945229182000,0.024000000000
24.952916373000,0.039000000000
24.960603601000,0.049000000000
24.968290792000,0.059000000000
24.975977983000,0.069000000000
24.983665174000,0.081000000000
24.991352365000,0.106000000000
24.999039556000,0.116000000000
25.006726747000,0.111000000000
25.014413938000,0.111000000000
25.022101129000,0.118000000000
25.029788320000,0.113000000000
25.037475511000,0.101000000000
25.045162702000,0.084000000000
25.052849893000,0.061000000000
25.060537084000,0.027000000000
25.068224275000,-0.014000000000
25.075911466000,-0.059000000000
25.083598657000,-0.084000000000
25.091285848000,-0.106000000000
25.098973039000,-0.131000000000
25.106660230000,-0.143000000000
25.114347421000,-0.141000000000
25.122034612000,-0.133000000000
25.129721803000,-0.128000000000
25.137408994000,-0.131000000000
25.145096185000,-0.133000000000
25.152783376000,-0.131000000000
25.160470567000,-0.121000000000
25.168157758000,-0.113000000000
25.175844949000,-0.113000000000
25.183532140000,-0.111000000000
25.191219331000,-0.101000000000
25.198906522000,-0.091000000000
25.206593713000,-0.089000000000
25.214280904000,-0.091000000000
25.221968095000,-0.096000000000
25.229655286000,-0.091000000000
25.237342477000,-0.089000000000
25.245029668000,-0.098000000000
25.252716859000,-0.101000000000
25.260404050000,-0.101000000000
25.268091241000,-0.103000000000
25.275778432000,-0.101000000000
25.283465623000,-0.098000000000
25.291152814000,-0.096000000000
25.298840005000,-0.096000000000
25.306527196000,-0.094000000000
25.314214387000,-0.091000000000
25.321901578000,-0.096000000000
25.329588769000,-0.096000000000
25.337275960000,-0.089000000000
25.344963151000,-0.094000000000
25.352650342000,-0.101000000000
25.360337533000,-0.096000000000
25.368024724000,-0.089000000000
25.375711915000,-0.084000000000
25.383399106000,-0.071000000000
25.391086297000,-0.059000000000
25.398773488000,-0.056000000000
25.406460679000,-0.056000000000
25.414147870000,-0.059000000000
25.421835061000,-0.061000000000
25.429522252000,-0.071000000000
25.437209443000,-0.074000000000
25.444896634000,-0.071000000000
25.452583825000,-0.074000000000
25.460271016000,-0.074000000000
25.467958207000,-0.069000000000
25.475645398000,-0.066000000000
25.483332589000,-0.076000000000
25.491019780000,-0.079000000000
25.498706971000,0.034000000000
25.506394162000,0.383000000000
25.514081353000,0.677000000000
25.521768589000,0.415000000000
25.529456059000,-0.202000000000
25.537143529000,-0.472000000000
25.544830999000,-0.336000000000
25.552518469000,-0.242000000000
25.560205939000,-0.230000000000
25.567893409000,-0.123000000000
25.575580879000,-0.042000000000
25.583268349000,-0.059000000000
25.590955819000,-0.061000000000
25.598643289000,-0.039000000000
25.606330759000,-0.039000000000
25.614018229000,-0.034000000000
25.621705699000,-0.022000000000
25.629393169000,-0.017000000000
25.637080639000,-0.012000000000
25.644768109000,-0.004000000000
25.652455579000,-0.004000000000
25.660143049000,-0.004000000000
25.667830519000,0.002000000000
25.675517989000,0.007000000000
25.683205459000,0.014000000000
25.690892929000,0.027000000000
25.698580399000,0.037000000000
25.706267869000,0.039000000000
25.713955339000,0.054000000000
25.721642809000,0.076000000000
25.729330279000,0.086000000000
25.737017749000,0.091000000000
25.744705219000,0.106000000000
25.752392689000,0.121000000000
25.760080159000,0.126000000000
25.767767629000,0.128000000000
25.775455099000,0.136000000000
25.783142569000,0.133000000000
25.790830039000,0.113000000000
25.798517509000,0.091000000000
25.806204979000,0.069000000000
25.813892449000,0.032000000000
25.821579919000,-0.017000000000
25.829267389000,-0.047000000000
25.836954859000,-0.074000000000
25.844642329000,-0.108000000000
25.852329799000,-0.123000000000
25.860017269000,-0.126000000000
25.867704739000,-0.136000000000
25.875392209000,-0.138000000000
25.883079679000,-0.128000000000
25.890767149000,-0.123000000000
25.898454619000,-0.121000000000
25.906142089000,-0.113000000000
25.913829559000,-0.106000000000
25.921517029000,-0.098000000000
25.929204499000,-0.091000000000
25.936891969000,-0.089000000000
25.944579439000,-0.086000000000
25.952266909000,-0.081000000000
25.959954379000,-0.079000000000
25.967641849000,-0.079000000000
25.975329319000,-0.081000000000
25.983016789000,-0.081000000000
25.990704259000,-0.079000000000
25.998391729000,-0.081000000000
26.006079199000,-0.086000000000
26.013766669000,-0.084000000000
26.021454139000,-0.081000000000
26.029141609000,-0.086000000000
26.036829079000,-0.089000000000
26.044516549000,-0.086000000000
26.052204019000,-0.084000000000
26.059891489000,-0.081000000000
26.067578959000,-0.084000000000
26.075266429000,-0.084000000000
26.082953917000,-0.076000000000
26.090641038000,-0.071000000000
26.098328159000,-0.081000000000
26.106015280000,-0.084000000000
26.113702401000,-0.071000000000
26.121389522000,-0.066000000000
26.129076643000,-0.076000000000
26.136763764000,-0.076000000000
26.144450885000,-0.066000000000
26.152138006000,-0.066000000000
26.159825127000,-0.071000000000
26.167512248000,-0.071000000000
26.175199369000,-0.076000000000
26.182886490000,-0.076000000000
26.190573611000,-0.066000000000
26.198260732000,-0.051000000000
26.205947853000,-0.042000000000
26.213634974000,-0.042000000000
26.221322095000,-0.037000000000
26.229009216000,-0.032000000000
26.236696337000,-0.042000000000
26.244383458000,-0.056000000000
26.252070579000,-0.059000000000
26.259757700000,-0.061000000000
26.267444821000,-0.066000000000
26.275131942000,-0.054000000000
26.282819063000,-0.044000000000
26.290506184000,-0.054000000000
26.298193305000,-0.069000000000
26.305880426000,-0.079000000000
26.313567547000,-0.012000000000
26.321254668000,0.269000000000
26.328941789000,0.643000000000
26.336628910000,0.633000000000
26.344316031000,0.116000000000
26.352003152000,-0.346000000000
26.359690273000,-0.366000000000
26.367377394000,-0.215000000000
26.375064515000,-0.178000000000
26.382751636000,-0.131000000000
26.390438757000,-0.056000000000
26.398125878000,-0.059000000000
26.405812999000,-0.071000000000
26.413500120000,-0.042000000000
26.421187241000,-0.029000000000
26.428874362000,-0.039000000000
26.436561483000,-0.029000000000
26.444248604000,-0.017000000000
26.451935725000,-0.017000000000
26.459622846000,-0.014000000000
26.467309967000,-0.004000000000
26.474997088000,0.000000000000
26.482684209000,-0.004000000000
26.490371330000,-0.002000000000
26.498058451000,0.012000000000
26.505745572000,0.017000000000
26.513432693000,0.014000000000
26.521119814000,0.027000000000
26.528806935000,0.044000000000
26.536494056000,0.054000000000
26.544181177000,0.066000000000
26.551868298000,0.084000000000
26.559555419000,0.094000000000
26.567242540000,0.101000000000
26.574929661000,0.111000000000
26.582616782000,0.116000000000
26.590303903000,0.121000000000
26.597991024000,0.123000000000
26.605678145000,0.111000000000
26.613365266000,0.094000000000
26.621052387000,0.076000000000
26.628739508000,0.054000000000
26.636426629000,0.022000000000
26.644113814000,-0.017000000000
26.651801214000,-0.049000000000
26.659488614000,-0.074000000000
26.667176014000,-0.091000000000
26.674863414000,-0.108000000000
26.682550814000,-0.116000000000
26.690238214000,-0.113000000000
26.697925614000,-0.111000000000
26.705613014000,-0.108000000000
26.713300414000,-0.103000000000
26.720987814000,-0.101000000000
26.728675214000,-0.103000000000
26.736362614000,-0.098000000000
26.744050014000,-0.086000000000
26.751737414000,-0.084000000000
26.759424814000,-0.079000000000
26.767112214000,-0.076000000000
26.774799614000,-0.079000000000
26.782487014000,-0.076000000000
26.790174414000,-0.071000000000
26.797861814000,-0.074000000000
26.805549214000,-0.076000000000
26.813236614000,-0.071000000000
26.820924014000,-0.074000000000
26.828611414000,-0.081000000000
26.836298814000,-0.084000000000
26.843986214000,-0.079000000000
26.851673614000,-0.081000000000
26.859361014000,-0.084000000000
26.867048414000,-0.081000000000
26.874735814000,-0.081000000000
26.882423214000,-0.086000000000
26.890110614000,-0.081000000000
26.897798014000,-0.074000000000
26.905485414000,-0.076000000000
26.913172814000,-0.079000000000
26.920860214000,-0.076000000000
26.928547614000,-0.069000000000
26.936235014000,-0.064000000000
26.943922414000,-0.071000000000
26.951609814000,-0.074000000000
26.959297214000,-0.064000000000
26.966984614000,-0.061000000000
26.974672014000,-0.069000000000
26.982359414000,-0.061000000000
26.990046814000,-0.059000000000
26.997734214000,-0.064000000000
27.005421614000,-0.069000000000
27.013109014000,-0.066000000000
27.020796414000,-0.064000000000
27.028483814000,-0.059000000000
27.036171214000,-0.042000000000
27.043858614000,-0.032000000000
27.051546014000,-0.037000000000
27.059233414000,-0.034000000000
27.066920814000,-0.029000000000
27.074608214000,-0.044000000000
27.082295614000,-0.061000000000
27.089983014000,-0.056000000000
27.097670414000,-0.051000000000
27.105357814000,-0.056000000000
27.113045214000,-0.056000000000
27.120732614000,-0.054000000000
27.128420014000,-0.059000000000
27.136107414000,-0.064000000000
27.143794814000,-0.066000000000
27.151482214000,0.004000000000
27.159169614000,0.299000000000
27.166857014000,0.653000000000
27.174544414000,0.583000000000
27.182231814000,0.051000000000
27.189919214000,-0.366000000000
27.197606614000,-0.348000000000
27.205294059000,-0.212000000000
27.212981320000,-0.178000000000
27.220668581000,-0.118000000000
27.228355842000,-0.051000000000
27.236043103000,-0.061000000000
27.243730364000,-0.066000000000
27.251417625000,-0.044000000000
27.259104886000,-0.037000000000
27.266792147000,-0.032000000000
27.274479408000,-0.014000000000
27.282166669000,-0.009000000000
27.289853930000,-0.019000000000
27.297541191000,-0.024000000000
27.305228452000,-0.017000000000
27.312915713000,-0.002000000000
27.320602974000,0.000000000000
27.328290235000,0.002000000000
27.335977496000,0.007000000000
27.343664757000,0.012000000000
27.351352018000,0.027000000000
27.359039279000,0.039000000000
27.366726540000,0.039000000000
27.374413801000,0.047000000000
27.382101062000,0.069000000000
27.389788323000,0.084000000000
27.397475584000,0.094000000000
27.405162845000,0.108000000000
27.412850106000,0.113000000000
27.420537367000,0.113000000000
27.428224628000,0.121000000000
27.435911889000,0.121000000000
27.443599150000,0.113000000000
27.451286411000,0.101000000000
27.458973672000,0.081000000000
27.466660933000,0.051000000000
27.474348194000,0.019000000000
27.482035455000,-0.014000000000
27.489722716000,-0.049000000000
27.497409977000,-0.079000000000
27.505097238000,-0.096000000000
27.512784499000,-0.106000000000
27.520471760000,-0.113000000000
27.528159021000,-0.116000000000
27.535846282000,-0.116000000000
27.543533543000,-0.116000000000
27.551220804000,-0.111000000000
27.558908065000,-0.101000000000
27.566595326000,-0.096000000000
27.574282587000,-0.098000000000
27.581969848000,-0.096000000000
27.589657109000,-0.089000000000
27.597344370000,-0.084000000000
27.605031631000,-0.081000000000
27.612718892000,-0.079000000000
27.620406153000,-0.079000000000
27.628093414000,-0.076000000000
27.635780675000,-0.076000000000
27.643467936000,-0.079000000000
27.651155197000,-0.076000000000
27.658842458000,-0.076000000000
27.666529719000,-0.079000000000
27.674216980000,-0.084000000000
27.681904241000,-0.086000000000
27.689591502000,-0.091000000000
27.697278763000,-0.091000000000
27.704966024000,-0.086000000000
27.712653285000,-0.086000000000
27.720340546000,-0.089000000000
27.728027807000,-0.081000000000
27.735715068000,-0.074000000000
27.743402329000,-0.074000000000
27.751089590000,-0.081000000000
27.758776851000,-0.084000000000
27.766464126000,-0.081000000000
27.774151247000,-0.076000000000
27.781838368000,-0.071000000000
27.789525489000,-0.069000000000
27.797212610000,-0.066000000000
27.804899731000,-0.066000000000
27.812586852000,-0.066000000000
27.820273973000,-0.064000000000
27.827961094000,-0.064000000000
27.835648215000,-0.071000000000
27.843335336000,-0.071000000000
27.851022457000,-0.066000000000
27.858709578000,-0.066000000000
27.866396699000,-0.066000000000
27.874083820000,-0.061000000000
27.881770941000,-0.059000000000
27.889458062000,-0.064000000000
27.897145183000,-0.064000000000
27.904832304000,-0.066000000000
27.912519425000,-0.071000000000
27.920206546000,-0.071000000000
27.927893667000,-0.069000000000
27.935580788000,-0.051000000000
27.943267909000,-0.034000000000
27.950955030000,-0.037000000000
27.958642151000,-0.037000000000
27.966329272000,-0.032000000000
27.974016393000,-0.047000000000
27.981703514000,-0.064000000000
27.989390635000,-0.061000000000
27.997077756000,-0.061000000000
28.004764877000,-0.064000000000
28.012451998000,-0.061000000000
28.020139119000,-0.056000000000
28.027826240000,-0.054000000000
28.035513361000,-0.071000000000
28.043200482000,-0.076000000000
28.050887603000,0.071000000000
28.058574724000,0.447000000000
28.066261845000,0.705000000000
28.073948966000,0.423000000000
28.081636087000,-0.158000000000
28.089323208000,-0.423000000000
28.097010329000,-0.306000000000
28.104697450000,-0.212000000000
28.112384571000,-0.202000000000
28.120071692000,-0.121000000000
28.127758813000,-0.054000000000
28.135445934000,-0.064000000000
28.143133055000,-0.061000000000
28.150820176000,-0.042000000000
28.158507297000,-0.042000000000
28.166194418000,-0.037000000000
28.173881539000,-0.029000000000
28.181568660000,-0.029000000000
28.189255781000,-0.029000000000
28.196942902000,-0.019000000000
28.204630023000,-0.014000000000
28.212317144000,-0.009000000000
28.220004265000,0.000000000000
28.227691386000,0.007000000000
28.235378507000,0.009000000000
28.243065628000,0.017000000000
28.250752749000,0.027000000000
28.258439870000,0.034000000000
28.266126991000,0.044000000000
28.273814112000,0.056000000000
28.281501233000,0.069000000000
28.289188354000,0.079000000000
28.296875475000,0.091000000000
28.304562596000,0.103000000000
28.312249717000,0.116000000000
28.319936838000,0.123000000000
28.327624023000,0.128000000000
28.335311562000,0.121000000000
28.342999101000,0.106000000000
28.350686640000,0.091000000000
28.358374179000,0.071000000000
28.366061718000,0.039000000000
28.373749257000,0.009000000000
28.381436796000,-0.024000000000
28.389124335000,-0.064000000000
28.396811874000,-0.096000000000
28.404499413000,-0.118000000000
28.412186952000,-0.136000000000
28.419874491000,-0.138000000000
28.427562030000,-0.131000000000
28.435249569000,-0.136000000000
28.442937108000,-0.138000000000
28.450624647000,-0.128000000000
28.458312186000,-0.118000000000
28.465999725000,-0.113000000000
28.473687264000,-0.106000000000
28.481374803000,-0.106000000000
28.489062342000,-0.106000000000
28.496749881000,-0.101000000000
28.504437420000,-0.096000000000
28.512124959000,-0.091000000000
28.519812498000,-0.086000000000
28.527500037000,-0.089000000000
28.535187576000,-0.089000000000
28.542875115000,-0.091000000000
28.550562654000,-0.098000000000
28.558250193000,-0.096000000000
28.565937732000,-0.094000000000
28.573625271000,-0.101000000000
28.581312810000,-0.101000000000
28.589000349000,-0.094000000000
28.596687888000,-0.096000000000
28.604375427000,-0.106000000000
28.612062966000,-0.101000000000
28.619750505000,-0.086000000000
28.627438044000,-0.089000000000
28.635125583000,-0.094000000000
28.642813122000,-0.089000000000
28.650500661000,-0.089000000000
28.658188200000,-0.094000000000
28.665875739000,-0.089000000000
28.673563278000,-0.084000000000
28.681250817000,-0.086000000000
28.688938356000,-0.084000000000
28.696625895000,-0.079000000000
28.704313434000,-0.074000000000
28.712000973000,-0.074000000000
28.719688512000,-0.079000000000
28.727376051000,-0.081000000000
28.735063590000,-0.081000000000
28.742751129000,-0.081000000000
28.750438668000,-0.069000000000
28.758126207000,-0.049000000000
28.765813746000,-0.037000000000
28.773501285000,-0.034000000000
28.781188824000,-0.032000000000
28.788876363000,-0.039000000000
28.796563902000,-0.056000000000
28.804251441000,-0.069000000000
28.811938980000,-0.059000000000
28.819626519000,-0.059000000000
28.827314058000,-0.069000000000
28.835001597000,-0.064000000000
28.842689136000,-0.059000000000
28.850376675000,-0.064000000000
28.858064214000,-0.071000000000
28.865751753000,-0.039000000000
28.873439292000,0.170000000000
28.881126831000,0.569000000000
28.888814442000,0.685000000000
28.896501563000,0.212000000000
28.904188684000,-0.341000000000
28.911875805000,-0.432000000000
28.919562926000,-0.279000000000
28.927250047000,-0.227000000000
28.934937168000,-0.180000000000
28.942624289000,-0.076000000000
28.950311410000,-0.054000000000
28.957998531000,-0.071000000000
28.965685652000,-0.044000000000
28.973372773000,-0.027000000000
28.981059894000,-0.037000000000
28.988747015000,-0.032000000000
28.996434136000,-0.019000000000
29.004121257000,-0.017000000000
29.011808378000,-0.012000000000
29.019495499000,-0.007000000000
29.027182620000,-0.007000000000
29.034869741000,-0.004000000000
29.042556862000,0.002000000000
29.050243983000,0.012000000000
29.057931104000,0.017000000000
29.065618225000,0.022000000000
29.073305346000,0.032000000000
29.080992467000,0.044000000000
29.088679588000,0.054000000000
29.096366709000,0.069000000000
29.104053830000,0.086000000000
29.111740951000,0.098000000000
29.119428072000,0.106000000000
29.127115193000,0.121000000000
29.134802314000,0.133000000000
29.142489435000,0.133000000000
29.150176556000,0.128000000000
29.157863677000,0.123000000000
29.165550798000,0.113000000000
29.173237919000,0.096000000000
29.180925040000,0.071000000000
29.188612161000,0.034000000000
29.196299282000,-0.004000000000
29.203986403000,-0.047000000000
29.211673524000,-0.081000000000
29.219360645000,-0.103000000000
29.227047766000,-0.123000000000
29.234734887000,-0.136000000000
29.242422008000,-0.136000000000
29.250109129000,-0.131000000000
29.257796250000,-0.131000000000
29.265483371000,-0.128000000000
29.273170492000,-0.121000000000
29.280857613000,-0.113000000000
29.288544734000,-0.111000000000
29.296231855000,-0.103000000000
29.303918976000,-0.094000000000
29.311606097000,-0.091000000000
29.319293218000,-0.091000000000
29.326980339000,-0.084000000000
