time,LSB
0.000000000000,-0.551000000000
0.007687818000,-0.411000000000
0.015375636000,-0.081000000000
0.023063454000,-0.228000000000
0.030751272000,-0.265000000000
0.038439090000,-0.150000000000
0.046126908000,-0.167000000000
0.053814726000,-0.187000000000
0.061502544000,-0.135000000000
0.069190362000,-0.120000000000
0.076878180000,-0.120000000000
0.084565998000,-0.083000000000
0.092253816000,-0.054000000000
0.099941634000,-0.049000000000
0.107629452000,-0.029000000000
0.115317270000,0.002000000000
0.123005088000,0.012000000000
0.130692906000,0.029000000000
0.138380724000,0.071000000000
0.146068542000,0.108000000000
0.153756360000,0.125000000000
0.161444178000,0.155000000000
0.169131996000,0.199000000000
0.176819814000,0.233000000000
0.184507632000,0.243000000000
0.192195450000,0.236000000000
0.199883268000,0.233000000000
0.207571086000,0.226000000000
0.215258904000,0.199000000000
0.222946722000,0.152000000000
0.230634540000,0.086000000000
0.238322358000,-0.002000000000
0.246010176000,-0.086000000000
0.253697994000,-0.147000000000
0.261385812000,-0.201000000000
0.269073630000,-0.241000000000
0.276761448000,-0.248000000000
0.284449266000,-0.241000000000
0.292137084000,-0.243000000000
0.299824902000,-0.243000000000
0.307512720000,-0.231000000000
0.315200538000,-0.216000000000
0.322888356000,-0.204000000000
0.330576174000,-0.189000000000
0.338263992000,-0.174000000000
0.345951810000,-0.169000000000
0.353639628000,-0.167000000000
0.361327446000,-0.157000000000
0.369015264000,-0.147000000000
0.376703082000,-0.142000000000
0.384390900000,-0.145000000000
0.392078718000,-0.142000000000
0.399766536000,-0.130000000000
0.407454354000,-0.123000000000
0.415142172000,-0.125000000000
0.422829990000,-0.128000000000
0.430517808000,-0.130000000000
0.438205626000,-0.135000000000
0.445893444000,-0.123000000000
0.453581262000,-0.113000000000
0.461269080000,-0.123000000000
0.468956898000,-0.130000000000
0.476644716000,-0.110000000000
0.484332534000,-0.103000000000
0.492020352000,-0.120000000000
0.499708170000,-0.118000000000
0.507395988000,-0.100000000000
0.515083806000,-0.100000000000
0.522771673000,-0.103000000000
0.530459700000,-0.108000000000
0.538147727000,-0.115000000000
0.545835754000,-0.113000000000
0.553523781000,-0.098000000000
0.561211808000,-0.093000000000
0.568899835000,-0.093000000000
0.576587862000,-0.078000000000
0.584275889000,-0.056000000000
0.591963916000,-0.056000000000
0.599651943000,-0.083000000000
0.607339970000,-0.103000000000
0.615027997000,-0.098000000000
0.622716024000,-0.093000000000
0.630404051000,-0.091000000000
0.638092078000,-0.086000000000
0.645780105000,-0.083000000000
0.653468132000,-0.086000000000
0.661156159000,-0.086000000000
0.668844186000,-0.110000000000
0.676532213000,-0.187000000000
0.684220240000,-0.258000000000
0.691908267000,-0.036000000000
0.699596294000,0.681000000000
0.707284321000,1.570000000000
0.714972348000,1.905000000000
0.722660375000,1.038000000000
0.730348402000,-0.322000000000
0.738036429000,-0.578000000000
0.745724456000,-0.128000000000
0.753412483000,-0.147000000000
0.761100510000,-0.280000000000
0.768788537000,-0.174000000000
0.776476564000,-0.145000000000
0.784164591000,-0.182000000000
0.791852618000,-0.140000000000
0.799540645000,-0.108000000000
0.807228672000,-0.108000000000
0.814916699000,-0.086000000000
0.822604726000,-0.064000000000
0.830292753000,-0.054000000000
0.837980780000,-0.029000000000
0.845668807000,0.000000000000
0.853356834000,0.022000000000
0.861044861000,0.039000000000
0.868732888000,0.061000000000
0.876420915000,0.093000000000
0.884108942000,0.130000000000
0.891796969000,0.162000000000
0.899484996000,0.192000000000
0.907173023000,0.219000000000
0.914861050000,0.238000000000
0.922549077000,0.243000000000
0.930237104000,0.238000000000
0.937925131000,0.226000000000
0.945613158000,0.204000000000
0.953301185000,0.169000000000
0.960989212000,0.113000000000
0.968677239000,0.029000000000
0.976365266000,-0.068000000000
0.984053293000,-0.147000000000
0.991741320000,-0.194000000000
0.999429347000,-0.228000000000
1.007117374000,-0.256000000000
1.014805401000,-0.263000000000
1.022493428000,-0.256000000000
1.030181455000,-0.241000000000
1.037869482000,-0.233000000000
1.045557509000,-0.226000000000
1.053245536000,-0.216000000000
1.060933563000,-0.204000000000
1.068621590000,-0.192000000000
1.076309617000,-0.184000000000
1.083997693000,-0.174000000000
1.091685720000,-0.164000000000
1.099373747000,-0.157000000000
1.107061774000,-0.152000000000
1.114749801000,-0.147000000000
1.122437828000,-0.142000000000
1.130125855000,-0.137000000000
1.137813882000,-0.132000000000
1.145501909000,-0.135000000000
1.153189936000,-0.135000000000
1.160877963000,-0.132000000000
1.168565990000,-0.128000000000
1.176254017000,-0.128000000000
1.183942044000,-0.128000000000
1.191630071000,-0.128000000000
1.199318098000,-0.125000000000
1.207006125000,-0.125000000000
1.214694152000,-0.125000000000
1.222382179000,-0.123000000000
1.230070206000,-0.115000000000
1.237758233000,-0.110000000000
1.245446260000,-0.110000000000
1.253134287000,-0.115000000000
1.260822314000,-0.120000000000
1.268510341000,-0.125000000000
1.276198368000,-0.125000000000
1.283886395000,-0.113000000000
1.291574422000,-0.096000000000
1.299262449000,-0.091000000000
1.306950476000,-0.088000000000
1.314638503000,-0.073000000000
1.322326530000,-0.064000000000
1.330014557000,-0.088000000000
1.337702584000,-0.113000000000
1.345390611000,-0.110000000000
1.353078638000,-0.100000000000
1.360766665000,-0.098000000000
1.368454692000,-0.093000000000
1.376142719000,-0.091000000000
1.383830746000,-0.091000000000
1.391518773000,-0.100000000000
1.399206800000,-0.132000000000
1.406894827000,-0.216000000000
1.414582854000,-0.256000000000
1.422270881000,0.056000000000
1.429958908000,0.841000000000
1.437646935000,1.688000000000
1.445334962000,1.841000000000
1.453022989000,0.785000000000
1.460711016000,-0.462000000000
1.468399043000,-0.507000000000
1.476087070000,-0.093000000000
1.483775097000,-0.192000000000
1.491463124000,-0.290000000000
1.499151151000,-0.172000000000
1.506839178000,-0.162000000000
1.514527205000,-0.192000000000
1.522215232000,-0.145000000000
1.529903259000,-0.118000000000
1.537591286000,-0.120000000000
1.545279313000,-0.098000000000
1.552967340000,-0.071000000000
1.560655367000,-0.056000000000
1.568343394000,-0.039000000000
1.576031421000,-0.017000000000
1.583719448000,0.004000000000
1.591407475000,0.029000000000
1.599095502000,0.059000000000
1.606783529000,0.086000000000
1.614471556000,0.115000000000
1.622159583000,0.147000000000
1.629847610000,0.182000000000
1.637535637000,0.206000000000
1.645223713000,0.224000000000
1.652911670000,0.228000000000
1.660599627000,0.224000000000
1.668287584000,0.211000000000
1.675975541000,0.189000000000
1.683663498000,0.152000000000
1.691351455000,0.088000000000
1.699039412000,0.000000000000
1.706727369000,-0.086000000000
1.714415326000,-0.157000000000
1.722103283000,-0.209000000000
1.729791240000,-0.241000000000
1.737479197000,-0.256000000000
1.745167154000,-0.260000000000
1.752855111000,-0.258000000000
1.760543068000,-0.246000000000
1.768231025000,-0.231000000000
1.775918982000,-0.224000000000
1.783606939000,-0.214000000000
1.791294896000,-0.201000000000
1.798982853000,-0.189000000000
1.806670810000,-0.182000000000
1.814358767000,-0.174000000000
1.822046724000,-0.164000000000
1.829734681000,-0.157000000000
1.837422638000,-0.155000000000
1.845110595000,-0.150000000000
1.852798552000,-0.147000000000
1.860486509000,-0.145000000000
1.868174466000,-0.140000000000
1.875862423000,-0.137000000000
1.883550380000,-0.137000000000
1.891238337000,-0.135000000000
1.898926294000,-0.132000000000
1.906614251000,-0.132000000000
1.914302208000,-0.130000000000
1.921990165000,-0.128000000000
1.929678122000,-0.128000000000
1.937366079000,-0.128000000000
1.945054036000,-0.125000000000
1.952741993000,-0.120000000000
1.960429950000,-0.118000000000
1.968117907000,-0.115000000000
1.975805864000,-0.113000000000
1.983493821000,-0.110000000000
1.991181778000,-0.108000000000
1.998869735000,-0.108000000000
2.006557692000,-0.118000000000
2.014245649000,-0.123000000000
2.021933606000,-0.118000000000
2.029621563000,-0.105000000000
2.037309520000,-0.091000000000
2.044997477000,-0.086000000000
2.052685434000,-0.078000000000
2.060373391000,-0.064000000000
2.068061348000,-0.064000000000
2.075749305000,-0.093000000000
2.083437262000,-0.113000000000
2.091125219000,-0.103000000000
2.098813176000,-0.098000000000
2.106501133000,-0.096000000000
2.114189090000,-0.088000000000
2.121877047000,-0.086000000000
2.129565004000,-0.086000000000
2.137252961000,-0.098000000000
2.144940918000,-0.145000000000
2.152628875000,-0.231000000000
2.160316832000,-0.211000000000
2.168004789000,0.206000000000
2.175692746000,1.033000000000
2.183380703000,1.792000000000
2.191068660000,1.708000000000
2.198756617000,0.484000000000
2.206444646000,-0.571000000000
2.214132603000,-0.403000000000
2.221820560000,-0.076000000000
2.229508517000,-0.236000000000
2.237196474000,-0.273000000000
2.244884431000,-0.157000000000
2.252572388000,-0.174000000000
2.260260345000,-0.189000000000
2.267948302000,-0.135000000000
2.275636259000,-0.118000000000
2.283324216000,-0.118000000000
2.291012173000,-0.091000000000
2.298700130000,-0.068000000000
2.306388087000,-0.059000000000
2.314076044000,-0.034000000000
2.321764001000,-0.009000000000
2.329451958000,0.004000000000
2.337139915000,0.032000000000
2.344827872000,0.064000000000
2.352515829000,0.091000000000
2.360203786000,0.123000000000
2.367891743000,0.160000000000
2.375579700000,0.189000000000
2.383267657000,0.214000000000
2.390955614000,0.231000000000
2.398643571000,0.236000000000
2.406331528000,0.228000000000
2.414019485000,0.214000000000
2.421707442000,0.192000000000
2.429395399000,0.150000000000
2.437083356000,0.081000000000
2.444771313000,-0.002000000000
2.452459270000,-0.086000000000
2.460147227000,-0.157000000000
2.467835184000,-0.206000000000
2.475523141000,-0.236000000000
2.483211098000,-0.253000000000
2.490899055000,-0.258000000000
2.498587012000,-0.251000000000
2.506274969000,-0.241000000000
2.513962926000,-0.231000000000
2.521650883000,-0.219000000000
2.529338840000,-0.206000000000
2.537026797000,-0.194000000000
2.544714754000,-0.184000000000
2.552402711000,-0.177000000000
2.560090668000,-0.167000000000
2.567778625000,-0.160000000000
2.575466582000,-0.155000000000
2.583154539000,-0.150000000000
2.590842496000,-0.147000000000
2.598530453000,-0.142000000000
2.606218410000,-0.142000000000
2.613906367000,-0.142000000000
2.621594324000,-0.135000000000
2.629282281000,-0.132000000000
2.636970238000,-0.135000000000
2.644658195000,-0.135000000000
2.652346152000,-0.132000000000
2.660034109000,-0.130000000000
2.667722066000,-0.130000000000
2.675410023000,-0.128000000000
2.683097980000,-0.123000000000
2.690785937000,-0.120000000000
2.698473894000,-0.120000000000
2.706161851000,-0.115000000000
2.713849808000,-0.113000000000
2.721537765000,-0.110000000000
2.729225722000,-0.110000000000
2.736913679000,-0.110000000000
2.744601636000,-0.110000000000
2.752289593000,-0.110000000000
2.759977550000,-0.115000000000
2.767665579000,-0.123000000000
2.775353327000,-0.113000000000
2.783041075000,-0.093000000000
2.790728823000,-0.083000000000
2.798416571000,-0.081000000000
2.806104319000,-0.068000000000
2.813792067000,-0.059000000000
2.821479815000,-0.081000000000
2.829167563000,-0.105000000000
2.836855311000,-0.108000000000
2.844543059000,-0.098000000000
2.852230807000,-0.096000000000
2.859918555000,-0.096000000000
2.867606303000,-0.091000000000
2.875294051000,-0.086000000000
2.882981799000,-0.091000000000
2.890669547000,-0.118000000000
2.898357295000,-0.189000000000
2.906045043000,-0.253000000000
2.913732791000,-0.051000000000
2.921420539000,0.612000000000
2.929108287000,1.479000000000
2.936796035000,1.888000000000
2.944483783000,1.154000000000
2.952171531000,-0.201000000000
2.959859279000,-0.588000000000
2.967547027000,-0.162000000000
2.975234775000,-0.130000000000
2.982922523000,-0.288000000000
2.990610271000,-0.201000000000
2.998298019000,-0.150000000000
3.005985767000,-0.189000000000
3.013673515000,-0.160000000000
3.021361263000,-0.118000000000
3.029049011000,-0.118000000000
3.036736759000,-0.103000000000
3.044424507000,-0.076000000000
3.052112255000,-0.059000000000
3.059800003000,-0.039000000000
3.067487751000,-0.019000000000
3.075175499000,0.002000000000
3.082863247000,0.027000000000
3.090550995000,0.051000000000
3.098238743000,0.078000000000
3.105926491000,0.110000000000
3.113614239000,0.142000000000
3.121301987000,0.172000000000
3.128989735000,0.204000000000
3.136677483000,0.226000000000
3.144365231000,0.236000000000
3.152052979000,0.236000000000
3.159740727000,0.226000000000
3.167428475000,0.209000000000
3.175116223000,0.179000000000
3.182803971000,0.123000000000
3.190491719000,0.041000000000
3.198179467000,-0.044000000000
3.205867215000,-0.123000000000
3.213554963000,-0.184000000000
3.221242711000,-0.224000000000
3.228930459000,-0.243000000000
3.236618207000,-0.256000000000
3.244305955000,-0.253000000000
3.251993703000,-0.246000000000
3.259681451000,-0.236000000000
3.267369199000,-0.226000000000
3.275056947000,-0.214000000000
3.282744695000,-0.194000000000
3.290432443000,-0.184000000000
3.298120191000,-0.182000000000
3.305807939000,-0.172000000000
3.313495687000,-0.160000000000
3.321183435000,-0.157000000000
3.328871255000,-0.155000000000
3.336559282000,-0.150000000000
3.344247309000,-0.140000000000
3.351935336000,-0.135000000000
3.359623363000,-0.137000000000
3.367311390000,-0.137000000000
3.374999417000,-0.130000000000
3.382687444000,-0.130000000000
3.390375471000,-0.130000000000
3.398063498000,-0.132000000000
3.405751525000,-0.135000000000
3.413439552000,-0.135000000000
3.421127579000,-0.123000000000
3.428815606000,-0.115000000000
3.436503633000,-0.113000000000
3.444191660000,-0.115000000000
3.451879687000,-0.115000000000
3.459567714000,-0.115000000000
3.467255741000,-0.113000000000
3.474943768000,-0.103000000000
3.482631795000,-0.100000000000
3.490319822000,-0.103000000000
3.498007849000,-0.098000000000
3.505695876000,-0.091000000000
3.513383903000,-0.093000000000
3.521071930000,-0.103000000000
3.528759957000,-0.110000000000
3.536447984000,-0.103000000000
3.544136011000,-0.086000000000
3.551824038000,-0.076000000000
3.559512065000,-0.068000000000
3.567200092000,-0.056000000000
3.574888119000,-0.054000000000
3.582576146000,-0.076000000000
3.590264173000,-0.091000000000
3.597952200000,-0.083000000000
3.605640227000,-0.086000000000
3.613328254000,-0.083000000000
3.621016281000,-0.073000000000
3.628704308000,-0.083000000000
3.636392335000,-0.088000000000
3.644080362000,-0.076000000000
3.651768389000,-0.096000000000
3.659456416000,-0.182000000000
3.667144443000,-0.246000000000
3.674832470000,-0.044000000000
3.682520497000,0.627000000000
3.690208524000,1.506000000000
3.697896551000,1.912000000000
3.705584578000,1.144000000000
3.713272605000,-0.228000000000
3.720960632000,-0.583000000000
3.728648659000,-0.130000000000
3.736336686000,-0.113000000000
3.744024713000,-0.285000000000
3.751712740000,-0.192000000000
3.759400767000,-0.137000000000
3.767088794000,-0.182000000000
3.774776821000,-0.150000000000
3.782464848000,-0.103000000000
3.790152875000,-0.103000000000
3.797840902000,-0.091000000000
3.805528929000,-0.064000000000
3.813216956000,-0.044000000000
3.820904983000,-0.027000000000
3.828593010000,-0.007000000000
3.836281037000,0.014000000000
3.843969064000,0.044000000000
3.851657091000,0.068000000000
3.859345118000,0.088000000000
3.867033145000,0.123000000000
3.874721172000,0.167000000000
3.882409199000,0.189000000000
3.890097275000,0.214000000000
3.897784954000,0.248000000000
3.905472633000,0.258000000000
3.913160312000,0.248000000000
3.920847991000,0.238000000000
3.928535670000,0.228000000000
3.936223349000,0.196000000000
3.943911028000,0.132000000000
3.951598707000,0.054000000000
3.959286386000,-0.029000000000
3.966974065000,-0.115000000000
3.974661744000,-0.182000000000
3.982349423000,-0.224000000000
3.990037102000,-0.246000000000
3.997724781000,-0.243000000000
4.005412460000,-0.246000000000
4.013100139000,-0.256000000000
4.020787818000,-0.241000000000
4.028475497000,-0.224000000000
4.036163176000,-0.214000000000
4.043850855000,-0.196000000000
4.051538534000,-0.189000000000
4.059226213000,-0.187000000000
4.066913892000,-0.164000000000
4.074601571000,-0.152000000000
4.082289250000,-0.157000000000
4.089976929000,-0.147000000000
4.097664608000,-0.142000000000
4.105352287000,-0.142000000000
4.113039966000,-0.137000000000
4.120727645000,-0.132000000000
4.128415324000,-0.128000000000
4.136103003000,-0.125000000000
4.143790682000,-0.128000000000
4.151478361000,-0.123000000000
4.159166040000,-0.120000000000
4.166853719000,-0.123000000000
4.174541398000,-0.125000000000
4.182229077000,-0.125000000000
4.189916756000,-0.118000000000
4.197604435000,-0.113000000000
4.205292114000,-0.113000000000
4.212979793000,-0.108000000000
4.220667472000,-0.103000000000
4.228355151000,-0.103000000000
4.236042830000,-0.103000000000
4.243730509000,-0.108000000000
4.251418188000,-0.115000000000
4.259105867000,-0.115000000000
4.266793546000,-0.110000000000
4.274481225000,-0.103000000000
4.282168904000,-0.083000000000
4.289856583000,-0.078000000000
4.297544262000,-0.076000000000
4.305231941000,-0.059000000000
4.312919620000,-0.061000000000
4.320607299000,-0.093000000000
4.328294978000,-0.108000000000
4.335982657000,-0.098000000000
4.343670336000,-0.093000000000
4.351358015000,-0.096000000000
4.359045694000,-0.091000000000
4.366733373000,-0.083000000000
4.374421052000,-0.083000000000
4.382108731000,-0.100000000000
4.389796410000,-0.150000000000
4.397484089000,-0.236000000000
4.405171768000,-0.214000000000
4.412859447000,0.219000000000
4.420547126000,1.068000000000
4.428234805000,1.811000000000
4.435922484000,1.673000000000
4.443610163000,0.423000000000
4.451297860000,-0.590000000000
4.458985817000,-0.386000000000
4.466673774000,-0.076000000000
4.474361731000,-0.243000000000
4.482049688000,-0.260000000000
4.489737645000,-0.145000000000
4.497425602000,-0.169000000000
4.505113559000,-0.187000000000
4.512801516000,-0.132000000000
4.520489473000,-0.110000000000
4.528177430000,-0.110000000000
4.535865387000,-0.086000000000
4.543553344000,-0.064000000000
4.551241301000,-0.051000000000
4.558929258000,-0.032000000000
4.566617215000,-0.007000000000
4.574305172000,0.009000000000
4.581993129000,0.029000000000
4.589681086000,0.061000000000
4.597369043000,0.096000000000
4.605057000000,0.118000000000
4.612744957000,0.147000000000
4.620432914000,0.184000000000
4.628120871000,0.209000000000
4.635808828000,0.219000000000
4.643496785000,0.221000000000
4.651184742000,0.214000000000
4.658872699000,0.199000000000
4.666560656000,0.177000000000
4.674248613000,0.135000000000
4.681936570000,0.066000000000
4.689624527000,-0.019000000000
4.697312484000,-0.100000000000
4.705000441000,-0.167000000000
4.712688398000,-0.214000000000
4.720376355000,-0.243000000000
4.728064312000,-0.253000000000
4.735752269000,-0.256000000000
4.743440226000,-0.251000000000
4.751128183000,-0.243000000000
4.758816140000,-0.233000000000
4.766504097000,-0.224000000000
4.774192054000,-0.209000000000
4.781880011000,-0.196000000000
4.789567968000,-0.187000000000
4.797255925000,-0.179000000000
4.804943882000,-0.174000000000
4.812631839000,-0.164000000000
4.820319796000,-0.155000000000
4.828007753000,-0.152000000000
4.835695710000,-0.147000000000
4.843383667000,-0.142000000000
4.851071624000,-0.140000000000
4.858759581000,-0.137000000000
4.866447538000,-0.132000000000
4.874135495000,-0.132000000000
4.881823452000,-0.135000000000
4.889511409000,-0.132000000000
4.897199366000,-0.128000000000
4.904887323000,-0.128000000000
4.912575280000,-0.125000000000
4.920263237000,-0.125000000000
4.927951194000,-0.125000000000
4.935639151000,-0.120000000000
4.943327108000,-0.115000000000
4.951015065000,-0.113000000000
4.958703022000,-0.113000000000
4.966390979000,-0.110000000000
4.974078936000,-0.108000000000
4.981766893000,-0.108000000000
4.989454850000,-0.103000000000
4.997142807000,-0.103000000000
5.004830764000,-0.115000000000
5.012518793000,-0.120000000000
5.020206820000,-0.118000000000
5.027894847000,-0.105000000000
5.035582874000,-0.088000000000
5.043270901000,-0.078000000000
5.050958928000,-0.081000000000
5.058646955000,-0.066000000000
5.066334982000,-0.061000000000
5.074023009000,-0.091000000000
5.081711036000,-0.113000000000
5.089399063000,-0.103000000000
5.097087090000,-0.093000000000
5.104775117000,-0.096000000000
5.112463144000,-0.093000000000
5.120151171000,-0.086000000000
5.127839198000,-0.086000000000
5.135527225000,-0.103000000000
5.143215252000,-0.152000000000
5.150903279000,-0.236000000000
5.158591306000,-0.196000000000
5.166279333000,0.265000000000
5.173967360000,1.115000000000
5.181655387000,1.838000000000
5.189343414000,1.649000000000
5.197031441000,0.361000000000
5.204719468000,-0.600000000000
5.212407495000,-0.361000000000
5.220095522000,-0.071000000000
5.227783549000,-0.246000000000
5.235471576000,-0.265000000000
5.243159603000,-0.152000000000
5.250847630000,-0.174000000000
5.258535657000,-0.187000000000
5.266223684000,-0.137000000000
5.273911711000,-0.118000000000
5.281599738000,-0.113000000000
5.289287765000,-0.091000000000
5.296975792000,-0.071000000000
5.304663819000,-0.056000000000
5.312351846000,-0.034000000000
5.320039873000,-0.012000000000
5.327727900000,0.007000000000
5.335415927000,0.032000000000
5.343103954000,0.059000000000
5.350791981000,0.088000000000
5.358480008000,0.118000000000
5.366168035000,0.152000000000
5.373856062000,0.184000000000
5.381544089000,0.209000000000
5.389232116000,0.224000000000
5.396920143000,0.228000000000
5.404608170000,0.221000000000
5.412296197000,0.209000000000
5.419984224000,0.182000000000
5.427672251000,0.140000000000
5.435360278000,0.081000000000
5.443048305000,-0.002000000000
5.450736332000,-0.091000000000
5.458424359000,-0.155000000000
5.466112386000,-0.201000000000
5.473800413000,-0.236000000000
5.481488440000,-0.253000000000
5.489176467000,-0.256000000000
5.496864494000,-0.253000000000
5.504552521000,-0.238000000000
5.512240548000,-0.226000000000
5.519928575000,-0.216000000000
5.527616602000,-0.204000000000
5.535304629000,-0.192000000000
5.542992656000,-0.187000000000
5.550680683000,-0.177000000000
5.558368710000,-0.167000000000
5.566056737000,-0.160000000000
5.573744817000,-0.155000000000
5.581432705000,-0.147000000000
5.589120593000,-0.145000000000
5.596808481000,-0.142000000000
5.604496369000,-0.140000000000
5.612184257000,-0.140000000000
5.619872145000,-0.135000000000
5.627560033000,-0.135000000000
5.635247921000,-0.140000000000
5.642935809000,-0.137000000000
5.650623697000,-0.130000000000
5.658311585000,-0.132000000000
5.665999473000,-0.132000000000
5.673687361000,-0.128000000000
5.681375249000,-0.125000000000
5.689063137000,-0.120000000000
5.696751025000,-0.118000000000
5.704438913000,-0.118000000000
5.712126801000,-0.115000000000
5.719814689000,-0.113000000000
5.727502577000,-0.110000000000
5.735190465000,-0.108000000000
5.742878353000,-0.108000000000
5.750566241000,-0.108000000000
5.758254129000,-0.115000000000
5.765942017000,-0.125000000000
5.773629905000,-0.123000000000
5.781317793000,-0.103000000000
5.789005681000,-0.091000000000
5.796693569000,-0.088000000000
5.804381457000,-0.078000000000
5.812069345000,-0.061000000000
5.819757233000,-0.066000000000
5.827445121000,-0.093000000000
5.835133009000,-0.108000000000
5.842820897000,-0.103000000000
5.850508785000,-0.098000000000
5.858196673000,-0.093000000000
5.865884561000,-0.088000000000
5.873572449000,-0.088000000000
5.881260337000,-0.086000000000
5.888948225000,-0.098000000000
5.896636113000,-0.152000000000
5.904324001000,-0.236000000000
5.912011889000,-0.196000000000
5.919699777000,0.260000000000
5.927387665000,1.105000000000
5.935075553000,1.816000000000
5.942763441000,1.637000000000
5.950451329000,0.371000000000
5.958139217000,-0.590000000000
5.965827105000,-0.364000000000
5.973514993000,-0.073000000000
5.981202881000,-0.246000000000
5.988890769000,-0.263000000000
5.996578657000,-0.152000000000
6.004266545000,-0.174000000000
6.011954433000,-0.182000000000
6.019642321000,-0.128000000000
6.027330209000,-0.115000000000
6.035018097000,-0.115000000000
6.042705985000,-0.086000000000
6.050393873000,-0.064000000000
6.058081761000,-0.051000000000
6.065769649000,-0.029000000000
6.073457537000,-0.007000000000
6.081145425000,0.012000000000
6.088833313000,0.036000000000
6.096521201000,0.064000000000
6.104209089000,0.093000000000
6.111896977000,0.123000000000
6.119584865000,0.155000000000
6.127272753000,0.187000000000
6.134960663000,0.214000000000
6.142648620000,0.228000000000
6.150336577000,0.231000000000
6.158024534000,0.226000000000
6.165712491000,0.211000000000
6.173400448000,0.189000000000
6.181088405000,0.150000000000
6.188776362000,0.081000000000
6.196464319000,-0.004000000000
6.204152276000,-0.086000000000
6.211840233000,-0.152000000000
6.219528190000,-0.204000000000
6.227216147000,-0.238000000000
6.234904104000,-0.253000000000
6.242592061000,-0.253000000000
6.250280018000,-0.243000000000
6.257967975000,-0.241000000000
6.265655932000,-0.231000000000
6.273343889000,-0.219000000000
6.281031846000,-0.206000000000
6.288719803000,-0.196000000000
6.296407760000,-0.182000000000
6.304095717000,-0.172000000000
6.311783674000,-0.167000000000
6.319471631000,-0.157000000000
6.327159588000,-0.155000000000
6.334847545000,-0.152000000000
6.342535502000,-0.147000000000
6.350223459000,-0.142000000000
6.357911416000,-0.137000000000
6.365599373000,-0.140000000000
6.373287330000,-0.140000000000
6.380975287000,-0.135000000000
6.388663244000,-0.135000000000
6.396351201000,-0.135000000000
6.404039158000,-0.130000000000
6.411727115000,-0.128000000000
6.419415072000,-0.125000000000
6.427103029000,-0.125000000000
6.434790986000,-0.120000000000
6.442478943000,-0.118000000000
6.450166900000,-0.118000000000
6.457854857000,-0.118000000000
6.465542814000,-0.110000000000
6.473230771000,-0.108000000000
6.480918728000,-0.105000000000
6.488606685000,-0.105000000000
6.496294642000,-0.100000000000
6.503982599000,-0.098000000000
6.511670556000,-0.096000000000
6.519358513000,-0.098000000000
6.527046470000,-0.105000000000
6.534734427000,-0.110000000000
6.542422384000,-0.108000000000
6.550110341000,-0.103000000000
6.557798298000,-0.091000000000
6.565486255000,-0.078000000000
6.573174212000,-0.073000000000
6.580862169000,-0.064000000000
6.588550126000,-0.049000000000
6.596238083000,-0.066000000000
6.603926040000,-0.098000000000
6.611613997000,-0.100000000000
6.619301954000,-0.093000000000
6.626989911000,-0.093000000000
6.634677868000,-0.088000000000
6.642365825000,-0.081000000000
6.650053782000,-0.078000000000
6.657741739000,-0.086000000000
6.665429696000,-0.108000000000
6.673117653000,-0.174000000000
6.680805610000,-0.243000000000
6.688493567000,-0.068000000000
6.696181596000,0.571000000000
6.703869553000,1.442000000000
6.711557510000,1.890000000000
6.719245467000,1.213000000000
6.726933424000,-0.140000000000
6.734621381000,-0.588000000000
6.742309338000,-0.179000000000
6.749997295000,-0.123000000000
6.757685252000,-0.283000000000
6.765373209000,-0.206000000000
6.773061166000,-0.150000000000
6.780749123000,-0.189000000000
6.788437080000,-0.164000000000
6.796125037000,-0.115000000000
6.803812994000,-0.108000000000
6.811500951000,-0.100000000000
6.819188908000,-0.078000000000
6.826876865000,-0.056000000000
6.834564822000,-0.036000000000
6.842252779000,-0.019000000000
6.849940736000,-0.002000000000
6.857628693000,0.019000000000
6.865316650000,0.046000000000
6.873004607000,0.076000000000
6.880692564000,0.098000000000
6.888380521000,0.128000000000
6.896068478000,0.167000000000
6.903756435000,0.199000000000
6.911444392000,0.216000000000
6.919132349000,0.226000000000
6.926820306000,0.233000000000
6.934508263000,0.226000000000
6.942196220000,0.204000000000
6.949884177000,0.179000000000
6.957572134000,0.135000000000
6.965260091000,0.054000000000
6.972948048000,-0.036000000000
6.980636005000,-0.108000000000
6.988323962000,-0.172000000000
6.996011919000,-0.221000000000
7.003699876000,-0.246000000000
7.011387833000,-0.256000000000
7.019075790000,-0.253000000000
7.026763747000,-0.251000000000
7.034451704000,-0.248000000000
7.042139661000,-0.233000000000
7.049827618000,-0.221000000000
7.057515575000,-0.216000000000
7.065203532000,-0.201000000000
7.072891489000,-0.179000000000
7.080579446000,-0.177000000000
7.088267403000,-0.179000000000
7.095955360000,-0.174000000000
7.103643317000,-0.164000000000
7.111331274000,-0.167000000000
7.119019231000,-0.169000000000
7.126707188000,-0.155000000000
7.134395145000,-0.150000000000
7.142083102000,-0.155000000000
7.149771059000,-0.155000000000
7.157459016000,-0.157000000000
7.165146973000,-0.152000000000
7.172834930000,-0.145000000000
7.180522887000,-0.147000000000
7.188210844000,-0.150000000000
7.195898801000,-0.145000000000
7.203586758000,-0.140000000000
7.211274715000,-0.137000000000
7.218962672000,-0.135000000000
7.226650629000,-0.132000000000
7.234338586000,-0.130000000000
7.242026543000,-0.130000000000
7.249714500000,-0.125000000000
7.257402529000,-0.120000000000
7.265090417000,-0.120000000000
7.272778305000,-0.130000000000
7.280466193000,-0.137000000000
7.288154081000,-0.130000000000
7.295841969000,-0.108000000000
7.303529857000,-0.096000000000
7.311217745000,-0.096000000000
7.318905633000,-0.083000000000
7.326593521000,-0.066000000000
7.334281409000,-0.078000000000
7.341969297000,-0.108000000000
7.349657185000,-0.118000000000
7.357345073000,-0.110000000000
7.365032961000,-0.100000000000
7.372720849000,-0.093000000000
7.380408737000,-0.093000000000
7.388096625000,-0.093000000000
7.395784513000,-0.093000000000
7.403472401000,-0.105000000000
7.411160289000,-0.160000000000
7.418848177000,-0.243000000000
7.426536065000,-0.164000000000
7.434223953000,0.352000000000
7.441911841000,1.198000000000
7.449599729000,1.821000000000
7.457287617000,1.457000000000
7.464975505000,0.160000000000
7.472663393000,-0.578000000000
7.480351281000,-0.278000000000
7.488039169000,-0.105000000000
7.495727057000,-0.253000000000
7.503414945000,-0.214000000000
7.511102833000,-0.137000000000
7.518790721000,-0.169000000000
7.526478609000,-0.155000000000
7.534166497000,-0.105000000000
7.541854385000,-0.100000000000
7.549542273000,-0.091000000000
7.557230161000,-0.061000000000
7.564918049000,-0.044000000000
7.572605937000,-0.029000000000
7.580293825000,-0.007000000000
7.587981713000,0.012000000000
7.595669601000,0.032000000000
7.603357489000,0.056000000000
7.611045377000,0.086000000000
7.618733265000,0.118000000000
7.626421153000,0.150000000000
7.634109041000,0.179000000000
7.641796929000,0.211000000000
7.649484817000,0.233000000000
7.657172705000,0.243000000000
7.664860593000,0.248000000000
7.672548481000,0.243000000000
7.680236369000,0.228000000000
7.687924257000,0.204000000000
7.695612145000,0.162000000000
7.703300033000,0.088000000000
7.710987921000,0.002000000000
7.718675809000,-0.076000000000
7.726363697000,-0.142000000000
7.734051585000,-0.194000000000
7.741739473000,-0.224000000000
7.749427361000,-0.238000000000
7.757115249000,-0.243000000000
7.764803137000,-0.233000000000
7.772491025000,-0.224000000000
7.780178913000,-0.216000000000
7.787866801000,-0.204000000000
7.795554689000,-0.194000000000
7.803242577000,-0.182000000000
7.810930465000,-0.167000000000
7.818618379000,-0.157000000000
7.826306406000,-0.150000000000
7.833994433000,-0.142000000000
7.841682460000,-0.137000000000
7.849370487000,-0.140000000000
7.857058514000,-0.137000000000
7.864746541000,-0.132000000000
7.872434568000,-0.130000000000
7.880122595000,-0.128000000000
7.887810622000,-0.128000000000
7.895498649000,-0.128000000000
7.903186676000,-0.123000000000
7.910874703000,-0.120000000000
7.918562730000,-0.120000000000
7.926250757000,-0.120000000000
7.933938784000,-0.120000000000
7.941626811000,-0.115000000000
7.949314838000,-0.110000000000
7.957002865000,-0.110000000000
7.964690892000,-0.110000000000
7.972378919000,-0.110000000000
7.980066946000,-0.105000000000
7.987754973000,-0.096000000000
7.995443000000,-0.098000000000
8.003131027000,-0.115000000000
8.010819054000,-0.120000000000
8.018507081000,-0.110000000000
8.026195108000,-0.096000000000
8.033883135000,-0.081000000000
8.041571162000,-0.068000000000
8.049259189000,-0.064000000000
8.056947216000,-0.061000000000
8.064635243000,-0.064000000000
8.072323270000,-0.083000000000
8.080011297000,-0.100000000000
8.087699324000,-0.096000000000
8.095387351000,-0.086000000000
8.103075378000,-0.088000000000
8.110763405000,-0.081000000000
8.118451432000,-0.073000000000
8.126139459000,-0.076000000000
8.133827486000,-0.096000000000
8.141515513000,-0.155000000000
8.149203540000,-0.243000000000
8.156891567000,-0.179000000000
8.164579594000,0.327000000000
8.172267621000,1.198000000000
8.179955648000,1.878000000000
8.187643675000,1.577000000000
8.195331702000,0.246000000000
8.203019729000,-0.612000000000
8.210707756000,-0.310000000000
8.218395783000,-0.068000000000
8.226083810000,-0.243000000000
8.233771837000,-0.231000000000
8.241459864000,-0.132000000000
8.249147891000,-0.169000000000
8.256835918000,-0.172000000000
8.264523945000,-0.115000000000
8.272211972000,-0.100000000000
8.279899999000,-0.093000000000
8.287588026000,-0.071000000000
8.295276053000,-0.054000000000
8.302964080000,-0.034000000000
8.310652107000,-0.012000000000
8.318340134000,0.009000000000
8.326028161000,0.029000000000
8.333716188000,0.054000000000
8.341404215000,0.078000000000
8.349092242000,0.103000000000
8.356780269000,0.142000000000
8.364468296000,0.177000000000
8.372156323000,0.201000000000
8.379844399000,0.226000000000
8.387532356000,0.246000000000
8.395220313000,0.246000000000
8.402908270000,0.231000000000
8.410596227000,0.216000000000
8.418284184000,0.192000000000
8.425972141000,0.145000000000
8.433660098000,0.081000000000
8.441348055000,-0.002000000000
8.449036012000,-0.093000000000
8.456723969000,-0.162000000000
8.464411926000,-0.206000000000
8.472099883000,-0.233000000000
8.479787840000,-0.246000000000
8.487475797000,-0.248000000000
8.495163754000,-0.246000000000
8.502851711000,-0.236000000000
8.510539668000,-0.226000000000
8.518227625000,-0.216000000000
8.525915582000,-0.204000000000
8.533603539000,-0.196000000000
8.541291496000,-0.184000000000
8.548979453000,-0.169000000000
8.556667410000,-0.160000000000
8.564355367000,-0.155000000000
8.572043324000,-0.152000000000
8.579731281000,-0.152000000000
8.587419238000,-0.150000000000
8.595107195000,-0.140000000000
8.602795152000,-0.130000000000
8.610483109000,-0.130000000000
8.618171066000,-0.132000000000
8.625859023000,-0.135000000000
8.633546980000,-0.132000000000
8.641234937000,-0.123000000000
8.648922894000,-0.120000000000
8.656610851000,-0.128000000000
8.664298808000,-0.125000000000
8.671986765000,-0.120000000000
8.679674722000,-0.125000000000
8.687362679000,-0.120000000000
8.695050636000,-0.113000000000
8.702738593000,-0.118000000000
8.710426550000,-0.130000000000
8.718114507000,-0.125000000000
8.725802464000,-0.110000000000
8.733490421000,-0.100000000000
8.741178378000,-0.100000000000
8.748866335000,-0.093000000000
8.756554292000,-0.076000000000
8.764242249000,-0.064000000000
8.771930206000,-0.086000000000
8.779618163000,-0.113000000000
8.787306120000,-0.110000000000
8.794994077000,-0.098000000000
8.802682034000,-0.100000000000
8.810369991000,-0.100000000000
8.818057948000,-0.098000000000
8.825745905000,-0.088000000000
8.833433862000,-0.093000000000
8.841121819000,-0.130000000000
8.848809776000,-0.206000000000
8.856497733000,-0.263000000000
8.864185690000,-0.039000000000
8.871873647000,0.662000000000
8.879561604000,1.536000000000
8.887249561000,1.890000000000
8.894937518000,1.068000000000
8.902625475000,-0.285000000000
8.910313432000,-0.583000000000
8.918001389000,-0.145000000000
8.925689346000,-0.152000000000
8.933377303000,-0.292000000000
8.941065332000,-0.187000000000
8.948753011000,-0.150000000000
8.956440690000,-0.196000000000
8.964128369000,-0.162000000000
8.971816048000,-0.118000000000
8.979503727000,-0.118000000000
8.987191406000,-0.098000000000
8.994879085000,-0.068000000000
9.002566764000,-0.059000000000
9.010254443000,-0.041000000000
9.017942122000,-0.014000000000
9.025629801000,0.002000000000
9.033317480000,0.019000000000
9.041005159000,0.046000000000
9.048692838000,0.076000000000
9.056380517000,0.105000000000
9.064068196000,0.135000000000
9.071755875000,0.167000000000
9.079443554000,0.192000000000
9.087131233000,0.206000000000
9.094818912000,0.214000000000
9.102506591000,0.209000000000
9.110194270000,0.196000000000
9.117881949000,0.182000000000
9.125569628000,0.155000000000
9.133257307000,0.096000000000
9.140944986000,0.014000000000
9.148632665000,-0.068000000000
9.156320344000,-0.142000000000
9.164008023000,-0.199000000000
9.171695702000,-0.233000000000
9.179383381000,-0.248000000000
9.187071060000,-0.258000000000
9.194758739000,-0.260000000000
9.202446418000,-0.248000000000
9.210134097000,-0.233000000000
9.217821776000,-0.226000000000
9.225509455000,-0.214000000000
9.233197134000,-0.201000000000
9.240884813000,-0.196000000000
9.248572492000,-0.187000000000
9.256260171000,-0.174000000000
9.263947850000,-0.167000000000
9.271635529000,-0.162000000000
9.279323208000,-0.152000000000
9.287010887000,-0.147000000000
9.294698566000,-0.147000000000
9.302386245000,-0.142000000000
9.310073924000,-0.142000000000
9.317761603000,-0.142000000000
9.325449282000,-0.137000000000
9.333136961000,-0.135000000000
9.340824640000,-0.132000000000
9.348512319000,-0.130000000000
9.356199998000,-0.132000000000
9.363887677000,-0.130000000000
9.371575356000,-0.128000000000
9.379263035000,-0.125000000000
9.386950714000,-0.123000000000
9.394638393000,-0.120000000000
9.402326072000,-0.120000000000
9.410013751000,-0.130000000000
9.417701430000,-0.137000000000
9.425389109000,-0.132000000000
9.433076788000,-0.118000000000
9.440764467000,-0.103000000000
9.448452146000,-0.098000000000
9.456139825000,-0.093000000000
9.463827504000,-0.078000000000
9.471515183000,-0.073000000000
9.479202862000,-0.100000000000
9.486890541000,-0.120000000000
9.494578220000,-0.110000000000
9.502265921000,-0.105000000000
9.509953948000,-0.103000000000
9.517641975000,-0.100000000000
9.525330002000,-0.098000000000
9.533018029000,-0.098000000000
9.540706056000,-0.105000000000
9.548394083000,-0.152000000000
9.556082110000,-0.246000000000
9.563770137000,-0.243000000000
9.571458164000,0.167000000000
9.579146191000,1.004000000000
9.586834218000,1.782000000000
9.594522245000,1.737000000000
9.602210272000,0.536000000000
9.609898299000,-0.566000000000
9.617586326000,-0.438000000000
9.625274353000,-0.083000000000
9.632962380000,-0.231000000000
9.640650407000,-0.283000000000
9.648338434000,-0.164000000000
9.656026461000,-0.174000000000
9.663714488000,-0.194000000000
9.671402515000,-0.140000000000
9.679090542000,-0.120000000000
9.686778569000,-0.118000000000
9.694466596000,-0.091000000000
9.702154623000,-0.073000000000
9.709842650000,-0.064000000000
9.717530677000,-0.039000000000
9.725218704000,-0.012000000000
9.732906731000,0.004000000000
9.740594758000,0.024000000000
9.748282785000,0.051000000000
9.755970812000,0.081000000000
9.763658839000,0.113000000000
9.771346866000,0.145000000000
9.779034893000,0.174000000000
9.786722920000,0.196000000000
9.794410947000,0.211000000000
9.802098974000,0.216000000000
9.809787001000,0.211000000000
9.817475028000,0.196000000000
9.825163055000,0.172000000000
9.832851082000,0.135000000000
9.840539109000,0.068000000000
9.848227136000,-0.017000000000
9.855915163000,-0.096000000000
9.863603190000,-0.160000000000
9.871291217000,-0.209000000000
9.878979244000,-0.243000000000
9.886667271000,-0.256000000000
9.894355298000,-0.253000000000
9.902043325000,-0.246000000000
9.909731352000,-0.241000000000
9.917419379000,-0.231000000000
9.925107406000,-0.216000000000
9.932795433000,-0.206000000000
9.940483460000,-0.192000000000
9.948171487000,-0.182000000000
9.955859514000,-0.174000000000
9.963547541000,-0.169000000000
9.971235568000,-0.160000000000
9.978923595000,-0.157000000000
9.986611622000,-0.152000000000
9.994299649000,-0.145000000000
10.001987676000,-0.140000000000
10.009675703000,-0.135000000000
10.017363730000,-0.137000000000
10.025051757000,-0.135000000000
10.032739784000,-0.132000000000
10.040427811000,-0.132000000000
10.048115838000,-0.130000000000
10.055803865000,-0.128000000000
10.063491941000,-0.125000000000
10.071179968000,-0.123000000000
10.078867995000,-0.118000000000
10.086556022000,-0.118000000000
10.094244049000,-0.118000000000
10.101932076000,-0.115000000000
10.109620103000,-0.108000000000
10.117308130000,-0.110000000000
10.124996157000,-0.120000000000
10.132684184000,-0.125000000000
10.140372211000,-0.120000000000
10.148060238000,-0.105000000000
10.155748265000,-0.091000000000
10.163436292000,-0.088000000000
10.171124319000,-0.086000000000
10.178812346000,-0.068000000000
10.186500373000,-0.059000000000
10.194188400000,-0.086000000000
10.201876427000,-0.110000000000
10.209564454000,-0.103000000000
10.217252481000,-0.096000000000
10.224940508000,-0.096000000000
10.232628535000,-0.091000000000
10.240316562000,-0.086000000000
10.248004589000,-0.086000000000
10.255692616000,-0.093000000000
10.263380643000,-0.128000000000
10.271068670000,-0.211000000000
10.278756697000,-0.243000000000
10.286444724000,0.061000000000
10.294132751000,0.829000000000
10.301820778000,1.671000000000
10.309508805000,1.848000000000
10.317196832000,0.822000000000
10.324884859000,-0.438000000000
10.332572886000,-0.519000000000
10.340260913000,-0.100000000000
10.347948940000,-0.184000000000
10.355636967000,-0.285000000000
10.363324994000,-0.172000000000
10.371013021000,-0.157000000000
10.378701048000,-0.189000000000
10.386389075000,-0.145000000000
10.394077102000,-0.113000000000
10.401765129000,-0.113000000000
10.409453156000,-0.096000000000
10.417141183000,-0.068000000000
10.424829210000,-0.051000000000
10.432517237000,-0.034000000000
10.440205264000,-0.014000000000
10.447893291000,0.004000000000
10.455581318000,0.029000000000
10.463269345000,0.056000000000
10.470957372000,0.083000000000
10.478645399000,0.110000000000
10.486333426000,0.142000000000
10.494021453000,0.177000000000
10.501709480000,0.199000000000
10.509397507000,0.214000000000
10.517085534000,0.219000000000
10.524773561000,0.216000000000
10.532461588000,0.206000000000
10.540149615000,0.187000000000
10.547837642000,0.150000000000
10.555525669000,0.096000000000
10.563213696000,0.017000000000
10.570901723000,-0.066000000000
10.578589750000,-0.132000000000
10.586277777000,-0.184000000000
10.593965804000,-0.224000000000
10.601653831000,-0.243000000000
10.609341858000,-0.246000000000
10.617029885000,-0.238000000000
10.624717961000,-0.226000000000
10.632405988000,-0.216000000000
10.640094015000,-0.209000000000
10.647782042000,-0.199000000000
10.655470069000,-0.187000000000
10.663158096000,-0.177000000000
10.670846123000,-0.169000000000
10.678534150000,-0.162000000000
10.686222177000,-0.152000000000
10.693910204000,-0.145000000000
10.701598231000,-0.145000000000
10.709286258000,-0.142000000000
10.716974285000,-0.140000000000
10.724662312000,-0.137000000000
10.732350339000,-0.135000000000
10.740038366000,-0.132000000000
10.747726393000,-0.132000000000
10.755414420000,-0.132000000000
10.763102447000,-0.130000000000
10.770790474000,-0.128000000000
10.778478501000,-0.125000000000
10.786166528000,-0.123000000000
10.793854555000,-0.123000000000
10.801542582000,-0.120000000000
10.809230609000,-0.115000000000
10.816918636000,-0.115000000000
10.824606663000,-0.118000000000
10.832294690000,-0.113000000000
10.839982717000,-0.108000000000
10.847670744000,-0.115000000000
10.855358771000,-0.125000000000
10.863046798000,-0.128000000000
10.870734825000,-0.120000000000
10.878422852000,-0.105000000000
10.886110879000,-0.091000000000
10.893798906000,-0.091000000000
10.901486933000,-0.091000000000
10.909174960000,-0.068000000000
10.916862987000,-0.064000000000
10.924551014000,-0.098000000000
10.932239041000,-0.120000000000
10.939927068000,-0.110000000000
10.947615095000,-0.103000000000
10.955303122000,-0.105000000000
10.962991149000,-0.100000000000
10.970679176000,-0.088000000000
10.978367203000,-0.091000000000
10.986055230000,-0.113000000000
10.993743257000,-0.160000000000
11.001431284000,-0.243000000000
11.009119311000,-0.236000000000
11.016807338000,0.179000000000
11.024495365000,1.019000000000
11.032183392000,1.777000000000
11.039871419000,1.683000000000
11.047559446000,0.465000000000
11.055247473000,-0.576000000000
11.062935500000,-0.413000000000
11.070623527000,-0.093000000000
11.078311554000,-0.248000000000
11.085999581000,-0.285000000000
11.093687608000,-0.174000000000
11.101375635000,-0.189000000000
11.109063662000,-0.204000000000
11.116751689000,-0.147000000000
11.124439716000,-0.130000000000
11.132127743000,-0.130000000000
11.139815770000,-0.105000000000
11.147503797000,-0.086000000000
11.155191824000,-0.078000000000
11.162879851000,-0.054000000000
11.170567878000,-0.024000000000
11.178255905000,-0.014000000000
11.185943981000,0.004000000000
11.193631590000,0.036000000000
11.201319199000,0.064000000000
11.209006808000,0.091000000000
11.216694417000,0.123000000000
11.224382026000,0.150000000000
11.232069635000,0.167000000000
11.239757244000,0.184000000000
11.247444853000,0.194000000000
11.255132462000,0.184000000000
11.262820071000,0.169000000000
11.270507680000,0.155000000000
11.278195289000,0.120000000000
11.285882898000,0.059000000000
11.293570507000,-0.019000000000
11.301258116000,-0.098000000000
11.308945725000,-0.167000000000
11.316633334000,-0.216000000000
11.324320943000,-0.248000000000
11.332008552000,-0.265000000000
11.339696161000,-0.268000000000
11.347383770000,-0.263000000000
11.355071379000,-0.253000000000
11.362758988000,-0.241000000000
11.370446597000,-0.231000000000
11.378134206000,-0.219000000000
11.385821815000,-0.209000000000
11.393509424000,-0.201000000000
11.401197033000,-0.187000000000
11.408884642000,-0.182000000000
11.416572251000,-0.177000000000
11.424259860000,-0.172000000000
11.431947469000,-0.167000000000
11.439635078000,-0.160000000000
11.447322687000,-0.160000000000
11.455010296000,-0.162000000000
11.462697905000,-0.160000000000
11.470385514000,-0.155000000000
11.478073123000,-0.152000000000
11.485760732000,-0.145000000000
11.493448341000,-0.145000000000
11.501135950000,-0.152000000000
11.508823559000,-0.147000000000
11.516511168000,-0.137000000000
11.524198777000,-0.137000000000
11.531886386000,-0.137000000000
11.539573995000,-0.130000000000
11.547261604000,-0.128000000000
11.554949213000,-0.125000000000
11.562636822000,-0.120000000000
11.570324431000,-0.125000000000
11.578012040000,-0.137000000000
11.585699649000,-0.135000000000
11.593387258000,-0.123000000000
11.601074867000,-0.110000000000
11.608762476000,-0.100000000000
11.616450085000,-0.091000000000
11.624137694000,-0.078000000000
11.631825303000,-0.071000000000
11.639512912000,-0.078000000000
11.647200521000,-0.105000000000
11.654888130000,-0.120000000000
11.662575739000,-0.110000000000
11.670263348000,-0.100000000000
11.677950957000,-0.100000000000
11.685638566000,-0.096000000000
11.693326175000,-0.091000000000
11.701013784000,-0.093000000000
11.708701393000,-0.110000000000
11.716389002000,-0.160000000000
11.724076611000,-0.246000000000
11.731764220000,-0.194000000000
11.739451829000,0.295000000000
11.747139479000,1.149000000000
11.754827506000,1.819000000000
11.762515533000,1.536000000000
11.770203560000,0.248000000000
11.777891587000,-0.593000000000
11.785579614000,-0.327000000000
11.793267641000,-0.103000000000
11.800955668000,-0.258000000000
11.808643695000,-0.238000000000
11.816331722000,-0.145000000000
11.824019749000,-0.174000000000
11.831707776000,-0.177000000000
11.839395803000,-0.128000000000
11.847083830000,-0.113000000000
11.854771857000,-0.108000000000
11.862459884000,-0.083000000000
11.870147911000,-0.061000000000
11.877835938000,-0.046000000000
11.885523965000,-0.027000000000
11.893211992000,-0.002000000000
11.900900019000,0.012000000000
11.908588046000,0.034000000000
11.916276073000,0.068000000000
11.923964100000,0.096000000000
11.931652127000,0.120000000000
11.939340154000,0.150000000000
11.947028181000,0.184000000000
11.954716208000,0.201000000000
11.962404235000,0.214000000000
11.970092262000,0.221000000000
11.977780289000,0.214000000000
11.985468316000,0.194000000000
11.993156343000,0.172000000000
12.000844370000,0.132000000000
12.008532397000,0.073000000000
12.016220424000,-0.004000000000
12.023908451000,-0.091000000000
12.031596478000,-0.155000000000
12.039284505000,-0.192000000000
12.046972532000,-0.219000000000
12.054660559000,-0.238000000000
12.062348586000,-0.241000000000
12.070036613000,-0.231000000000
12.077724640000,-0.224000000000
12.085412667000,-0.216000000000
12.093100694000,-0.206000000000
12.100788721000,-0.192000000000
12.108476748000,-0.179000000000
12.116164775000,-0.172000000000
12.123852802000,-0.164000000000
12.131540829000,-0.150000000000
12.139228856000,-0.142000000000
12.146916883000,-0.145000000000
12.154604910000,-0.145000000000
12.162292937000,-0.137000000000
12.169980964000,-0.135000000000
12.177668991000,-0.135000000000
12.185357018000,-0.128000000000
12.193045045000,-0.123000000000
12.200733072000,-0.128000000000
12.208421099000,-0.125000000000
12.216109126000,-0.115000000000
12.223797153000,-0.120000000000
12.231485180000,-0.125000000000
12.239173207000,-0.113000000000
12.246861234000,-0.108000000000
12.254549261000,-0.120000000000
12.262237288000,-0.115000000000
12.269925315000,-0.105000000000
12.277613342000,-0.110000000000
12.285301369000,-0.113000000000
12.292989396000,-0.113000000000
12.300677423000,-0.120000000000
12.308365503000,-0.115000000000
12.316053530000,-0.096000000000
12.323741557000,-0.081000000000
12.331429584000,-0.088000000000
12.339117611000,-0.093000000000
12.346805638000,-0.068000000000
12.354493665000,-0.064000000000
12.362181692000,-0.096000000000
12.369869719000,-0.113000000000
12.377557746000,-0.098000000000
12.385245773000,-0.091000000000
12.392933800000,-0.096000000000
12.400621827000,-0.093000000000
12.408309854000,-0.086000000000
12.415997881000,-0.088000000000
12.423685908000,-0.108000000000
12.431373935000,-0.167000000000
12.439061962000,-0.258000000000
12.446749989000,-0.172000000000
12.454438016000,0.371000000000
12.462126043000,1.248000000000
12.469814070000,1.878000000000
12.477502097000,1.499000000000
12.485190124000,0.145000000000
12.492878151000,-0.635000000000
12.500566178000,-0.288000000000
12.508254205000,-0.083000000000
12.515942232000,-0.273000000000
12.523630259000,-0.243000000000
12.531318286000,-0.145000000000
12.539006313000,-0.179000000000
12.546694340000,-0.164000000000
12.554382367000,-0.108000000000
12.562070394000,-0.110000000000
12.569758421000,-0.110000000000
12.577446448000,-0.078000000000
12.585134475000,-0.056000000000
12.592822502000,-0.039000000000
12.600510529000,-0.019000000000
12.608198556000,0.002000000000
12.615886583000,0.022000000000
12.623574610000,0.039000000000
12.631262637000,0.068000000000
12.638950664000,0.105000000000
12.646638691000,0.132000000000
12.654326718000,0.155000000000
12.662014745000,0.184000000000
12.669702772000,0.206000000000
12.677390799000,0.221000000000
12.685078826000,0.221000000000
12.692766853000,0.199000000000
12.700454880000,0.179000000000
12.708142907000,0.167000000000
12.715830934000,0.132000000000
12.723518961000,0.066000000000
12.731206988000,-0.022000000000
12.738895015000,-0.103000000000
12.746583042000,-0.157000000000
12.754271069000,-0.201000000000
12.761959096000,-0.238000000000
12.769647123000,-0.248000000000
12.777335150000,-0.233000000000
12.785023177000,-0.231000000000
12.792711204000,-0.233000000000
12.800399231000,-0.216000000000
12.808087258000,-0.196000000000
12.815775285000,-0.192000000000
12.823463312000,-0.192000000000
12.831151339000,-0.177000000000
12.838839366000,-0.160000000000
12.846527393000,-0.160000000000
12.854215420000,-0.162000000000
12.861903447000,-0.145000000000
12.869591523000,-0.128000000000
12.877279341000,-0.128000000000
12.884967159000,-0.128000000000
12.892654977000,-0.130000000000
12.900342795000,-0.142000000000
12.908030613000,-0.125000000000
12.915718431000,-0.105000000000
12.923406249000,-0.128000000000
12.931094067000,-0.137000000000
12.938781885000,-0.113000000000
12.946469703000,-0.103000000000
12.954157521000,-0.108000000000
12.961845339000,-0.113000000000
12.969533157000,-0.128000000000
12.977220975000,-0.132000000000
12.984908793000,-0.113000000000
12.992596611000,-0.105000000000
13.000284429000,-0.113000000000
13.007972247000,-0.103000000000
13.015660065000,-0.088000000000
13.023347883000,-0.088000000000
13.031035701000,-0.078000000000
13.038723519000,-0.071000000000
13.046411337000,-0.083000000000
13.054099155000,-0.098000000000
13.061786973000,-0.103000000000
13.069474791000,-0.096000000000
13.077162609000,-0.093000000000
13.084850427000,-0.096000000000
13.092538245000,-0.088000000000
13.100226063000,-0.088000000000
13.107913881000,-0.093000000000
13.115601699000,-0.108000000000
13.123289517000,-0.174000000000
13.130977335000,-0.251000000000
13.138665153000,-0.054000000000
13.146352971000,0.625000000000
13.154040789000,1.469000000000
13.161728607000,1.858000000000
13.169416425000,1.154000000000
13.177104243000,-0.199000000000
13.184792061000,-0.610000000000
13.192479879000,-0.169000000000
13.200167697000,-0.128000000000
13.207855515000,-0.278000000000
13.215543333000,-0.182000000000
13.223231151000,-0.142000000000
13.230918969000,-0.182000000000
13.238606787000,-0.140000000000
13.246294605000,-0.100000000000
13.253982423000,-0.100000000000
13.261670241000,-0.086000000000
13.269358059000,-0.061000000000
13.277045877000,-0.032000000000
13.284733695000,-0.014000000000
13.292421513000,-0.012000000000
13.300109331000,0.009000000000
13.307797149000,0.049000000000
13.315484967000,0.078000000000
13.323172785000,0.088000000000
13.330860603000,0.115000000000
13.338548421000,0.160000000000
13.346236239000,0.194000000000
13.353924057000,0.209000000000
13.361611875000,0.219000000000
13.369299693000,0.228000000000
13.376987511000,0.231000000000
13.384675329000,0.211000000000
13.392363147000,0.196000000000
13.400050965000,0.174000000000
13.407738783000,0.103000000000
13.415426601000,0.012000000000
13.423114419000,-0.059000000000
13.430802282000,-0.132000000000
13.438490239000,-0.192000000000
13.446178196000,-0.226000000000
13.453866153000,-0.246000000000
13.461554110000,-0.248000000000
13.469242067000,-0.236000000000
13.476930024000,-0.231000000000
13.484617981000,-0.231000000000
13.492305938000,-0.224000000000
13.499993895000,-0.209000000000
13.507681852000,-0.192000000000
13.515369809000,-0.179000000000
13.523057766000,-0.172000000000
13.530745723000,-0.164000000000
13.538433680000,-0.157000000000
13.546121637000,-0.147000000000
13.553809594000,-0.145000000000
13.561497551000,-0.145000000000
13.569185508000,-0.135000000000
13.576873465000,-0.128000000000
13.584561422000,-0.132000000000
13.592249379000,-0.132000000000
13.599937336000,-0.125000000000
13.607625293000,-0.120000000000
13.615313250000,-0.123000000000
13.623001207000,-0.123000000000
13.630689164000,-0.128000000000
13.638377121000,-0.125000000000
13.646065078000,-0.115000000000
13.653753035000,-0.110000000000
13.661440992000,-0.123000000000
13.669128949000,-0.132000000000
13.676816906000,-0.123000000000
13.684504863000,-0.105000000000
13.692192820000,-0.103000000000
13.699880777000,-0.100000000000
13.707568734000,-0.088000000000
13.715256691000,-0.078000000000
13.722944648000,-0.083000000000
13.730632605000,-0.100000000000
13.738320562000,-0.113000000000
13.746008519000,-0.108000000000
13.753696476000,-0.108000000000
13.761384433000,-0.108000000000
13.769072390000,-0.096000000000
13.776760347000,-0.093000000000
13.784448304000,-0.100000000000
13.792136261000,-0.108000000000
13.799824218000,-0.155000000000
13.807512175000,-0.253000000000
13.815200132000,-0.189000000000
13.822888089000,0.337000000000
13.830576046000,1.179000000000
13.838264003000,1.792000000000
13.845951960000,1.531000000000
13.853639917000,0.283000000000
13.861327874000,-0.620000000000
13.869015831000,-0.366000000000
13.876703788000,-0.096000000000
13.884391745000,-0.263000000000
13.892079702000,-0.253000000000
13.899767659000,-0.145000000000
13.907455616000,-0.177000000000
13.915143573000,-0.184000000000
13.922831530000,-0.132000000000
13.930519487000,-0.120000000000
13.938207444000,-0.115000000000
13.945895401000,-0.086000000000
13.953583358000,-0.066000000000
13.961271315000,-0.054000000000
13.968959272000,-0.032000000000
13.976647229000,-0.012000000000
13.984335186000,0.007000000000
13.992023215000,0.029000000000
13.999711172000,0.054000000000
14.007399129000,0.076000000000
14.015087086000,0.105000000000
14.022775043000,0.132000000000
14.030463000000,0.155000000000
14.038150957000,0.174000000000
14.045838914000,0.177000000000
14.053526871000,0.172000000000
14.061214828000,0.169000000000
14.068902785000,0.152000000000
14.076590742000,0.123000000000
14.084278699000,0.088000000000
14.091966656000,0.029000000000
14.099654613000,-0.054000000000
14.107342570000,-0.125000000000
14.115030527000,-0.177000000000
14.122718484000,-0.216000000000
14.130406441000,-0.236000000000
14.138094398000,-0.243000000000
14.145782355000,-0.246000000000
14.153470312000,-0.238000000000
14.161158269000,-0.226000000000
14.168846226000,-0.216000000000
14.176534183000,-0.209000000000
14.184222140000,-0.196000000000
14.191910097000,-0.184000000000
14.199598054000,-0.172000000000
14.207286011000,-0.164000000000
14.214973968000,-0.162000000000
14.222661925000,-0.155000000000
14.230349882000,-0.145000000000
14.238037839000,-0.142000000000
14.245725796000,-0.140000000000
14.253413753000,-0.135000000000
14.261101710000,-0.135000000000
14.268789667000,-0.135000000000
14.276477624000,-0.128000000000
14.284165581000,-0.125000000000
14.291853538000,-0.130000000000
14.299541495000,-0.130000000000
14.307229452000,-0.128000000000
14.314917409000,-0.120000000000
14.322605366000,-0.120000000000
14.330293323000,-0.125000000000
14.337981280000,-0.128000000000
14.345669237000,-0.132000000000
14.353357194000,-0.137000000000
14.361045151000,-0.125000000000
14.368733108000,-0.110000000000
14.376421065000,-0.105000000000
14.384109022000,-0.105000000000
14.391796979000,-0.096000000000
14.399484936000,-0.083000000000
14.407172893000,-0.086000000000
14.414860850000,-0.113000000000
14.422548807000,-0.123000000000
14.430236764000,-0.110000000000
14.437924721000,-0.105000000000
14.445612678000,-0.108000000000
14.453300635000,-0.100000000000
14.460988592000,-0.098000000000
14.468676549000,-0.105000000000
14.476364506000,-0.132000000000
14.484052463000,-0.204000000000
14.491740420000,-0.268000000000
14.499428377000,-0.049000000000
14.507116334000,0.642000000000
14.514804291000,1.474000000000
14.522492248000,1.831000000000
14.530180205000,1.102000000000
14.537868162000,-0.231000000000
14.545556119000,-0.620000000000
14.553244148000,-0.179000000000
14.560932105000,-0.135000000000
14.568620062000,-0.302000000000
14.576308019000,-0.219000000000
14.583995976000,-0.157000000000
14.591683933000,-0.199000000000
14.599371890000,-0.177000000000
14.607059847000,-0.137000000000
14.614747804000,-0.135000000000
14.622435761000,-0.118000000000
14.630123718000,-0.088000000000
14.637811675000,-0.076000000000
14.645499632000,-0.059000000000
14.653187589000,-0.036000000000
14.660875546000,-0.022000000000
14.668563503000,-0.004000000000
14.676251460000,0.024000000000
14.683939417000,0.046000000000
14.691627374000,0.068000000000
14.699315331000,0.098000000000
14.707003288000,0.125000000000
14.714691245000,0.140000000000
14.722379202000,0.152000000000
14.730067159000,0.160000000000
14.737755116000,0.155000000000
14.745443073000,0.145000000000
14.753131030000,0.132000000000
14.760818987000,0.105000000000
14.768506944000,0.054000000000
14.776194901000,-0.014000000000
14.783882858000,-0.088000000000
14.791570815000,-0.157000000000
14.799258772000,-0.206000000000
14.806946729000,-0.236000000000
14.814634686000,-0.253000000000
14.822322643000,-0.260000000000
14.830010600000,-0.253000000000
14.837698557000,-0.246000000000
14.845386514000,-0.236000000000
14.853074471000,-0.226000000000
14.860762428000,-0.221000000000
14.868450385000,-0.211000000000
14.876138342000,-0.194000000000
14.883826299000,-0.189000000000
14.891514256000,-0.187000000000
14.899202213000,-0.177000000000
14.906890170000,-0.172000000000
14.914578127000,-0.169000000000
14.922266084000,-0.162000000000
14.929954041000,-0.160000000000
14.937641998000,-0.160000000000
14.945329955000,-0.160000000000
14.953017912000,-0.155000000000
14.960705869000,-0.155000000000
14.968393826000,-0.152000000000
14.976081783000,-0.147000000000
14.983769740000,-0.147000000000
14.991457697000,-0.150000000000
14.999145654000,-0.147000000000
15.006833611000,-0.140000000000
15.014521568000,-0.135000000000
15.022209525000,-0.135000000000
15.029897482000,-0.142000000000
15.037585439000,-0.152000000000
15.045273396000,-0.152000000000
15.052961353000,-0.137000000000
15.060649310000,-0.120000000000
15.068337267000,-0.113000000000
15.076025224000,-0.110000000000
15.083713181000,-0.098000000000
15.091401138000,-0.091000000000
15.099089095000,-0.108000000000
15.106777052000,-0.132000000000
15.114465081000,-0.132000000000
15.122153039000,-0.120000000000
15.129840997000,-0.118000000000
15.137528955000,-0.120000000000
15.145216913000,-0.115000000000
15.152904871000,-0.108000000000
15.160592829000,-0.123000000000
15.168280787000,-0.164000000000
15.175968745000,-0.248000000000
15.183656703000,-0.270000000000
15.191344661000,0.088000000000
15.199032619000,0.901000000000
15.206720577000,1.710000000000
15.214408535000,1.760000000000
15.222096493000,0.644000000000
15.229784451000,-0.519000000000
15.237472409000,-0.492000000000
15.245160367000,-0.110000000000
15.252848325000,-0.221000000000
15.260536283000,-0.300000000000
15.268224241000,-0.192000000000
15.275912199000,-0.184000000000
15.283600157000,-0.209000000000
15.291288115000,-0.162000000000
15.298976073000,-0.137000000000
15.306664031000,-0.135000000000
15.314351989000,-0.108000000000
15.322039947000,-0.088000000000
15.329727905000,-0.078000000000
15.337415863000,-0.061000000000
15.345103821000,-0.039000000000
15.352791779000,-0.014000000000
15.360479737000,0.007000000000
15.368167695000,0.029000000000
15.375855653000,0.056000000000
15.383543611000,0.086000000000
15.391231569000,0.113000000000
15.398919527000,0.142000000000
15.406607485000,0.164000000000
15.414295443000,0.174000000000
15.421983401000,0.177000000000
15.429671359000,0.174000000000
15.437359317000,0.160000000000
15.445047275000,0.137000000000
15.452735233000,0.105000000000
15.460423191000,0.044000000000
15.468111149000,-0.036000000000
15.475799107000,-0.110000000000
15.483487065000,-0.167000000000
15.491175023000,-0.216000000000
15.498862981000,-0.248000000000
15.506550939000,-0.258000000000
15.514238897000,-0.260000000000
15.521926855000,-0.256000000000
15.529614813000,-0.238000000000
15.537302771000,-0.228000000000
15.544990729000,-0.221000000000
15.552678687000,-0.209000000000
15.560366645000,-0.199000000000
15.568054603000,-0.187000000000
15.575742561000,-0.179000000000
15.583430519000,-0.172000000000
15.591118477000,-0.167000000000
15.598806435000,-0.164000000000
15.606494393000,-0.162000000000
15.614182351000,-0.157000000000
15.621870309000,-0.152000000000
15.629558267000,-0.152000000000
15.637246225000,-0.152000000000
15.644934183000,-0.150000000000
15.652622141000,-0.150000000000
15.660310099000,-0.147000000000
15.667998057000,-0.142000000000
15.675686018000,-0.140000000000
15.683374115000,-0.137000000000
15.691062212000,-0.135000000000
15.698750309000,-0.130000000000
15.706438406000,-0.130000000000
15.714126503000,-0.128000000000
15.721814600000,-0.128000000000
15.729502697000,-0.130000000000
15.737190794000,-0.140000000000
15.744878891000,-0.142000000000
15.752566988000,-0.128000000000
15.760255085000,-0.108000000000
15.767943182000,-0.098000000000
15.775631279000,-0.096000000000
15.783319376000,-0.083000000000
15.791007473000,-0.076000000000
15.798695570000,-0.098000000000
15.806383667000,-0.120000000000
15.814071764000,-0.118000000000
15.821759861000,-0.113000000000
15.829447958000,-0.110000000000
15.837136055000,-0.105000000000
15.844824152000,-0.098000000000
15.852512249000,-0.096000000000
15.860200346000,-0.108000000000
15.867888443000,-0.152000000000
15.875576540000,-0.243000000000
15.883264637000,-0.260000000000
15.890952734000,0.103000000000
15.898640831000,0.918000000000
15.906328928000,1.725000000000
15.914017025000,1.747000000000
15.921705122000,0.605000000000
15.929393219000,-0.524000000000
15.937081316000,-0.457000000000
15.944769413000,-0.103000000000
15.952457510000,-0.226000000000
15.960145607000,-0.280000000000
15.967833704000,-0.169000000000
15.975521801000,-0.174000000000
15.983209898000,-0.196000000000
15.990897995000,-0.145000000000
15.998586092000,-0.120000000000
16.006274189000,-0.125000000000
16.013962286000,-0.100000000000
16.021650383000,-0.071000000000
16.029338480000,-0.059000000000
16.037026577000,-0.046000000000
16.044714674000,-0.022000000000
16.052402771000,-0.002000000000
16.060090868000,0.017000000000
16.067778965000,0.041000000000
16.075467062000,0.068000000000
16.083155159000,0.098000000000
16.090843256000,0.130000000000
16.098531353000,0.157000000000
16.106219450000,0.172000000000
16.113907547000,0.184000000000
16.121595644000,0.192000000000
16.129283741000,0.179000000000
16.136971838000,0.167000000000
16.144659935000,0.150000000000
16.152348032000,0.113000000000
16.160036129000,0.054000000000
16.167724226000,-0.017000000000
16.175412323000,-0.096000000000
16.183100420000,-0.162000000000
16.190788517000,-0.206000000000
16.198476614000,-0.231000000000
16.206164711000,-0.246000000000
16.213852808000,-0.248000000000
16.221540905000,-0.243000000000
16.229229002000,-0.231000000000
16.236917125000,-0.221000000000
16.244604943000,-0.209000000000
16.252292761000,-0.196000000000
16.259980579000,-0.189000000000
16.267668397000,-0.182000000000
16.275356215000,-0.167000000000
16.283044033000,-0.162000000000
16.290731851000,-0.162000000000
16.298419669000,-0.155000000000
16.306107487000,-0.147000000000
16.313795305000,-0.147000000000
16.321483123000,-0.145000000000
16.329170941000,-0.140000000000
16.336858759000,-0.140000000000
16.344546577000,-0.142000000000
16.352234395000,-0.137000000000
16.359922213000,-0.132000000000
16.367610031000,-0.135000000000
16.375297849000,-0.137000000000
16.382985667000,-0.128000000000
16.390673485000,-0.123000000000
16.398361303000,-0.128000000000
16.406049121000,-0.130000000000
16.413736939000,-0.123000000000
16.421424757000,-0.118000000000
16.429112575000,-0.120000000000
16.436800393000,-0.125000000000
16.444488211000,-0.132000000000
16.452176029000,-0.128000000000
16.459863847000,-0.103000000000
16.467551665000,-0.083000000000
16.475239483000,-0.081000000000
16.482927301000,-0.081000000000
16.490615119000,-0.073000000000
16.498302937000,-0.076000000000
16.505990755000,-0.096000000000
16.513678573000,-0.108000000000
16.521366391000,-0.105000000000
16.529054209000,-0.100000000000
16.536742027000,-0.096000000000
16.544429845000,-0.086000000000
16.552117663000,-0.078000000000
16.559805481000,-0.081000000000
16.567493299000,-0.108000000000
16.575181117000,-0.172000000000
16.582868935000,-0.258000000000
16.590556753000,-0.167000000000
16.598244571000,0.388000000000
16.605932389000,1.277000000000
16.613620207000,1.893000000000
16.621308025000,1.447000000000
16.628995843000,0.081000000000
16.636683661000,-0.608000000000
16.644371479000,-0.243000000000
16.652059297000,-0.086000000000
16.659747115000,-0.273000000000
16.667434933000,-0.228000000000
16.675122751000,-0.137000000000
16.682810569000,-0.179000000000
16.690498387000,-0.169000000000
16.698186205000,-0.110000000000
16.705874023000,-0.098000000000
16.713561841000,-0.091000000000
16.721249659000,-0.061000000000
16.728937477000,-0.046000000000
16.736625295000,-0.032000000000
16.744313113000,-0.009000000000
16.752000931000,0.000000000000
16.759688749000,0.019000000000
16.767376567000,0.054000000000
16.775064385000,0.081000000000
16.782752203000,0.103000000000
16.790440021000,0.135000000000
16.798127884000,0.167000000000
16.805816120000,0.189000000000
16.813504356000,0.206000000000
16.821192592000,0.214000000000
16.828880828000,0.204000000000
16.836569064000,0.194000000000
16.844257300000,0.187000000000
16.851945536000,0.162000000000
16.859633772000,0.120000000000
16.867322008000,0.051000000000
16.875010244000,-0.029000000000
16.882698480000,-0.108000000000
16.890386716000,-0.167000000000
16.898074952000,-0.204000000000
16.905763188000,-0.226000000000
16.913451424000,-0.231000000000
16.921139660000,-0.236000000000
16.928827896000,-0.236000000000
16.936516132000,-0.216000000000
16.944204368000,-0.201000000000
16.951892604000,-0.194000000000
16.959580840000,-0.189000000000
16.967269076000,-0.174000000000
16.974957312000,-0.155000000000
16.982645548000,-0.152000000000
16.990333784000,-0.152000000000
16.998022020000,-0.145000000000
17.005710256000,-0.135000000000
17.013398492000,-0.128000000000
17.021086728000,-0.125000000000
17.028774964000,-0.128000000000
17.036463200000,-0.128000000000
17.044151436000,-0.123000000000
17.051839672000,-0.123000000000
17.059527908000,-0.120000000000
17.067216144000,-0.115000000000
17.074904380000,-0.118000000000
17.082592616000,-0.118000000000
17.090280852000,-0.113000000000
17.097969088000,-0.118000000000
17.105657324000,-0.108000000000
17.113345560000,-0.093000000000
17.121033796000,-0.113000000000
17.128722032000,-0.135000000000
17.136410268000,-0.123000000000
17.144098504000,-0.096000000000
17.151786740000,-0.086000000000
17.159474976000,-0.088000000000
17.167163212000,-0.086000000000
17.174851448000,-0.068000000000
17.182539684000,-0.059000000000
17.190227920000,-0.076000000000
17.197916156000,-0.096000000000
17.205604392000,-0.100000000000
17.213292628000,-0.096000000000
17.220980864000,-0.091000000000
17.228669100000,-0.083000000000
17.236357336000,-0.078000000000
17.244045572000,-0.086000000000
17.251733808000,-0.091000000000
17.259422044000,-0.120000000000
17.267110280000,-0.216000000000
17.274798516000,-0.256000000000
17.282486752000,0.076000000000
17.290174988000,0.873000000000
17.297863224000,1.698000000000
17.305551460000,1.821000000000
17.313239696000,0.775000000000
17.320927932000,-0.448000000000
17.328616168000,-0.489000000000
17.336304404000,-0.100000000000
17.343992640000,-0.192000000000
17.351680876000,-0.256000000000
17.359369165000,-0.152000000000
17.367056844000,-0.160000000000
17.374744523000,-0.169000000000
17.382432202000,-0.113000000000
17.390119881000,-0.093000000000
17.397807560000,-0.100000000000
17.405495239000,-0.081000000000
17.413182918000,-0.054000000000
17.420870597000,-0.034000000000
17.428558276000,-0.017000000000
17.436245955000,0.009000000000
17.443933634000,0.029000000000
17.451621313000,0.046000000000
17.459308992000,0.078000000000
17.466996671000,0.113000000000
17.474684350000,0.135000000000
17.482372029000,0.162000000000
17.490059708000,0.199000000000
17.497747387000,0.228000000000
17.505435066000,0.231000000000
17.513122745000,0.221000000000
17.520810424000,0.216000000000
17.528498103000,0.214000000000
17.536185782000,0.192000000000
17.543873461000,0.135000000000
17.551561140000,0.073000000000
17.559248819000,0.009000000000
17.566936498000,-0.076000000000
17.574624177000,-0.150000000000
17.582311856000,-0.201000000000
17.589999535000,-0.238000000000
17.597687214000,-0.243000000000
17.605374893000,-0.226000000000
17.613062572000,-0.236000000000
17.620750251000,-0.241000000000
17.628437930000,-0.216000000000
17.636125609000,-0.196000000000
17.643813288000,-0.192000000000
17.651500967000,-0.179000000000
17.659188646000,-0.172000000000
17.666876325000,-0.177000000000
17.674564004000,-0.160000000000
17.682251683000,-0.140000000000
17.689939362000,-0.140000000000
17.697627041000,-0.142000000000
17.705314720000,-0.130000000000
17.713002399000,-0.123000000000
17.720690078000,-0.130000000000
17.728377757000,-0.125000000000
17.736065436000,-0.115000000000
17.743753115000,-0.125000000000
17.751440794000,-0.130000000000
17.759128473000,-0.120000000000
17.766816152000,-0.120000000000
17.774503831000,-0.118000000000
17.782191510000,-0.115000000000
17.789879189000,-0.128000000000
17.797566868000,-0.132000000000
17.805254547000,-0.125000000000
17.812942226000,-0.128000000000
17.820629905000,-0.120000000000
17.828317584000,-0.100000000000
17.836005263000,-0.096000000000
17.843692942000,-0.098000000000
17.851380621000,-0.083000000000
17.859068300000,-0.078000000000
17.866755979000,-0.103000000000
17.874443658000,-0.115000000000
17.882131337000,-0.108000000000
17.889819016000,-0.105000000000
17.897506695000,-0.108000000000
17.905194374000,-0.105000000000
17.912882053000,-0.096000000000
17.920569750000,-0.098000000000
17.928257707000,-0.120000000000
17.935945664000,-0.179000000000
17.943633621000,-0.265000000000
17.951321578000,-0.155000000000
17.959009535000,0.423000000000
17.966697492000,1.287000000000
17.974385449000,1.846000000000
17.982073406000,1.430000000000
17.989761363000,0.113000000000
17.997449320000,-0.637000000000
18.005137277000,-0.310000000000
18.012825234000,-0.115000000000
18.020513191000,-0.280000000000
18.028201148000,-0.241000000000
18.035889105000,-0.155000000000
18.043577062000,-0.192000000000
18.051265019000,-0.184000000000
18.058952976000,-0.128000000000
18.066640933000,-0.123000000000
18.074328890000,-0.118000000000
18.082016847000,-0.086000000000
18.089704804000,-0.071000000000
18.097392761000,-0.064000000000
18.105080718000,-0.041000000000
18.112768675000,-0.017000000000
18.120456632000,0.000000000000
18.128144589000,0.024000000000
18.135832546000,0.051000000000
18.143520503000,0.073000000000
18.151208460000,0.098000000000
18.158896417000,0.130000000000
18.166584374000,0.155000000000
18.174272331000,0.164000000000
18.181960288000,0.169000000000
18.189648245000,0.167000000000
18.197336202000,0.160000000000
18.205024159000,0.140000000000
18.212712116000,0.113000000000
18.220400073000,0.073000000000
18.228088030000,0.004000000000
18.235775987000,-0.078000000000
18.243463944000,-0.140000000000
18.251151901000,-0.187000000000
18.258839858000,-0.226000000000
18.266527815000,-0.246000000000
18.274215772000,-0.248000000000
18.281903729000,-0.248000000000
18.289591686000,-0.241000000000
18.297279643000,-0.228000000000
18.304967600000,-0.221000000000
18.312655557000,-0.206000000000
18.320343514000,-0.194000000000
18.328031471000,-0.187000000000
18.335719428000,-0.177000000000
18.343407385000,-0.169000000000
18.351095342000,-0.162000000000
18.358783299000,-0.152000000000
18.366471256000,-0.147000000000
18.374159213000,-0.145000000000
18.381847170000,-0.142000000000
18.389535127000,-0.137000000000
18.397223084000,-0.137000000000
18.404911041000,-0.137000000000
18.412598998000,-0.135000000000
18.420286955000,-0.132000000000
18.427974912000,-0.135000000000
18.435662869000,-0.132000000000
18.443350826000,-0.130000000000
18.451038783000,-0.128000000000
18.458726740000,-0.128000000000
18.466414697000,-0.130000000000
18.474102654000,-0.137000000000
18.481790683000,-0.142000000000
18.489478710000,-0.140000000000
18.497166737000,-0.128000000000
18.504854764000,-0.115000000000
18.512542791000,-0.110000000000
18.520230818000,-0.105000000000
18.527918845000,-0.091000000000
18.535606872000,-0.078000000000
18.543294899000,-0.098000000000
18.550982926000,-0.125000000000
18.558670953000,-0.128000000000
18.566358980000,-0.115000000000
18.574047007000,-0.113000000000
18.581735034000,-0.113000000000
18.589423061000,-0.105000000000
18.597111088000,-0.103000000000
18.604799115000,-0.118000000000
18.612487142000,-0.162000000000
18.620175169000,-0.251000000000
18.627863196000,-0.236000000000
18.635551223000,0.196000000000
18.643239250000,1.033000000000
18.650927277000,1.769000000000
18.658615304000,1.698000000000
18.666303331000,0.509000000000
18.673991358000,-0.573000000000
18.681679385000,-0.440000000000
18.689367412000,-0.086000000000
18.697055439000,-0.238000000000
18.704743466000,-0.297000000000
18.712431493000,-0.179000000000
18.720119520000,-0.184000000000
18.727807547000,-0.206000000000
18.735495574000,-0.152000000000
18.743183601000,-0.130000000000
18.750871628000,-0.130000000000
18.758559655000,-0.103000000000
18.766247682000,-0.078000000000
18.773935709000,-0.071000000000
18.781623736000,-0.054000000000
18.789311763000,-0.029000000000
18.796999790000,-0.012000000000
18.804687817000,0.009000000000
18.812375844000,0.034000000000
18.820063871000,0.059000000000
18.827751898000,0.088000000000
18.835439925000,0.115000000000
18.843127952000,0.137000000000
18.850815979000,0.157000000000
18.858504006000,0.169000000000
18.866192033000,0.169000000000
18.873880060000,0.160000000000
18.881568087000,0.152000000000
18.889256114000,0.132000000000
18.896944141000,0.091000000000
18.904632168000,0.029000000000
18.912320195000,-0.044000000000
18.920008222000,-0.118000000000
18.927696249000,-0.177000000000
18.935384276000,-0.219000000000
18.943072303000,-0.241000000000
18.950760330000,-0.251000000000
18.958448357000,-0.248000000000
18.966136384000,-0.238000000000
18.973824411000,-0.228000000000
18.981512438000,-0.219000000000
18.989200465000,-0.211000000000
18.996888492000,-0.199000000000
19.004576519000,-0.187000000000
19.012264546000,-0.177000000000
19.019952573000,-0.169000000000
19.027640600000,-0.164000000000
19.035328627000,-0.157000000000
19.043016707000,-0.152000000000
19.050704734000,-0.150000000000
19.058392761000,-0.147000000000
19.066080788000,-0.147000000000
19.073768815000,-0.145000000000
19.081456842000,-0.142000000000
19.089144869000,-0.140000000000
19.096832896000,-0.137000000000
19.104520923000,-0.137000000000
19.112208950000,-0.135000000000
19.119896977000,-0.132000000000
19.127585004000,-0.132000000000
19.135273031000,-0.130000000000
19.142961058000,-0.128000000000
19.150649085000,-0.132000000000
19.158337112000,-0.135000000000
19.166025139000,-0.140000000000
19.173713166000,-0.137000000000
19.181401193000,-0.120000000000
19.189089220000,-0.105000000000
19.196777247000,-0.108000000000
19.204465274000,-0.103000000000
19.212153301000,-0.083000000000
19.219841328000,-0.076000000000
19.227529355000,-0.098000000000
19.235217382000,-0.123000000000
19.242905409000,-0.120000000000
19.250593436000,-0.108000000000
19.258281463000,-0.103000000000
19.265969490000,-0.103000000000
19.273657517000,-0.100000000000
19.281345544000,-0.098000000000
19.289033571000,-0.113000000000
19.296721598000,-0.155000000000
19.304409625000,-0.243000000000
19.312097652000,-0.246000000000
19.319785679000,0.179000000000
19.327473706000,1.031000000000
19.335161733000,1.789000000000
19.342849760000,1.703000000000
19.350537787000,0.497000000000
19.358225814000,-0.571000000000
19.365913841000,-0.428000000000
19.373601868000,-0.086000000000
19.381289895000,-0.238000000000
19.388977922000,-0.288000000000
19.396665949000,-0.172000000000
19.404353976000,-0.182000000000
19.412042003000,-0.199000000000
19.419730030000,-0.147000000000
19.427418057000,-0.125000000000
19.435106084000,-0.123000000000
19.442794111000,-0.098000000000
19.450482138000,-0.076000000000
19.458170165000,-0.061000000000
19.465858192000,-0.041000000000
19.473546219000,-0.024000000000
19.481234246000,-0.002000000000
19.488922273000,0.019000000000
19.496610300000,0.041000000000
19.504298327000,0.068000000000
19.511986354000,0.098000000000
19.519674381000,0.128000000000
19.527362408000,0.152000000000
19.535050435000,0.172000000000
19.542738462000,0.182000000000
19.550426489000,0.179000000000
19.558114516000,0.172000000000
19.565802543000,0.160000000000
19.573490570000,0.137000000000
19.581178597000,0.098000000000
19.588866624000,0.034000000000
19.596554651000,-0.041000000000
19.604242727000,-0.118000000000
19.611930754000,-0.179000000000
19.619618781000,-0.219000000000
19.627306808000,-0.243000000000
19.634994835000,-0.256000000000
19.642682862000,-0.251000000000
19.650370889000,-0.243000000000
19.658058916000,-0.233000000000
19.665746943000,-0.221000000000
19.673434970000,-0.209000000000
19.681122997000,-0.201000000000
19.688811024000,-0.192000000000
19.696499051000,-0.177000000000
19.704187078000,-0.167000000000
19.711875105000,-0.164000000000
19.719563132000,-0.162000000000
19.727251159000,-0.157000000000
19.734939186000,-0.147000000000
19.742627213000,-0.145000000000
19.750315240000,-0.147000000000
19.758003267000,-0.145000000000
19.765691294000,-0.140000000000
19.773379321000,-0.140000000000
19.781067348000,-0.140000000000
19.788755375000,-0.140000000000
19.796443402000,-0.135000000000
19.804131429000,-0.132000000000
19.811819456000,-0.130000000000
19.819507483000,-0.128000000000
19.827195510000,-0.125000000000
19.834883537000,-0.123000000000
19.842571564000,-0.120000000000
19.850259591000,-0.120000000000
19.857947618000,-0.128000000000
19.865635645000,-0.132000000000
19.873323672000,-0.125000000000
19.881011699000,-0.108000000000
19.888699726000,-0.100000000000
19.896387753000,-0.098000000000
19.904075780000,-0.091000000000
19.911763807000,-0.073000000000
19.919451834000,-0.073000000000
19.927139861000,-0.103000000000
19.934827888000,-0.120000000000
19.942515915000,-0.108000000000
19.950203942000,-0.098000000000
19.957891969000,-0.098000000000
19.965579996000,-0.096000000000
19.973268023000,-0.091000000000
19.980956050000,-0.091000000000
19.988644077000,-0.118000000000
19.996332104000,-0.182000000000
20.004020131000,-0.265000000000
20.011708158000,-0.155000000000
20.019396185000,0.430000000000
20.027084212000,1.314000000000
20.034772239000,1.880000000000
20.042460266000,1.395000000000
20.050148293000,0.039000000000
20.057836320000,-0.627000000000
20.065524347000,-0.256000000000
20.073212374000,-0.096000000000
20.080900401000,-0.278000000000
20.088588428000,-0.236000000000
20.096276455000,-0.147000000000
20.103964482000,-0.187000000000
20.111652509000,-0.177000000000
20.119340536000,-0.123000000000
20.127028563000,-0.113000000000
20.134716590000,-0.110000000000
20.142404617000,-0.083000000000
20.150092644000,-0.064000000000
20.157780671000,-0.049000000000
20.165468747000,-0.027000000000
20.173156774000,-0.007000000000
20.180844801000,0.007000000000
20.188532828000,0.032000000000
20.196220855000,0.061000000000
20.203908882000,0.086000000000
20.211596909000,0.110000000000
20.219284936000,0.137000000000
20.226972963000,0.164000000000
20.234660990000,0.177000000000
20.242349017000,0.182000000000
20.250037044000,0.179000000000
20.257725071000,0.172000000000
20.265413098000,0.155000000000
20.273101125000,0.130000000000
20.280789152000,0.086000000000
20.288477179000,0.017000000000
20.296165206000,-0.059000000000
20.303853233000,-0.125000000000
20.311541260000,-0.179000000000
20.319229287000,-0.216000000000
20.326917314000,-0.236000000000
20.334605341000,-0.241000000000
20.342293368000,-0.238000000000
20.349981395000,-0.231000000000
20.357669422000,-0.219000000000
20.365357449000,-0.206000000000
20.373045476000,-0.194000000000
20.380733503000,-0.182000000000
20.388421530000,-0.172000000000
20.396109557000,-0.167000000000
20.403797584000,-0.162000000000
20.411485611000,-0.152000000000
20.419173638000,-0.150000000000
20.426861665000,-0.147000000000
20.434549692000,-0.135000000000
20.442237719000,-0.130000000000
20.449925746000,-0.132000000000
20.457613773000,-0.132000000000
20.465301800000,-0.128000000000
20.472989827000,-0.128000000000
20.480677854000,-0.128000000000
20.488365881000,-0.125000000000
20.496053908000,-0.123000000000
20.503741935000,-0.123000000000
20.511429962000,-0.118000000000
20.519117989000,-0.110000000000
20.526806016000,-0.110000000000
20.534494043000,-0.110000000000
20.542182070000,-0.105000000000
20.549870097000,-0.103000000000
20.557558124000,-0.110000000000
20.565246151000,-0.118000000000
20.572934178000,-0.115000000000
20.580622205000,-0.105000000000
20.588310232000,-0.096000000000
20.595998259000,-0.083000000000
20.603686286000,-0.076000000000
20.611374313000,-0.064000000000
20.619062340000,-0.059000000000
20.626750367000,-0.073000000000
20.634438394000,-0.091000000000
20.642126421000,-0.096000000000
20.649814448000,-0.093000000000
20.657502475000,-0.088000000000
20.665190502000,-0.081000000000
20.672878529000,-0.078000000000
20.680566556000,-0.073000000000
20.688254583000,-0.078000000000
20.695942610000,-0.115000000000
20.703630637000,-0.192000000000
20.711318664000,-0.256000000000
20.719006691000,-0.054000000000
20.726694767000,0.632000000000
20.734382794000,1.513000000000
20.742070821000,1.893000000000
20.749758848000,1.110000000000
20.757446875000,-0.238000000000
20.765134902000,-0.576000000000
20.772822929000,-0.135000000000
20.780510956000,-0.118000000000
20.788198983000,-0.265000000000
20.795887010000,-0.177000000000
20.803575037000,-0.135000000000
20.811263064000,-0.172000000000
20.818951091000,-0.135000000000
20.826639118000,-0.096000000000
20.834327145000,-0.100000000000
20.842015172000,-0.078000000000
20.849703199000,-0.046000000000
20.857391226000,-0.039000000000
20.865079253000,-0.022000000000
20.872767280000,0.009000000000
20.880455307000,0.019000000000
20.888143334000,0.027000000000
20.895831361000,0.061000000000
20.903519388000,0.098000000000
20.911207415000,0.120000000000
20.918895442000,0.145000000000
20.926583469000,0.177000000000
20.934271496000,0.196000000000
20.941959523000,0.209000000000
20.949647550000,0.216000000000
20.957335577000,0.206000000000
20.965023604000,0.184000000000
20.972711631000,0.169000000000
20.980399658000,0.145000000000
20.988087685000,0.096000000000
20.995775712000,0.029000000000
21.003463739000,-0.046000000000
21.011151766000,-0.125000000000
21.018839793000,-0.172000000000
21.026527820000,-0.196000000000
21.034215847000,-0.226000000000
21.041903874000,-0.238000000000
21.049591901000,-0.228000000000
21.057279928000,-0.216000000000
21.064967955000,-0.204000000000
21.072655982000,-0.194000000000
21.080344009000,-0.182000000000
21.088032036000,-0.162000000000
21.095720063000,-0.155000000000
21.103408090000,-0.157000000000
21.111096117000,-0.147000000000
21.118784144000,-0.142000000000
21.126472171000,-0.140000000000
21.134160198000,-0.123000000000
21.141848225000,-0.110000000000
21.149536252000,-0.115000000000
21.157224279000,-0.123000000000
21.164912306000,-0.118000000000
21.172600333000,-0.118000000000
21.180288360000,-0.123000000000
21.187976387000,-0.120000000000
21.195664414000,-0.105000000000
21.203352441000,-0.105000000000
21.211040468000,-0.110000000000
21.218728495000,-0.098000000000
21.226416522000,-0.098000000000
21.234104549000,-0.113000000000
21.241792576000,-0.113000000000
21.249480603000,-0.105000000000
21.257168630000,-0.110000000000
21.264856657000,-0.110000000000
21.272544684000,-0.096000000000
21.280232711000,-0.081000000000
21.287920787000,-0.078000000000
21.295608814000,-0.078000000000
21.303296841000,-0.061000000000
21.310984868000,-0.051000000000
21.318672895000,-0.083000000000
21.326360922000,-0.110000000000
21.334048949000,-0.091000000000
21.341736976000,-0.076000000000
21.349425003000,-0.083000000000
21.357113030000,-0.076000000000
21.364801057000,-0.071000000000
21.372489084000,-0.073000000000
21.380177111000,-0.096000000000
21.387865138000,-0.150000000000
21.395553165000,-0.214000000000
21.403241192000,-0.204000000000
21.410929219000,0.177000000000
21.418617246000,1.026000000000
21.426305273000,1.789000000000
21.433993300000,1.703000000000
21.441681327000,0.519000000000
21.449369354000,-0.546000000000
21.457057381000,-0.413000000000
21.464745408000,-0.066000000000
21.472433435000,-0.201000000000
21.480121462000,-0.238000000000
21.487809489000,-0.137000000000
21.495497516000,-0.157000000000
21.503185543000,-0.162000000000
21.510873570000,-0.105000000000
21.518561597000,-0.088000000000
21.526249624000,-0.093000000000
21.533937651000,-0.071000000000
21.541625678000,-0.041000000000
21.549313705000,-0.022000000000
21.557001732000,-0.009000000000
21.564689759000,0.004000000000
21.572377786000,0.029000000000
21.580065813000,0.059000000000
21.587753840000,0.083000000000
21.595441867000,0.108000000000
21.603129894000,0.142000000000
21.610817921000,0.169000000000
21.618505948000,0.184000000000
21.626193975000,0.201000000000
21.633882002000,0.211000000000
21.641570029000,0.204000000000
21.649258056000,0.192000000000
21.656946083000,0.169000000000
21.664634110000,0.145000000000
21.672322137000,0.100000000000
21.680010164000,0.032000000000
21.687698191000,-0.039000000000
21.695386218000,-0.113000000000
21.703074245000,-0.177000000000
21.710762272000,-0.221000000000
21.718450299000,-0.238000000000
21.726138326000,-0.243000000000
21.733826353000,-0.251000000000
21.741514380000,-0.248000000000
21.749202407000,-0.233000000000
21.756890434000,-0.219000000000
21.764578461000,-0.209000000000
21.772266488000,-0.199000000000
21.779954515000,-0.189000000000
21.787642542000,-0.184000000000
21.795330569000,-0.179000000000
21.803018596000,-0.162000000000
21.810706623000,-0.152000000000
21.818394650000,-0.155000000000
21.826082677000,-0.152000000000
21.833770704000,-0.140000000000
21.841458731000,-0.132000000000
21.849146807000,-0.132000000000
21.856834764000,-0.135000000000
21.864522721000,-0.132000000000
21.872210678000,-0.128000000000
21.879898635000,-0.130000000000
21.887586592000,-0.135000000000
21.895274549000,-0.132000000000
21.902962506000,-0.123000000000
21.910650463000,-0.123000000000
21.918338420000,-0.128000000000
21.926026377000,-0.128000000000
21.933714334000,-0.123000000000
21.941402291000,-0.125000000000
21.949090248000,-0.135000000000
21.956778205000,-0.132000000000
21.964466162000,-0.118000000000
21.972154119000,-0.105000000000
21.979842076000,-0.100000000000
21.987530033000,-0.093000000000
21.995217990000,-0.081000000000
22.002905947000,-0.078000000000
22.010593904000,-0.098000000000
22.018281861000,-0.118000000000
22.025969818000,-0.115000000000
22.033657775000,-0.105000000000
22.041345732000,-0.108000000000
22.049033689000,-0.103000000000
22.056721646000,-0.091000000000
22.064409603000,-0.098000000000
22.072097560000,-0.118000000000
22.079785517000,-0.167000000000
22.087473474000,-0.253000000000
22.095161431000,-0.174000000000
22.102849388000,0.371000000000
22.110537345000,1.228000000000
22.118225302000,1.821000000000
22.125913259000,1.467000000000
22.133601216000,0.167000000000
22.141289173000,-0.630000000000
22.148977130000,-0.315000000000
22.156665087000,-0.088000000000
22.164353044000,-0.268000000000
22.172041001000,-0.253000000000
22.179728958000,-0.155000000000
22.187416915000,-0.187000000000
22.195104872000,-0.187000000000
22.202792829000,-0.132000000000
22.210480786000,-0.125000000000
22.218168743000,-0.118000000000
22.225856700000,-0.088000000000
22.233544657000,-0.073000000000
22.241232614000,-0.061000000000
22.248920571000,-0.041000000000
22.256608528000,-0.022000000000
22.264296485000,0.000000000000
22.271984442000,0.022000000000
22.279672399000,0.039000000000
22.287360356000,0.064000000000
22.295048313000,0.093000000000
22.302736270000,0.120000000000
22.310424227000,0.140000000000
22.318112184000,0.150000000000
22.325800141000,0.152000000000
22.333488098000,0.150000000000
22.341176055000,0.145000000000
22.348864012000,0.135000000000
22.356551969000,0.110000000000
22.364239926000,0.073000000000
22.371927883000,0.012000000000
22.379615840000,-0.064000000000
22.387303797000,-0.132000000000
22.394991754000,-0.182000000000
22.402679711000,-0.214000000000
22.410367740000,-0.236000000000
22.418055697000,-0.243000000000
22.425743654000,-0.238000000000
22.433431611000,-0.228000000000
22.441119568000,-0.221000000000
22.448807525000,-0.211000000000
22.456495482000,-0.196000000000
22.464183439000,-0.189000000000
22.471871396000,-0.179000000000
22.479559353000,-0.169000000000
22.487247310000,-0.164000000000
22.494935267000,-0.160000000000
22.502623224000,-0.152000000000
22.510311181000,-0.150000000000
22.517999138000,-0.147000000000
22.525687095000,-0.140000000000
22.533375052000,-0.140000000000
22.541063009000,-0.142000000000
22.548750966000,-0.140000000000
22.556438923000,-0.135000000000
22.564126880000,-0.135000000000
22.571814837000,-0.135000000000
22.579502794000,-0.135000000000
22.587190751000,-0.132000000000
22.594878708000,-0.128000000000
22.602566665000,-0.123000000000
22.610254622000,-0.123000000000
22.617942579000,-0.120000000000
22.625630536000,-0.115000000000
22.633318493000,-0.113000000000
22.641006450000,-0.118000000000
22.648694407000,-0.128000000000
22.656382364000,-0.132000000000
22.664070321000,-0.125000000000
22.671758278000,-0.110000000000
22.679446235000,-0.096000000000
22.687134192000,-0.093000000000
22.694822149000,-0.086000000000
22.702510106000,-0.071000000000
22.710198063000,-0.076000000000
22.717886020000,-0.103000000000
22.725573977000,-0.118000000000
22.733261934000,-0.110000000000
22.740949891000,-0.103000000000
22.748637848000,-0.100000000000
22.756325805000,-0.098000000000
22.764013762000,-0.093000000000
22.771701719000,-0.098000000000
22.779389676000,-0.125000000000
22.787077633000,-0.201000000000
22.794765590000,-0.275000000000
22.802453547000,-0.066000000000
22.810141504000,0.640000000000
22.817829461000,1.518000000000
22.825517418000,1.878000000000
22.833205375000,1.088000000000
22.840893332000,-0.253000000000
22.848581289000,-0.588000000000
22.856269246000,-0.152000000000
22.863957203000,-0.137000000000
22.871645160000,-0.292000000000
22.879333117000,-0.204000000000
22.887021074000,-0.155000000000
22.894709031000,-0.194000000000
22.902396988000,-0.160000000000
22.910084945000,-0.118000000000
22.917772902000,-0.120000000000
22.925460859000,-0.105000000000
22.933148816000,-0.073000000000
22.940836773000,-0.061000000000
22.948524730000,-0.044000000000
22.956212687000,-0.022000000000
22.963900644000,-0.002000000000
22.971588673000,0.014000000000
22.979276630000,0.036000000000
22.986964587000,0.061000000000
22.994652544000,0.088000000000
23.002340501000,0.113000000000
23.010028458000,0.137000000000
23.017716415000,0.160000000000
23.025404372000,0.172000000000
23.033092329000,0.174000000000
23.040780286000,0.169000000000
23.048468243000,0.157000000000
23.056156200000,0.137000000000
23.063844157000,0.110000000000
23.071532114000,0.066000000000
23.079220071000,-0.004000000000
23.086908028000,-0.081000000000
23.094595985000,-0.142000000000
23.102283942000,-0.189000000000
23.109971899000,-0.221000000000
23.117659856000,-0.231000000000
23.125347813000,-0.238000000000
23.133035770000,-0.238000000000
23.140723727000,-0.226000000000
23.148411684000,-0.214000000000
23.156099641000,-0.206000000000
23.163787598000,-0.194000000000
23.171475555000,-0.182000000000
23.179163512000,-0.174000000000
23.186851469000,-0.169000000000
23.194539426000,-0.162000000000
23.202227383000,-0.155000000000
23.209915340000,-0.150000000000
23.217603297000,-0.147000000000
23.225291254000,-0.145000000000
23.232979211000,-0.140000000000
23.240667168000,-0.132000000000
23.248355125000,-0.132000000000
23.256043082000,-0.135000000000
23.263731039000,-0.132000000000
23.271418996000,-0.128000000000
23.279106953000,-0.128000000000
23.286794910000,-0.130000000000
23.294482867000,-0.125000000000
23.302170824000,-0.120000000000
23.309858781000,-0.120000000000
23.317546738000,-0.120000000000
23.325234695000,-0.113000000000
23.332922652000,-0.110000000000
23.340610609000,-0.108000000000
23.348298566000,-0.108000000000
23.355986523000,-0.113000000000
23.363674480000,-0.120000000000
23.371362437000,-0.123000000000
23.379050394000,-0.113000000000
23.386738351000,-0.096000000000
23.394426308000,-0.088000000000
23.402114265000,-0.086000000000
23.409802222000,-0.073000000000
23.417490179000,-0.061000000000
23.425178136000,-0.073000000000
23.432866093000,-0.103000000000
23.440554050000,-0.105000000000
23.448242007000,-0.093000000000
23.455929964000,-0.093000000000
23.463617921000,-0.093000000000
23.471305878000,-0.083000000000
23.478993835000,-0.083000000000
23.486681792000,-0.098000000000
23.494369749000,-0.135000000000
23.502057706000,-0.221000000000
23.509745663000,-0.251000000000
23.517433620000,0.096000000000
23.525121577000,0.903000000000
23.532809606000,1.708000000000
23.540497563000,1.772000000000
23.548185520000,0.684000000000
23.555873477000,-0.484000000000
23.563561434000,-0.467000000000
23.571249391000,-0.083000000000
23.578937348000,-0.201000000000
23.586625305000,-0.280000000000
23.594313262000,-0.164000000000
23.602001219000,-0.160000000000
23.609689176000,-0.189000000000
23.617377133000,-0.142000000000
23.625065090000,-0.113000000000
23.632753047000,-0.115000000000
23.640441004000,-0.093000000000
23.648128961000,-0.068000000000
23.655816918000,-0.056000000000
23.663504875000,-0.039000000000
23.671192832000,-0.014000000000
23.678880789000,0.004000000000
23.686568746000,0.022000000000
23.694256703000,0.046000000000
23.701944660000,0.073000000000
23.709632617000,0.100000000000
23.717320574000,0.125000000000
23.725008531000,0.147000000000
23.732696488000,0.164000000000
23.740384445000,0.174000000000
23.748072402000,0.174000000000
23.755760359000,0.167000000000
23.763448316000,0.152000000000
23.771136273000,0.137000000000
23.778824230000,0.105000000000
23.786512187000,0.044000000000
23.794200144000,-0.024000000000
23.801888101000,-0.093000000000
23.809576058000,-0.155000000000
23.817264015000,-0.196000000000
23.824951972000,-0.219000000000
23.832639929000,-0.231000000000
23.840327886000,-0.236000000000
23.848015843000,-0.231000000000
23.855703800000,-0.221000000000
23.863391757000,-0.211000000000
23.871079714000,-0.201000000000
23.878767671000,-0.187000000000
23.886455628000,-0.172000000000
23.894143585000,-0.167000000000
23.901831542000,-0.164000000000
23.909519499000,-0.157000000000
23.917207456000,-0.147000000000
23.924895413000,-0.145000000000
23.932583370000,-0.140000000000
23.940271327000,-0.140000000000
23.947959284000,-0.135000000000
23.955647241000,-0.132000000000
23.963335198000,-0.135000000000
23.971023155000,-0.132000000000
23.978711112000,-0.128000000000
23.986399069000,-0.125000000000
23.994087026000,-0.130000000000
24.001774983000,-0.130000000000
24.009462940000,-0.125000000000
24.017150897000,-0.120000000000
24.024838854000,-0.118000000000
24.032526811000,-0.118000000000
24.040214768000,-0.115000000000
24.047902725000,-0.113000000000
24.055590682000,-0.110000000000
24.063278639000,-0.110000000000
24.070966596000,-0.115000000000
24.078654553000,-0.120000000000
24.086342510000,-0.118000000000
24.094030539000,-0.110000000000
24.101718496000,-0.096000000000
24.109406453000,-0.086000000000
24.117094410000,-0.088000000000
24.124782367000,-0.081000000000
24.132470324000,-0.066000000000
24.140158281000,-0.073000000000
24.147846238000,-0.103000000000
24.155534195000,-0.110000000000
24.163222152000,-0.098000000000
24.170910109000,-0.093000000000
24.178598066000,-0.100000000000
24.186286023000,-0.098000000000
24.193973980000,-0.088000000000
24.201661937000,-0.098000000000
24.209349894000,-0.137000000000
24.217037851000,-0.219000000000
24.224725808000,-0.258000000000
24.232413765000,0.051000000000
24.240101722000,0.834000000000
24.247789679000,1.666000000000
24.255477636000,1.794000000000
24.263165593000,0.758000000000
24.270853550000,-0.448000000000
24.278541507000,-0.492000000000
24.286229464000,-0.096000000000
24.293917421000,-0.189000000000
24.301605378000,-0.283000000000
24.309293335000,-0.169000000000
24.316981292000,-0.162000000000
24.324669249000,-0.192000000000
24.332357206000,-0.145000000000
24.340045163000,-0.118000000000
24.347733120000,-0.123000000000
24.355421077000,-0.096000000000
24.363109034000,-0.068000000000
24.370796991000,-0.059000000000
24.378484948000,-0.041000000000
24.386172905000,-0.017000000000
24.393860862000,-0.002000000000
24.401548819000,0.014000000000
24.409236776000,0.039000000000
24.416924733000,0.066000000000
24.424612690000,0.093000000000
24.432300647000,0.118000000000
24.439988604000,0.142000000000
24.447676561000,0.160000000000
24.455364518000,0.169000000000
24.463052475000,0.164000000000
24.470740432000,0.157000000000
24.478428389000,0.150000000000
24.486116346000,0.130000000000
24.493804303000,0.098000000000
24.501492260000,0.046000000000
24.509180217000,-0.027000000000
24.516868174000,-0.100000000000
24.524556131000,-0.160000000000
24.532244088000,-0.199000000000
24.539932045000,-0.226000000000
24.547620002000,-0.238000000000
24.555307959000,-0.241000000000
24.562995916000,-0.236000000000
24.570683873000,-0.231000000000
24.578371830000,-0.221000000000
24.586059787000,-0.209000000000
24.593747744000,-0.196000000000
24.601435701000,-0.187000000000
24.609123658000,-0.179000000000
24.616811615000,-0.169000000000
24.624499572000,-0.157000000000
24.632187529000,-0.155000000000
24.639875486000,-0.152000000000
24.647563443000,-0.147000000000
24.655251472000,-0.147000000000
24.662939429000,-0.145000000000
24.670627386000,-0.140000000000
24.678315343000,-0.137000000000
24.686003300000,-0.140000000000
24.693691257000,-0.140000000000
24.701379214000,-0.135000000000
24.709067171000,-0.135000000000
24.716755128000,-0.137000000000
24.724443085000,-0.135000000000
24.732131042000,-0.130000000000
24.739818999000,-0.128000000000
24.747506956000,-0.125000000000
24.755194913000,-0.125000000000
24.762882870000,-0.125000000000
24.770570827000,-0.123000000000
24.778258784000,-0.130000000000
24.785946741000,-0.135000000000
24.793634698000,-0.128000000000
24.801322655000,-0.110000000000
24.809010612000,-0.100000000000
24.816698569000,-0.098000000000
24.824386526000,-0.091000000000
24.832074483000,-0.073000000000
24.839762440000,-0.073000000000
24.847450397000,-0.103000000000
24.855138354000,-0.123000000000
24.862826311000,-0.115000000000
24.870514268000,-0.103000000000
24.878202225000,-0.100000000000
24.885890182000,-0.100000000000
24.893578139000,-0.096000000000
24.901266096000,-0.100000000000
24.908954053000,-0.125000000000
24.916642010000,-0.196000000000
24.924329967000,-0.273000000000
24.932017924000,-0.086000000000
24.939705881000,0.595000000000
24.947393838000,1.481000000000
24.955081795000,1.863000000000
24.962769752000,1.093000000000
24.970457709000,-0.241000000000
24.978145666000,-0.590000000000
24.985833623000,-0.169000000000
24.993521580000,-0.145000000000
25.001209537000,-0.288000000000
25.008897494000,-0.199000000000
25.016585451000,-0.155000000000
25.024273408000,-0.194000000000
25.031961365000,-0.162000000000
25.039649322000,-0.123000000000
25.047337279000,-0.125000000000
25.055025236000,-0.108000000000
25.062713193000,-0.073000000000
25.070401150000,-0.056000000000
25.078089107000,-0.044000000000
25.085777064000,-0.032000000000
25.093465021000,-0.009000000000
25.101152978000,0.019000000000
25.108840935000,0.041000000000
25.116528892000,0.064000000000
25.124216849000,0.088000000000
25.131904806000,0.115000000000
25.139592763000,0.142000000000
25.147280720000,0.167000000000
25.154968677000,0.187000000000
25.162656634000,0.192000000000
25.170344591000,0.174000000000
25.178032548000,0.160000000000
25.185720505000,0.147000000000
25.193408462000,0.115000000000
25.201096419000,0.056000000000
25.208784376000,-0.009000000000
25.216472405000,-0.073000000000
25.224160363000,-0.132000000000
25.231848321000,-0.184000000000
25.239536279000,-0.221000000000
25.247224237000,-0.233000000000
25.254912195000,-0.233000000000
25.262600153000,-0.226000000000
25.270288111000,-0.221000000000
25.277976069000,-0.224000000000
25.285664027000,-0.214000000000
25.293351985000,-0.189000000000
25.301039943000,-0.172000000000
25.308727901000,-0.167000000000
25.316415859000,-0.164000000000
25.324103817000,-0.155000000000
25.331791775000,-0.147000000000
25.339479733000,-0.140000000000
25.347167691000,-0.132000000000
25.354855649000,-0.132000000000
25.362543607000,-0.132000000000
25.370231565000,-0.128000000000
25.377919523000,-0.128000000000
25.385607481000,-0.128000000000
25.393295439000,-0.130000000000
25.400983397000,-0.123000000000
25.408671355000,-0.113000000000
25.416359313000,-0.108000000000
25.424047271000,-0.108000000000
25.431735229000,-0.113000000000
25.439423187000,-0.118000000000
25.447111145000,-0.113000000000
25.454799103000,-0.113000000000
25.462487061000,-0.113000000000
25.470175019000,-0.110000000000
25.477862977000,-0.110000000000
25.485550935000,-0.110000000000
25.493238893000,-0.100000000000
25.500926851000,-0.091000000000
25.508614809000,-0.093000000000
25.516302767000,-0.088000000000
25.523990725000,-0.071000000000
25.531678683000,-0.064000000000
25.539366641000,-0.064000000000
25.547054599000,-0.083000000000
25.554742557000,-0.105000000000
25.562430515000,-0.096000000000
25.570118473000,-0.083000000000
25.577806431000,-0.091000000000
25.585494389000,-0.088000000000
25.593182347000,-0.076000000000
25.600870305000,-0.086000000000
25.608558263000,-0.118000000000
25.616246221000,-0.189000000000
25.623934179000,-0.253000000000
25.631622137000,-0.007000000000
25.639310095000,0.753000000000
25.646998053000,1.619000000000
25.654686011000,1.848000000000
25.662373969000,0.913000000000
25.670061927000,-0.366000000000
25.677749885000,-0.529000000000
25.685437843000,-0.110000000000
25.693125801000,-0.164000000000
25.700813759000,-0.270000000000
25.708501717000,-0.169000000000
25.716189675000,-0.145000000000
25.723877633000,-0.160000000000
25.731565591000,-0.125000000000
25.739253549000,-0.110000000000
25.746941507000,-0.098000000000
25.754629465000,-0.071000000000
25.762317423000,-0.051000000000
25.770005381000,-0.036000000000
25.777693342000,-0.009000000000
25.785381299000,0.017000000000
25.793069256000,0.024000000000
25.800757213000,0.049000000000
25.808445170000,0.096000000000
25.816133127000,0.120000000000
25.823821084000,0.125000000000
25.831509041000,0.157000000000
25.839196998000,0.209000000000
25.846884955000,0.224000000000
25.854572912000,0.211000000000
25.862260869000,0.221000000000
25.869948826000,0.231000000000
25.877636783000,0.214000000000
25.885324740000,0.177000000000
25.893012697000,0.145000000000
25.900700654000,0.098000000000
25.908388611000,0.004000000000
25.916076568000,-0.091000000000
25.923764525000,-0.152000000000
25.931452482000,-0.192000000000
25.939140439000,-0.224000000000
25.946828396000,-0.238000000000
25.954516353000,-0.238000000000
25.962204310000,-0.236000000000
25.969892267000,-0.224000000000
25.977580224000,-0.211000000000
25.985268181000,-0.209000000000
25.992956138000,-0.194000000000
26.000644095000,-0.182000000000
26.008332052000,-0.177000000000
26.016020009000,-0.160000000000
26.023707966000,-0.150000000000
26.031395923000,-0.157000000000
26.039083880000,-0.145000000000
26.046771837000,-0.132000000000
26.054459794000,-0.130000000000
26.062147751000,-0.125000000000
26.069835708000,-0.118000000000
26.077523665000,-0.123000000000
26.085211622000,-0.130000000000
26.092899579000,-0.128000000000
26.100587536000,-0.115000000000
26.108275493000,-0.113000000000
26.115963450000,-0.120000000000
26.123651407000,-0.123000000000
26.131339364000,-0.120000000000
26.139027321000,-0.118000000000
26.146715278000,-0.118000000000
26.154403235000,-0.128000000000
26.162091192000,-0.132000000000
26.169779149000,-0.120000000000
26.177467106000,-0.105000000000
26.185155063000,-0.098000000000
26.192843020000,-0.096000000000
26.200530977000,-0.086000000000
26.208218934000,-0.076000000000
26.215906891000,-0.086000000000
26.223594848000,-0.108000000000
26.231282805000,-0.118000000000
26.238970762000,-0.113000000000
26.246658719000,-0.105000000000
26.254346676000,-0.098000000000
26.262034633000,-0.096000000000
26.269722590000,-0.093000000000
26.277410547000,-0.100000000000
26.285098504000,-0.135000000000
26.292786461000,-0.204000000000
26.300474418000,-0.253000000000
26.308162375000,0.007000000000
26.315850332000,0.755000000000
26.323538289000,1.585000000000
26.331226246000,1.804000000000
26.338914275000,0.898000000000
26.346602232000,-0.366000000000
26.354290189000,-0.551000000000
26.361978146000,-0.135000000000
26.369666103000,-0.179000000000
26.377354060000,-0.285000000000
26.385042017000,-0.172000000000
26.392729974000,-0.152000000000
26.400417931000,-0.189000000000
26.408105888000,-0.150000000000
26.415793845000,-0.120000000000
26.423481802000,-0.120000000000
26.431169759000,-0.100000000000
26.438857716000,-0.076000000000
26.446545673000,-0.064000000000
26.454233630000,-0.041000000000
26.461921587000,-0.022000000000
26.469609544000,-0.004000000000
26.477297501000,0.019000000000
26.484985458000,0.049000000000
26.492673415000,0.073000000000
26.500361372000,0.103000000000
26.508049329000,0.128000000000
26.515737286000,0.150000000000
26.523425243000,0.169000000000
26.531113200000,0.179000000000
26.538801157000,0.182000000000
26.546489114000,0.172000000000
26.554177071000,0.155000000000
26.561865028000,0.137000000000
26.569552985000,0.108000000000
26.577240942000,0.044000000000
26.584928899000,-0.039000000000
26.592616856000,-0.115000000000
26.600304813000,-0.167000000000
26.607992770000,-0.206000000000
26.615680727000,-0.236000000000
26.623368684000,-0.251000000000
26.631056641000,-0.253000000000
26.638744598000,-0.243000000000
26.646432555000,-0.233000000000
26.654120512000,-0.228000000000
26.661808469000,-0.219000000000
26.669496426000,-0.201000000000
26.677184383000,-0.189000000000
26.684872340000,-0.184000000000
26.692560297000,-0.174000000000
26.700248254000,-0.167000000000
26.707936211000,-0.162000000000
26.715624168000,-0.150000000000
26.723312125000,-0.140000000000
26.731000082000,-0.137000000000
26.738688039000,-0.137000000000
26.746375996000,-0.137000000000
26.754063953000,-0.132000000000
26.761751910000,-0.128000000000
26.769439867000,-0.128000000000
26.777127824000,-0.128000000000
26.784815781000,-0.128000000000
26.792503738000,-0.128000000000
26.800191695000,-0.125000000000
26.807879652000,-0.125000000000
26.815567609000,-0.128000000000
26.823255566000,-0.123000000000
26.830943523000,-0.120000000000
26.838631480000,-0.132000000000
26.846319437000,-0.140000000000
26.854007394000,-0.128000000000
26.861695351000,-0.110000000000
26.869383308000,-0.100000000000
26.877071265000,-0.103000000000
26.884759222000,-0.096000000000
26.892447179000,-0.076000000000
26.900135208000,-0.078000000000
26.907823165000,-0.108000000000
26.915511122000,-0.123000000000
26.923199079000,-0.113000000000
26.930887036000,-0.100000000000
26.938574993000,-0.100000000000
26.946262950000,-0.098000000000
26.953950907000,-0.096000000000
26.961638864000,-0.105000000000
26.969326821000,-0.142000000000
26.977014778000,-0.226000000000
26.984702735000,-0.256000000000
26.992390692000,0.078000000000
27.000078649000,0.881000000000
27.007766606000,1.715000000000
27.015454563000,1.821000000000
27.023142520000,0.745000000000
27.030830477000,-0.480000000000
27.038518434000,-0.504000000000
27.046206391000,-0.098000000000
27.053894348000,-0.201000000000
27.061582305000,-0.300000000000
27.069270262000,-0.177000000000
27.076958219000,-0.162000000000
27.084646176000,-0.199000000000
27.092334133000,-0.155000000000
27.100022090000,-0.123000000000
27.107710047000,-0.123000000000
27.115398004000,-0.100000000000
27.123085961000,-0.076000000000
27.130773918000,-0.064000000000
27.138461875000,-0.046000000000
27.146149832000,-0.022000000000
27.153837789000,0.000000000000
27.161525746000,0.022000000000
27.169213703000,0.046000000000
27.176901660000,0.071000000000
27.184589617000,0.100000000000
27.192277574000,0.130000000000
27.199965531000,0.160000000000
27.207653488000,0.179000000000
27.215341445000,0.189000000000
27.223029402000,0.189000000000
27.230717359000,0.184000000000
27.238405316000,0.172000000000
27.246093273000,0.152000000000
27.253781230000,0.113000000000
27.261469187000,0.046000000000
27.269157144000,-0.036000000000
27.276845101000,-0.115000000000
27.284533058000,-0.174000000000
27.292221015000,-0.214000000000
27.299908972000,-0.238000000000
27.307596929000,-0.248000000000
27.315284886000,-0.251000000000
27.322972843000,-0.243000000000
27.330660800000,-0.231000000000
27.338348757000,-0.221000000000
27.346036714000,-0.209000000000
27.353724671000,-0.196000000000
27.361412628000,-0.184000000000
27.369100585000,-0.177000000000
27.376788542000,-0.169000000000
27.384476499000,-0.160000000000
27.392164456000,-0.152000000000
27.399852413000,-0.147000000000
27.407540370000,-0.142000000000
27.415228327000,-0.137000000000
27.422916284000,-0.137000000000
27.430604241000,-0.132000000000
27.438292198000,-0.128000000000
27.445980155000,-0.125000000000
27.453668112000,-0.128000000000
27.461356141000,-0.128000000000
27.469044098000,-0.123000000000
27.476732055000,-0.123000000000
27.484420012000,-0.120000000000
27.492107969000,-0.118000000000
27.499795926000,-0.115000000000
27.507483883000,-0.115000000000
27.515171840000,-0.115000000000
27.522859797000,-0.118000000000
27.530547754000,-0.123000000000
27.538235711000,-0.120000000000
27.545923668000,-0.110000000000
27.553611625000,-0.098000000000
27.561299582000,-0.091000000000
27.568987539000,-0.088000000000
27.576675496000,-0.073000000000
27.584363453000,-0.064000000000
27.592051410000,-0.083000000000
27.599739367000,-0.110000000000
27.607427324000,-0.110000000000
27.615115281000,-0.096000000000
27.622803238000,-0.093000000000
27.630491195000,-0.093000000000
27.638179152000,-0.091000000000
27.645867109000,-0.088000000000
27.653555066000,-0.105000000000
27.661243023000,-0.162000000000
27.668930980000,-0.253000000000
27.676618937000,-0.204000000000
27.684306894000,0.297000000000
27.691994851000,1.176000000000
27.699682808000,1.875000000000
27.707370765000,1.627000000000
27.715058722000,0.312000000000
27.722746679000,-0.617000000000
27.730434636000,-0.354000000000
27.738122593000,-0.078000000000
27.745810550000,-0.253000000000
27.753498507000,-0.263000000000
27.761186464000,-0.155000000000
27.768874421000,-0.179000000000
27.776562378000,-0.184000000000
27.784250335000,-0.130000000000
27.791938292000,-0.120000000000
27.799626249000,-0.115000000000
27.807314206000,-0.083000000000
27.815002163000,-0.064000000000
27.822690120000,-0.051000000000
27.830378077000,-0.029000000000
27.838066034000,-0.004000000000
27.845753991000,0.014000000000
27.853441948000,0.036000000000
27.861129905000,0.066000000000
27.868817862000,0.093000000000
27.876505819000,0.125000000000
27.884193776000,0.160000000000
27.891881733000,0.184000000000
27.899569690000,0.201000000000
27.907257647000,0.211000000000
27.914945604000,0.209000000000
27.922633561000,0.199000000000
27.930321518000,0.189000000000
27.938009475000,0.162000000000
27.945697432000,0.108000000000
27.953385389000,0.032000000000
27.961073346000,-0.051000000000
27.968761303000,-0.130000000000
27.976449260000,-0.187000000000
27.984137217000,-0.224000000000
27.991825174000,-0.243000000000
27.999513131000,-0.251000000000
28.007201088000,-0.248000000000
28.014889045000,-0.241000000000
28.022577074000,-0.228000000000
28.030265031000,-0.216000000000
28.037952988000,-0.201000000000
28.045640945000,-0.192000000000
28.053328902000,-0.187000000000
28.061016859000,-0.179000000000
28.068704816000,-0.164000000000
28.076392773000,-0.157000000000
28.084080730000,-0.152000000000
28.091768687000,-0.145000000000
28.099456644000,-0.142000000000
28.107144601000,-0.140000000000
28.114832558000,-0.132000000000
28.122520515000,-0.128000000000
28.130208472000,-0.130000000000
28.137896429000,-0.132000000000
28.145584386000,-0.128000000000
28.153272343000,-0.123000000000
28.160960300000,-0.125000000000
28.168648257000,-0.123000000000
28.176336214000,-0.118000000000
28.184024171000,-0.118000000000
28.191712128000,-0.115000000000
28.199400085000,-0.110000000000
28.207088042000,-0.105000000000
28.214775999000,-0.105000000000
28.222463956000,-0.105000000000
28.230151913000,-0.100000000000
28.237839870000,-0.100000000000
28.245527827000,-0.105000000000
28.253215784000,-0.110000000000
28.260903741000,-0.110000000000
28.268591698000,-0.098000000000
28.276279655000,-0.081000000000
28.283967612000,-0.073000000000
28.291655569000,-0.071000000000
28.299343526000,-0.059000000000
28.307031483000,-0.054000000000
28.314719440000,-0.071000000000
28.322407397000,-0.093000000000
28.330095354000,-0.096000000000
28.337783311000,-0.083000000000
28.345471268000,-0.081000000000
28.353159225000,-0.083000000000
28.360847182000,-0.081000000000
28.368535139000,-0.076000000000
28.376223096000,-0.096000000000
28.383911053000,-0.152000000000
28.391599010000,-0.243000000000
28.399286967000,-0.196000000000
28.406974924000,0.302000000000
28.414662881000,1.186000000000
28.422350838000,1.883000000000
28.430038795000,1.634000000000
28.437726752000,0.329000000000
28.445414709000,-0.600000000000
28.453102666000,-0.347000000000
28.460790623000,-0.076000000000
28.468478580000,-0.251000000000
28.476166537000,-0.258000000000
28.483854494000,-0.150000000000
28.491542451000,-0.174000000000
28.499230408000,-0.184000000000
28.506918365000,-0.130000000000
28.514606322000,-0.118000000000
28.522294279000,-0.115000000000
28.529982236000,-0.086000000000
28.537670193000,-0.064000000000
28.545358150000,-0.049000000000
28.553046107000,-0.032000000000
28.560734064000,-0.009000000000
28.568422021000,0.009000000000
28.576109978000,0.034000000000
28.583798007000,0.064000000000
28.591486034000,0.093000000000
28.599174061000,0.123000000000
28.606862088000,0.150000000000
28.614550115000,0.179000000000
28.622238142000,0.199000000000
28.629926169000,0.211000000000
28.637614196000,0.211000000000
28.645302223000,0.201000000000
28.652990250000,0.189000000000
28.660678277000,0.164000000000
28.668366304000,0.115000000000
28.676054331000,0.046000000000
28.683742358000,-0.036000000000
28.691430385000,-0.118000000000
28.699118412000,-0.179000000000
28.706806439000,-0.219000000000
28.714494466000,-0.243000000000
28.722182493000,-0.253000000000
28.729870520000,-0.256000000000
28.737558547000,-0.248000000000
28.745246574000,-0.236000000000
28.752934601000,-0.224000000000
28.760622628000,-0.214000000000
28.768310655000,-0.201000000000
28.775998682000,-0.189000000000
28.783686709000,-0.182000000000
28.791374736000,-0.172000000000
28.799062763000,-0.164000000000
28.806750790000,-0.160000000000
28.814438817000,-0.155000000000
28.822126844000,-0.145000000000
28.829814871000,-0.140000000000
28.837502898000,-0.142000000000
28.845190925000,-0.140000000000
28.852878952000,-0.135000000000
28.860566979000,-0.135000000000
28.868255006000,-0.135000000000
28.875943033000,-0.130000000000
28.883631060000,-0.130000000000
28.891319087000,-0.130000000000
28.899007114000,-0.125000000000
28.906695141000,-0.123000000000
28.914383168000,-0.123000000000
28.922071195000,-0.120000000000
28.929759222000,-0.118000000000
28.937447249000,-0.115000000000
28.945135276000,-0.113000000000
28.952823303000,-0.110000000000
28.960511330000,-0.108000000000
28.968199357000,-0.103000000000
28.975887384000,-0.100000000000
28.983575411000,-0.100000000000
28.991263438000,-0.100000000000
28.998951465000,-0.108000000000
29.006639492000,-0.110000000000
29.014327519000,-0.105000000000
29.022015546000,-0.093000000000
29.029703573000,-0.081000000000
29.037391600000,-0.078000000000
29.045079627000,-0.068000000000
29.052767654000,-0.056000000000
29.060455681000,-0.066000000000
29.068143708000,-0.091000000000
29.075831735000,-0.100000000000
29.083519762000,-0.093000000000
29.091207789000,-0.088000000000
29.098895816000,-0.088000000000
29.106583843000,-0.086000000000
29.114271870000,-0.083000000000
29.121959897000,-0.091000000000
29.129647924000,-0.125000000000
29.137335951000,-0.204000000000
29.145024031000,-0.251000000000
29.152712058000,0.024000000000
29.160400085000,0.775000000000
29.168088112000,1.641000000000
29.175776139000,1.898000000000
29.183464166000,0.957000000000
29.191152193000,-0.356000000000
29.198840220000,-0.548000000000
29.206528247000,-0.128000000000
29.214216274000,-0.174000000000
29.221904301000,-0.297000000000
29.229592328000,-0.196000000000
29.237280355000,-0.169000000000
29.244968382000,-0.204000000000
29.252656409000,-0.162000000000
29.260344436000,-0.125000000000
29.268032463000,-0.128000000000
29.275720490000,-0.108000000000
29.283408517000,-0.076000000000
29.291096544000,-0.066000000000
29.298784571000,-0.049000000000
29.306472598000,-0.022000000000
29.314160625000,-0.002000000000
29.321848652000,0.019000000000
29.329536679000,0.049000000000
