time,LSB
0.000000000000,1.213000000000
0.007686763000,-0.285000000000
0.015373466000,-0.701000000000
0.023060169000,-0.167000000000
0.030746872000,-0.118000000000
0.038433575000,-0.295000000000
0.046120278000,-0.187000000000
0.053806981000,-0.130000000000
0.061493684000,-0.187000000000
0.069180387000,-0.155000000000
0.076867090000,-0.105000000000
0.084553793000,-0.108000000000
0.092240496000,-0.093000000000
0.099927199000,-0.064000000000
0.107613902000,-0.044000000000
0.115300605000,-0.022000000000
0.122987308000,0.009000000000
0.130674011000,0.032000000000
0.138360714000,0.059000000000
0.146047417000,0.093000000000
0.153734120000,0.132000000000
0.161420823000,0.169000000000
0.169107526000,0.209000000000
0.176794229000,0.251000000000
0.184480932000,0.285000000000
0.192167635000,0.305000000000
0.199854338000,0.315000000000
0.207541041000,0.312000000000
0.215227744000,0.292000000000
0.222914447000,0.263000000000
0.230601150000,0.228000000000
0.238287853000,0.177000000000
0.245974556000,0.096000000000
0.253661259000,-0.002000000000
0.261347962000,-0.093000000000
0.269034665000,-0.164000000000
0.276721368000,-0.216000000000
0.284408071000,-0.253000000000
0.292094774000,-0.273000000000
0.299781477000,-0.278000000000
0.307468180000,-0.273000000000
0.315154883000,-0.268000000000
0.322841586000,-0.253000000000
0.330528289000,-0.241000000000
0.338214992000,-0.233000000000
0.345901695000,-0.228000000000
0.353588398000,-0.216000000000
0.361275101000,-0.201000000000
0.368961804000,-0.192000000000
0.376648507000,-0.187000000000
0.384335210000,-0.179000000000
0.392021913000,-0.174000000000
0.399708616000,-0.174000000000
0.407395319000,-0.169000000000
0.415082022000,-0.164000000000
0.422768725000,-0.167000000000
0.430455428000,-0.169000000000
0.438142131000,-0.169000000000
0.445828834000,-0.169000000000
0.453515537000,-0.164000000000
0.461202240000,-0.160000000000
0.468888943000,-0.162000000000
0.476575646000,-0.164000000000
0.484262349000,-0.160000000000
0.491949052000,-0.155000000000
0.499635755000,-0.155000000000
0.507322458000,-0.152000000000
0.515009161000,-0.147000000000
0.522695864000,-0.145000000000
0.530382567000,-0.145000000000
0.538069270000,-0.140000000000
0.545755973000,-0.130000000000
0.553442676000,-0.128000000000
0.561129379000,-0.125000000000
0.568816142000,-0.123000000000
0.576502845000,-0.125000000000
0.584189548000,-0.128000000000
0.591876251000,-0.115000000000
0.599562954000,-0.091000000000
0.607249657000,-0.068000000000
0.614936360000,-0.059000000000
0.622623063000,-0.061000000000
0.630309766000,-0.061000000000
0.637996469000,-0.071000000000
0.645683172000,-0.105000000000
0.653369875000,-0.125000000000
0.661056578000,-0.115000000000
0.668743281000,-0.103000000000
0.676429984000,-0.105000000000
0.684116687000,-0.108000000000
0.691803390000,-0.100000000000
0.699490093000,-0.096000000000
0.707176796000,-0.103000000000
0.714863499000,-0.123000000000
0.722550202000,-0.177000000000
0.730236905000,-0.209000000000
0.737923608000,0.014000000000
0.745610311000,0.664000000000
0.753297014000,1.489000000000
0.760983717000,1.932000000000
0.768670420000,1.216000000000
0.776357123000,-0.263000000000
0.784043826000,-0.704000000000
0.791730529000,-0.179000000000
0.799417232000,-0.115000000000
0.807103935000,-0.283000000000
0.814790638000,-0.177000000000
0.822477341000,-0.123000000000
0.830164044000,-0.174000000000
0.837850747000,-0.140000000000
0.845537450000,-0.093000000000
0.853224153000,-0.096000000000
0.860910856000,-0.078000000000
0.868597559000,-0.046000000000
0.876284262000,-0.032000000000
0.883970965000,-0.012000000000
0.891657668000,0.017000000000
0.899344371000,0.046000000000
0.907031074000,0.073000000000
0.914717777000,0.108000000000
0.922404480000,0.147000000000
0.930091183000,0.187000000000
0.937777886000,0.226000000000
0.945464589000,0.265000000000
0.953151292000,0.297000000000
0.960837995000,0.317000000000
0.968524698000,0.324000000000
0.976211401000,0.315000000000
0.983898104000,0.295000000000
0.991584807000,0.268000000000
0.999271510000,0.228000000000
1.006958213000,0.167000000000
1.014644916000,0.086000000000
1.022331619000,-0.007000000000
1.030018322000,-0.093000000000
1.037705025000,-0.169000000000
1.045391728000,-0.226000000000
1.053078431000,-0.258000000000
1.060765134000,-0.275000000000
1.068451837000,-0.280000000000
1.076138540000,-0.278000000000
1.083825243000,-0.270000000000
1.091511946000,-0.258000000000
1.099198649000,-0.243000000000
1.106885352000,-0.233000000000
1.114572055000,-0.224000000000
1.122258758000,-0.211000000000
1.129945521000,-0.201000000000
1.137632224000,-0.194000000000
1.145318927000,-0.187000000000
1.153005630000,-0.179000000000
1.160692333000,-0.177000000000
1.168379036000,-0.174000000000
1.176065739000,-0.169000000000
1.183752442000,-0.169000000000
1.191439145000,-0.167000000000
1.199125848000,-0.167000000000
1.206812551000,-0.167000000000
1.214499254000,-0.164000000000
1.222185957000,-0.162000000000
1.229872660000,-0.162000000000
1.237559363000,-0.162000000000
1.245246066000,-0.160000000000
1.252932769000,-0.157000000000
1.260619472000,-0.157000000000
1.268306175000,-0.155000000000
1.275992878000,-0.150000000000
1.283679581000,-0.147000000000
1.291366284000,-0.145000000000
1.299052987000,-0.140000000000
1.306739690000,-0.137000000000
1.314426393000,-0.135000000000
1.322113096000,-0.130000000000
1.329799799000,-0.125000000000
1.337486502000,-0.125000000000
1.345173205000,-0.128000000000
1.352859908000,-0.123000000000
1.360546611000,-0.108000000000
1.368233314000,-0.083000000000
1.375920017000,-0.066000000000
1.383606720000,-0.064000000000
1.391293423000,-0.064000000000
1.398980126000,-0.066000000000
1.406666829000,-0.091000000000
1.414353532000,-0.125000000000
1.422040235000,-0.125000000000
1.429726938000,-0.113000000000
1.437413641000,-0.113000000000
1.445100344000,-0.110000000000
1.452787047000,-0.105000000000
1.460473750000,-0.100000000000
1.468160453000,-0.103000000000
1.475847156000,-0.115000000000
1.483533859000,-0.157000000000
1.491220562000,-0.219000000000
1.498907265000,-0.135000000000
1.506593968000,0.332000000000
1.514280671000,1.127000000000
1.521967374000,1.858000000000
1.529654077000,1.735000000000
1.537340780000,0.352000000000
1.545027483000,-0.731000000000
1.552714186000,-0.406000000000
1.560400889000,-0.041000000000
1.568087592000,-0.248000000000
1.575774295000,-0.260000000000
1.583460998000,-0.130000000000
1.591147701000,-0.167000000000
1.598834404000,-0.182000000000
1.606521107000,-0.120000000000
1.614207810000,-0.105000000000
1.621894513000,-0.103000000000
1.629581216000,-0.073000000000
1.637267919000,-0.049000000000
1.644954622000,-0.032000000000
1.652641325000,-0.007000000000
1.660328028000,0.022000000000
1.668014731000,0.049000000000
1.675701434000,0.078000000000
1.683388137000,0.115000000000
1.691074900000,0.152000000000
1.698761534000,0.194000000000
1.706448168000,0.233000000000
1.714134802000,0.270000000000
1.721821436000,0.297000000000
1.729508070000,0.312000000000
1.737194704000,0.310000000000
1.744881338000,0.297000000000
1.752567972000,0.273000000000
1.760254606000,0.241000000000
1.767941240000,0.192000000000
1.775627874000,0.118000000000
1.783314508000,0.029000000000
1.791001142000,-0.061000000000
1.798687776000,-0.140000000000
1.806374410000,-0.201000000000
1.814061044000,-0.246000000000
1.821747678000,-0.270000000000
1.829434312000,-0.278000000000
1.837120946000,-0.280000000000
1.844807580000,-0.273000000000
1.852494214000,-0.260000000000
1.860180848000,-0.251000000000
1.867867482000,-0.238000000000
1.875554116000,-0.224000000000
1.883240750000,-0.214000000000
1.890927384000,-0.204000000000
1.898614018000,-0.196000000000
1.906300652000,-0.189000000000
1.913987286000,-0.184000000000
1.921673920000,-0.182000000000
1.929360554000,-0.177000000000
1.937047188000,-0.177000000000
1.944733822000,-0.174000000000
1.952420456000,-0.172000000000
1.960107090000,-0.172000000000
1.967793724000,-0.172000000000
1.975480358000,-0.172000000000
1.983166992000,-0.172000000000
1.990853626000,-0.169000000000
1.998540260000,-0.169000000000
2.006226894000,-0.167000000000
2.013913528000,-0.167000000000
2.021600162000,-0.164000000000
2.029286796000,-0.160000000000
2.036973430000,-0.157000000000
2.044660064000,-0.155000000000
2.052346698000,-0.150000000000
2.060033332000,-0.145000000000
2.067719966000,-0.140000000000
2.075406600000,-0.140000000000
2.083093234000,-0.135000000000
2.090779868000,-0.130000000000
2.098466502000,-0.128000000000
2.106153136000,-0.123000000000
2.113839770000,-0.123000000000
2.121526404000,-0.125000000000
2.129213038000,-0.123000000000
2.136899672000,-0.105000000000
2.144586306000,-0.081000000000
2.152272940000,-0.064000000000
2.159959574000,-0.064000000000
2.167646208000,-0.064000000000
2.175332842000,-0.066000000000
2.183019476000,-0.096000000000
2.190706110000,-0.128000000000
2.198392744000,-0.125000000000
2.206079378000,-0.113000000000
2.213766012000,-0.110000000000
2.221452646000,-0.110000000000
2.229139280000,-0.105000000000
2.236825914000,-0.100000000000
2.244512548000,-0.103000000000
2.252199196000,-0.120000000000
2.259885969000,-0.164000000000
2.267572742000,-0.219000000000
2.275259515000,-0.108000000000
2.282946288000,0.391000000000
2.290633061000,1.184000000000
2.298319834000,1.870000000000
2.306006607000,1.641000000000
2.313693380000,0.219000000000
2.321380153000,-0.745000000000
2.329066926000,-0.359000000000
2.336753699000,-0.054000000000
2.344440472000,-0.265000000000
2.352127245000,-0.251000000000
2.359814018000,-0.132000000000
2.367500791000,-0.177000000000
2.375187564000,-0.179000000000
2.382874337000,-0.120000000000
2.390561110000,-0.110000000000
2.398247883000,-0.108000000000
2.405934656000,-0.076000000000
2.413621429000,-0.051000000000
2.421308202000,-0.036000000000
2.428994975000,-0.009000000000
2.436681748000,0.019000000000
2.444368521000,0.044000000000
2.452055294000,0.076000000000
2.459742067000,0.110000000000
2.467428840000,0.147000000000
2.475115613000,0.187000000000
2.482802386000,0.228000000000
2.490489159000,0.263000000000
2.498175932000,0.288000000000
2.505862705000,0.302000000000
2.513549478000,0.302000000000
2.521236251000,0.288000000000
2.528923024000,0.265000000000
2.536609797000,0.233000000000
2.544296570000,0.184000000000
2.551983343000,0.113000000000
2.559670116000,0.024000000000
2.567356889000,-0.064000000000
2.575043662000,-0.142000000000
2.582730435000,-0.204000000000
2.590417208000,-0.246000000000
2.598103981000,-0.270000000000
2.605790754000,-0.280000000000
2.613477527000,-0.278000000000
2.621164300000,-0.273000000000
2.628851073000,-0.260000000000
2.636537846000,-0.248000000000
2.644224619000,-0.238000000000
2.651911392000,-0.228000000000
2.659598165000,-0.214000000000
2.667284938000,-0.204000000000
2.674971711000,-0.199000000000
2.682658484000,-0.194000000000
2.690345257000,-0.187000000000
2.698032030000,-0.184000000000
2.705718803000,-0.182000000000
2.713405576000,-0.179000000000
2.721092349000,-0.177000000000
2.728779122000,-0.177000000000
2.736465895000,-0.177000000000
2.744152668000,-0.177000000000
2.751839441000,-0.177000000000
2.759526214000,-0.174000000000
2.767212987000,-0.174000000000
2.774899760000,-0.174000000000
2.782586533000,-0.172000000000
2.790273306000,-0.169000000000
2.797960079000,-0.167000000000
2.805646852000,-0.164000000000
2.813333660000,-0.160000000000
2.821020363000,-0.155000000000
2.828707066000,-0.152000000000
2.836393769000,-0.150000000000
2.844080472000,-0.147000000000
2.851767175000,-0.142000000000
2.859453878000,-0.140000000000
2.867140581000,-0.135000000000
2.874827284000,-0.132000000000
2.882513987000,-0.128000000000
2.890200690000,-0.125000000000
2.897887393000,-0.120000000000
2.905574096000,-0.123000000000
2.913260799000,-0.123000000000
2.920947502000,-0.113000000000
2.928634205000,-0.093000000000
2.936320908000,-0.068000000000
2.944007611000,-0.059000000000
2.951694314000,-0.064000000000
2.959381017000,-0.064000000000
2.967067720000,-0.076000000000
2.974754423000,-0.113000000000
2.982441126000,-0.132000000000
2.990127829000,-0.120000000000
2.997814532000,-0.113000000000
3.005501235000,-0.110000000000
3.013187938000,-0.108000000000
3.020874641000,-0.105000000000
3.028561344000,-0.103000000000
3.036248047000,-0.108000000000
3.043934750000,-0.132000000000
3.051621453000,-0.194000000000
3.059308156000,-0.211000000000
3.066994859000,0.056000000000
3.074681562000,0.723000000000
3.082368265000,1.543000000000
3.090054968000,1.934000000000
3.097741671000,1.083000000000
3.105428374000,-0.391000000000
3.113115077000,-0.667000000000
3.120801780000,-0.130000000000
3.128488483000,-0.142000000000
3.136175186000,-0.300000000000
3.143861889000,-0.182000000000
3.151548592000,-0.145000000000
3.159235295000,-0.194000000000
3.166921998000,-0.152000000000
3.174608701000,-0.113000000000
3.182295404000,-0.115000000000
3.189982107000,-0.093000000000
3.197668810000,-0.064000000000
3.205355513000,-0.049000000000
3.213042216000,-0.027000000000
3.220728919000,0.002000000000
3.228415622000,0.027000000000
3.236102325000,0.054000000000
3.243789028000,0.088000000000
3.251475731000,0.123000000000
3.259162434000,0.160000000000
3.266849137000,0.201000000000
3.274535840000,0.238000000000
3.282222543000,0.270000000000
3.289909246000,0.292000000000
3.297595949000,0.297000000000
3.305282652000,0.290000000000
3.312969355000,0.273000000000
3.320656058000,0.248000000000
3.328342761000,0.211000000000
3.336029464000,0.155000000000
3.343716167000,0.076000000000
3.351402870000,-0.012000000000
3.359089573000,-0.096000000000
3.366776276000,-0.167000000000
3.374463041000,-0.221000000000
3.382149744000,-0.256000000000
3.389836447000,-0.273000000000
3.397523150000,-0.278000000000
3.405209853000,-0.275000000000
3.412896556000,-0.268000000000
3.420583259000,-0.256000000000
3.428269962000,-0.243000000000
3.435956665000,-0.233000000000
3.443643368000,-0.221000000000
3.451330071000,-0.209000000000
3.459016774000,-0.201000000000
3.466703477000,-0.194000000000
3.474390180000,-0.189000000000
3.482076883000,-0.184000000000
3.489763586000,-0.182000000000
3.497450289000,-0.179000000000
3.505136992000,-0.177000000000
3.512823695000,-0.177000000000
3.520510398000,-0.174000000000
3.528197101000,-0.174000000000
3.535883804000,-0.172000000000
3.543570507000,-0.172000000000
3.551257210000,-0.169000000000
3.558943913000,-0.169000000000
3.566630616000,-0.169000000000
3.574317319000,-0.169000000000
3.582004022000,-0.164000000000
3.589690725000,-0.162000000000
3.597377428000,-0.157000000000
3.605064131000,-0.155000000000
3.612750834000,-0.150000000000
3.620437537000,-0.147000000000
3.628124240000,-0.145000000000
3.635810943000,-0.142000000000
3.643497646000,-0.140000000000
3.651184349000,-0.135000000000
3.658871052000,-0.132000000000
3.666557755000,-0.125000000000
3.674244458000,-0.120000000000
3.681931161000,-0.118000000000
3.689617864000,-0.118000000000
3.697304567000,-0.115000000000
3.704991270000,-0.110000000000
3.712677973000,-0.093000000000
3.720364676000,-0.068000000000
3.728051379000,-0.059000000000
3.735738082000,-0.064000000000
3.743424785000,-0.061000000000
3.751111488000,-0.066000000000
3.758798191000,-0.103000000000
3.766484894000,-0.128000000000
3.774171597000,-0.115000000000
3.781858300000,-0.103000000000
3.789545003000,-0.108000000000
3.797231706000,-0.108000000000
3.804918409000,-0.100000000000
3.812605112000,-0.096000000000
3.820291815000,-0.098000000000
3.827978518000,-0.125000000000
3.835665221000,-0.184000000000
3.843351924000,-0.221000000000
3.851038627000,-0.017000000000
3.858725330000,0.588000000000
3.866412033000,1.408000000000
3.874098736000,1.949000000000
3.881785439000,1.361000000000
3.889472142000,-0.150000000000
3.897158845000,-0.723000000000
3.904845548000,-0.206000000000
3.912532251000,-0.088000000000
3.920218954000,-0.285000000000
3.927905657000,-0.196000000000
3.935592420000,-0.125000000000
3.943279123000,-0.184000000000
3.950965826000,-0.152000000000
3.958652529000,-0.093000000000
3.966339232000,-0.098000000000
3.974025935000,-0.091000000000
3.981712638000,-0.056000000000
3.989399341000,-0.034000000000
3.997086044000,-0.017000000000
4.004772747000,0.012000000000
4.012459450000,0.041000000000
4.020146153000,0.073000000000
4.027832856000,0.105000000000
4.035519559000,0.135000000000
4.043206262000,0.177000000000
4.050892965000,0.219000000000
4.058579668000,0.253000000000
4.066266371000,0.290000000000
4.073953074000,0.322000000000
4.081639777000,0.334000000000
4.089326480000,0.329000000000
4.097013183000,0.310000000000
4.104699886000,0.285000000000
4.112386589000,0.253000000000
4.120073292000,0.199000000000
4.127759995000,0.115000000000
4.135446698000,0.024000000000
4.143133401000,-0.064000000000
4.150820104000,-0.142000000000
4.158506807000,-0.201000000000
4.166193510000,-0.238000000000
4.173880213000,-0.260000000000
4.181566916000,-0.273000000000
4.189253619000,-0.273000000000
4.196940322000,-0.263000000000
4.204627025000,-0.256000000000
4.212313728000,-0.243000000000
4.220000431000,-0.228000000000
4.227687134000,-0.219000000000
4.235373837000,-0.209000000000
4.243060540000,-0.199000000000
4.250747243000,-0.189000000000
4.258433946000,-0.182000000000
4.266120649000,-0.179000000000
4.273807352000,-0.174000000000
4.281494055000,-0.164000000000
4.289180758000,-0.162000000000
4.296867461000,-0.167000000000
4.304554164000,-0.169000000000
4.312240867000,-0.167000000000
4.319927570000,-0.162000000000
4.327614273000,-0.164000000000
4.335300976000,-0.164000000000
4.342987679000,-0.157000000000
4.350674382000,-0.162000000000
4.358361085000,-0.167000000000
4.366047788000,-0.155000000000
4.373734491000,-0.147000000000
4.381421194000,-0.150000000000
4.389107897000,-0.142000000000
4.396794600000,-0.135000000000
4.404481303000,-0.137000000000
4.412168006000,-0.137000000000
4.419854709000,-0.132000000000
4.427541412000,-0.125000000000
4.435228115000,-0.115000000000
4.442914818000,-0.115000000000
4.450601521000,-0.120000000000
4.458288224000,-0.120000000000
4.465974927000,-0.105000000000
4.473661630000,-0.076000000000
4.481348333000,-0.054000000000
4.489035036000,-0.054000000000
4.496721799000,-0.059000000000
4.504408363000,-0.061000000000
4.512094927000,-0.088000000000
4.519781491000,-0.120000000000
4.527468055000,-0.118000000000
4.535154619000,-0.100000000000
4.542841183000,-0.105000000000
4.550527747000,-0.110000000000
4.558214311000,-0.100000000000
4.565900875000,-0.088000000000
4.573587439000,-0.091000000000
4.581274003000,-0.108000000000
4.588960567000,-0.140000000000
4.596647131000,-0.199000000000
4.604333695000,-0.164000000000
4.612020259000,0.238000000000
4.619706823000,1.014000000000
4.627393387000,1.779000000000
4.635079951000,1.831000000000
4.642766515000,0.617000000000
4.650453079000,-0.640000000000
4.658139643000,-0.502000000000
4.665826207000,-0.049000000000
4.673512771000,-0.204000000000
4.681199335000,-0.260000000000
4.688885899000,-0.120000000000
4.696572463000,-0.130000000000
4.704259027000,-0.157000000000
4.711945591000,-0.103000000000
4.719632155000,-0.086000000000
4.727318719000,-0.088000000000
4.735005283000,-0.049000000000
4.742691847000,-0.022000000000
4.750378411000,-0.012000000000
4.758064975000,0.017000000000
4.765751539000,0.046000000000
4.773438103000,0.073000000000
4.781124667000,0.110000000000
4.788811231000,0.142000000000
4.796497795000,0.174000000000
4.804184359000,0.226000000000
4.811870923000,0.270000000000
4.819557487000,0.305000000000
4.827244051000,0.339000000000
4.834930615000,0.354000000000
4.842617179000,0.354000000000
4.850303743000,0.347000000000
4.857990307000,0.327000000000
4.865676871000,0.288000000000
4.873363435000,0.243000000000
4.881049999000,0.174000000000
4.888736563000,0.081000000000
4.896423127000,-0.012000000000
4.904109691000,-0.098000000000
4.911796255000,-0.172000000000
4.919482819000,-0.219000000000
4.927169383000,-0.246000000000
4.934855947000,-0.260000000000
4.942542511000,-0.263000000000
4.950229075000,-0.256000000000
4.957915639000,-0.248000000000
4.965602203000,-0.236000000000
4.973288767000,-0.221000000000
4.980975331000,-0.206000000000
4.988661895000,-0.196000000000
4.996348459000,-0.187000000000
5.004035023000,-0.174000000000
5.011721587000,-0.169000000000
5.019408151000,-0.164000000000
5.027094715000,-0.155000000000
5.034781279000,-0.150000000000
5.042467843000,-0.147000000000
5.050154407000,-0.145000000000
5.057841008000,-0.142000000000
5.065527433000,-0.142000000000
5.073213858000,-0.142000000000
5.080900283000,-0.142000000000
5.088586708000,-0.142000000000
5.096273133000,-0.142000000000
5.103959558000,-0.142000000000
5.111645983000,-0.137000000000
5.119332408000,-0.135000000000
5.127018833000,-0.135000000000
5.134705258000,-0.132000000000
5.142391683000,-0.130000000000
5.150078108000,-0.125000000000
5.157764533000,-0.123000000000
5.165450958000,-0.118000000000
5.173137383000,-0.115000000000
5.180823808000,-0.110000000000
5.188510233000,-0.108000000000
5.196196658000,-0.108000000000
5.203883083000,-0.108000000000
5.211569508000,-0.100000000000
5.219255933000,-0.081000000000
5.226942358000,-0.059000000000
5.234628783000,-0.046000000000
5.242315208000,-0.049000000000
5.250001633000,-0.046000000000
5.257688058000,-0.056000000000
5.265374483000,-0.091000000000
5.273060908000,-0.113000000000
5.280747333000,-0.105000000000
5.288433758000,-0.096000000000
5.296120183000,-0.093000000000
5.303806608000,-0.091000000000
5.311493033000,-0.088000000000
5.319179458000,-0.086000000000
5.326865883000,-0.088000000000
5.334552308000,-0.108000000000
5.342238733000,-0.162000000000
5.349925158000,-0.204000000000
5.357611583000,-0.017000000000
5.365298008000,0.593000000000
5.372984433000,1.437000000000
5.380670858000,1.996000000000
5.388357283000,1.422000000000
5.396043708000,-0.110000000000
5.403730133000,-0.731000000000
5.411416558000,-0.209000000000
5.419102983000,-0.071000000000
5.426789408000,-0.275000000000
5.434475833000,-0.187000000000
5.442162258000,-0.108000000000
5.449848683000,-0.164000000000
5.457535108000,-0.142000000000
5.465221533000,-0.091000000000
5.472907958000,-0.091000000000
5.480594383000,-0.078000000000
5.488280808000,-0.044000000000
5.495967233000,-0.027000000000
5.503653658000,-0.007000000000
5.511340083000,0.022000000000
5.519026508000,0.049000000000
5.526712933000,0.076000000000
5.534399358000,0.110000000000
5.542085783000,0.147000000000
5.549772208000,0.187000000000
5.557458633000,0.231000000000
5.565145058000,0.273000000000
5.572831483000,0.307000000000
5.580517908000,0.329000000000
5.588204333000,0.342000000000
5.595890758000,0.337000000000
5.603577183000,0.320000000000
5.611263608000,0.292000000000
5.618950039000,0.253000000000
5.626637160000,0.196000000000
5.634324281000,0.113000000000
5.642011402000,0.017000000000
5.649698523000,-0.073000000000
5.657385644000,-0.150000000000
5.665072765000,-0.206000000000
5.672759886000,-0.246000000000
5.680447007000,-0.268000000000
5.688134128000,-0.273000000000
5.695821249000,-0.270000000000
5.703508370000,-0.263000000000
5.711195491000,-0.251000000000
5.718882612000,-0.238000000000
5.726569733000,-0.228000000000
5.734256854000,-0.216000000000
5.741943975000,-0.206000000000
5.749631096000,-0.196000000000
5.757318217000,-0.187000000000
5.765005338000,-0.179000000000
5.772692459000,-0.174000000000
5.780379580000,-0.172000000000
5.788066701000,-0.169000000000
5.795753822000,-0.167000000000
5.803440943000,-0.164000000000
5.811128064000,-0.164000000000
5.818815185000,-0.164000000000
5.826502306000,-0.164000000000
5.834189427000,-0.164000000000
5.841876548000,-0.164000000000
5.849563669000,-0.162000000000
5.857250790000,-0.162000000000
5.864937911000,-0.160000000000
5.872625032000,-0.157000000000
5.880312153000,-0.155000000000
5.887999274000,-0.152000000000
5.895686395000,-0.150000000000
5.903373516000,-0.147000000000
5.911060637000,-0.142000000000
5.918747758000,-0.140000000000
5.926434879000,-0.137000000000
5.934122000000,-0.132000000000
5.941809121000,-0.128000000000
5.949496242000,-0.128000000000
5.957183363000,-0.130000000000
5.964870484000,-0.128000000000
5.972557605000,-0.113000000000
5.980244726000,-0.086000000000
5.987931847000,-0.068000000000
5.995618968000,-0.068000000000
6.003306089000,-0.068000000000
6.010993210000,-0.068000000000
6.018680331000,-0.096000000000
6.026367452000,-0.130000000000
6.034054573000,-0.130000000000
6.041741694000,-0.118000000000
6.049428815000,-0.115000000000
6.057115936000,-0.115000000000
6.064803057000,-0.108000000000
6.072490178000,-0.105000000000
6.080177299000,-0.105000000000
6.087864420000,-0.118000000000
6.095551541000,-0.155000000000
6.103238662000,-0.219000000000
6.110925783000,-0.164000000000
6.118612904000,0.248000000000
6.126300025000,1.006000000000
6.133987146000,1.787000000000
6.141674267000,1.856000000000
6.149361388000,0.600000000000
6.157048509000,-0.672000000000
6.164735630000,-0.502000000000
6.172422751000,-0.049000000000
6.180109940000,-0.219000000000
6.187796643000,-0.285000000000
6.195483346000,-0.145000000000
6.203170049000,-0.162000000000
6.210856752000,-0.192000000000
6.218543455000,-0.135000000000
6.226230158000,-0.113000000000
6.233916861000,-0.115000000000
6.241603564000,-0.086000000000
6.249290267000,-0.059000000000
6.256976970000,-0.044000000000
6.264663673000,-0.017000000000
6.272350376000,0.009000000000
6.280037079000,0.036000000000
6.287723782000,0.068000000000
6.295410485000,0.105000000000
6.303097188000,0.142000000000
6.310783891000,0.184000000000
6.318470594000,0.226000000000
6.326157297000,0.265000000000
6.333844000000,0.295000000000
6.341530703000,0.315000000000
6.349217406000,0.317000000000
6.356904109000,0.307000000000
6.364590812000,0.288000000000
6.372277515000,0.258000000000
6.379964218000,0.214000000000
6.387650921000,0.145000000000
6.395337624000,0.054000000000
6.403024327000,-0.039000000000
6.410711030000,-0.125000000000
6.418397733000,-0.192000000000
6.426084436000,-0.241000000000
6.433771139000,-0.270000000000
6.441457842000,-0.283000000000
6.449144545000,-0.283000000000
6.456831248000,-0.278000000000
6.464517951000,-0.270000000000
6.472204654000,-0.256000000000
6.479891357000,-0.243000000000
6.487578060000,-0.233000000000
6.495264763000,-0.219000000000
6.502951466000,-0.209000000000
6.510638169000,-0.201000000000
6.518324872000,-0.194000000000
6.526011575000,-0.189000000000
6.533698278000,-0.187000000000
6.541384981000,-0.184000000000
6.549071684000,-0.179000000000
6.556758387000,-0.179000000000
6.564445090000,-0.179000000000
6.572131793000,-0.177000000000
6.579818496000,-0.177000000000
6.587505199000,-0.177000000000
6.595191902000,-0.177000000000
6.602878605000,-0.177000000000
6.610565308000,-0.174000000000
6.618252011000,-0.174000000000
6.625938714000,-0.172000000000
6.633625417000,-0.169000000000
6.641312120000,-0.167000000000
6.648998823000,-0.164000000000
6.656685526000,-0.162000000000
6.664372229000,-0.157000000000
6.672058932000,-0.155000000000
6.679745635000,-0.150000000000
6.687432338000,-0.145000000000
6.695119041000,-0.140000000000
6.702805744000,-0.137000000000
6.710492447000,-0.140000000000
6.718179150000,-0.140000000000
6.725865853000,-0.125000000000
6.733552556000,-0.100000000000
6.741239319000,-0.081000000000
6.748926162000,-0.076000000000
6.756613005000,-0.078000000000
6.764299848000,-0.078000000000
6.771986691000,-0.096000000000
6.779673534000,-0.130000000000
6.787360377000,-0.142000000000
6.795047220000,-0.130000000000
6.802734063000,-0.123000000000
6.810420906000,-0.123000000000
6.818107749000,-0.118000000000
6.825794592000,-0.115000000000
6.833481435000,-0.113000000000
6.841168278000,-0.118000000000
6.848855121000,-0.140000000000
6.856541964000,-0.199000000000
6.864228807000,-0.228000000000
6.871915650000,0.000000000000
6.879602493000,0.632000000000
6.887289336000,1.459000000000
6.894976179000,1.962000000000
6.902663022000,1.292000000000
6.910349865000,-0.233000000000
6.918036708000,-0.728000000000
6.925723551000,-0.194000000000
6.933410394000,-0.115000000000
6.941097237000,-0.307000000000
6.948784080000,-0.209000000000
6.956470923000,-0.145000000000
6.964157766000,-0.199000000000
6.971844609000,-0.169000000000
6.979531452000,-0.120000000000
6.987218295000,-0.123000000000
6.994905138000,-0.105000000000
7.002591981000,-0.073000000000
7.010278824000,-0.056000000000
7.017965667000,-0.036000000000
7.025652510000,-0.007000000000
7.033339353000,0.022000000000
7.041026196000,0.049000000000
7.048713039000,0.083000000000
7.056399882000,0.120000000000
7.064086725000,0.160000000000
7.071773568000,0.201000000000
7.079460411000,0.243000000000
7.087147254000,0.278000000000
7.094834097000,0.300000000000
7.102520940000,0.310000000000
7.110207783000,0.305000000000
7.117894626000,0.288000000000
7.125581469000,0.265000000000
7.133268312000,0.228000000000
7.140955155000,0.169000000000
7.148641998000,0.088000000000
7.156328841000,-0.002000000000
7.164015684000,-0.093000000000
7.171702527000,-0.169000000000
7.179389370000,-0.226000000000
7.187076213000,-0.263000000000
7.194763056000,-0.280000000000
7.202449899000,-0.288000000000
7.210136742000,-0.285000000000
7.217823585000,-0.278000000000
7.225510428000,-0.265000000000
7.233197271000,-0.253000000000
7.240884114000,-0.241000000000
7.248570957000,-0.231000000000
7.256257800000,-0.221000000000
7.263944643000,-0.211000000000
7.271631486000,-0.204000000000
7.279318329000,-0.196000000000
7.287005172000,-0.192000000000
7.294692015000,-0.189000000000
7.302378872000,-0.189000000000
7.310065227000,-0.187000000000
7.317751582000,-0.184000000000
7.325437937000,-0.184000000000
7.333124292000,-0.184000000000
7.340810647000,-0.184000000000
7.348497002000,-0.184000000000
7.356183357000,-0.182000000000
7.363869712000,-0.179000000000
7.371556067000,-0.179000000000
7.379242422000,-0.179000000000
7.386928777000,-0.174000000000
7.394615132000,-0.172000000000
7.402301487000,-0.169000000000
7.409987842000,-0.164000000000
7.417674197000,-0.160000000000
7.425360552000,-0.157000000000
7.433046907000,-0.155000000000
7.440733262000,-0.150000000000
7.448419617000,-0.145000000000
7.456105972000,-0.142000000000
7.463792327000,-0.137000000000
7.471478682000,-0.135000000000
7.479165037000,-0.137000000000
7.486851392000,-0.135000000000
7.494537747000,-0.125000000000
7.502224102000,-0.103000000000
7.509910457000,-0.078000000000
7.517596812000,-0.071000000000
7.525283167000,-0.076000000000
7.532969522000,-0.076000000000
7.540655877000,-0.091000000000
7.548342232000,-0.125000000000
7.556028587000,-0.140000000000
7.563714942000,-0.128000000000
7.571401297000,-0.120000000000
7.579087652000,-0.120000000000
7.586774007000,-0.118000000000
7.594460362000,-0.113000000000
7.602146717000,-0.110000000000
7.609833072000,-0.115000000000
7.617519427000,-0.137000000000
7.625205782000,-0.194000000000
7.632892137000,-0.226000000000
7.640578492000,-0.004000000000
7.648264847000,0.617000000000
7.655951202000,1.442000000000
7.663637557000,1.954000000000
7.671323912000,1.292000000000
7.679010267000,-0.228000000000
7.686696622000,-0.726000000000
7.694382977000,-0.194000000000
7.702069332000,-0.115000000000
7.709755687000,-0.307000000000
7.717442042000,-0.209000000000
7.725128397000,-0.145000000000
7.732814752000,-0.199000000000
7.740501107000,-0.169000000000
7.748187462000,-0.120000000000
7.755873817000,-0.123000000000
7.763560172000,-0.108000000000
7.771246527000,-0.073000000000
7.778932882000,-0.056000000000
7.786619237000,-0.036000000000
7.794305592000,-0.009000000000
7.801991947000,0.017000000000
7.809678302000,0.046000000000
7.817364657000,0.081000000000
7.825051012000,0.118000000000
7.832737367000,0.155000000000
7.840423722000,0.194000000000
7.848110077000,0.236000000000
7.855796432000,0.270000000000
7.863482820000,0.297000000000
7.871169593000,0.307000000000
7.878856366000,0.305000000000
7.886543139000,0.290000000000
7.894229912000,0.268000000000
7.901916685000,0.233000000000
7.909603458000,0.179000000000
7.917290231000,0.100000000000
7.924977004000,0.007000000000
7.932663777000,-0.083000000000
7.940350550000,-0.157000000000
7.948037323000,-0.216000000000
7.955724096000,-0.258000000000
7.963410869000,-0.278000000000
7.971097642000,-0.280000000000
7.978784415000,-0.278000000000
7.986471188000,-0.270000000000
7.994157961000,-0.263000000000
8.001844734000,-0.251000000000
8.009531507000,-0.236000000000
8.017218280000,-0.224000000000
8.024905053000,-0.214000000000
8.032591826000,-0.204000000000
8.040278599000,-0.196000000000
8.047965372000,-0.192000000000
8.055652145000,-0.187000000000
8.063338918000,-0.182000000000
8.071025691000,-0.179000000000
8.078712464000,-0.177000000000
8.086399237000,-0.177000000000
8.094086010000,-0.177000000000
8.101772783000,-0.174000000000
8.109459556000,-0.172000000000
8.117146329000,-0.172000000000
8.124833102000,-0.172000000000
8.132519875000,-0.172000000000
8.140206648000,-0.172000000000
8.147893421000,-0.169000000000
8.155580194000,-0.164000000000
8.163266967000,-0.162000000000
8.170953740000,-0.162000000000
8.178640513000,-0.160000000000
8.186327286000,-0.155000000000
8.194014059000,-0.147000000000
8.201700832000,-0.142000000000
8.209387605000,-0.142000000000
8.217074378000,-0.137000000000
8.224761151000,-0.135000000000
8.232447924000,-0.135000000000
8.240134697000,-0.132000000000
8.247821470000,-0.135000000000
8.255508243000,-0.128000000000
8.263195016000,-0.105000000000
8.270881789000,-0.078000000000
8.278568562000,-0.066000000000
8.286255335000,-0.071000000000
8.293942108000,-0.073000000000
8.301628881000,-0.083000000000
8.309315654000,-0.115000000000
8.317002427000,-0.135000000000
8.324689200000,-0.128000000000
8.332375973000,-0.118000000000
8.340062746000,-0.118000000000
8.347749519000,-0.118000000000
8.355436292000,-0.115000000000
8.363123065000,-0.113000000000
8.370809838000,-0.113000000000
8.378496611000,-0.130000000000
8.386183384000,-0.182000000000
8.393870157000,-0.233000000000
8.401556930000,-0.078000000000
8.409243703000,0.484000000000
8.416930476000,1.304000000000
8.424617286000,1.925000000000
8.432303711000,1.506000000000
8.439990136000,0.019000000000
8.447676561000,-0.753000000000
8.455362986000,-0.288000000000
8.463049411000,-0.078000000000
8.470735836000,-0.288000000000
8.478422261000,-0.231000000000
8.486108686000,-0.132000000000
8.493795111000,-0.182000000000
8.501481536000,-0.169000000000
8.509167961000,-0.113000000000
8.516854386000,-0.110000000000
8.524540811000,-0.105000000000
8.532227236000,-0.068000000000
8.539913661000,-0.044000000000
8.547600086000,-0.029000000000
8.555286511000,0.000000000000
8.562972936000,0.029000000000
8.570659361000,0.059000000000
8.578345786000,0.093000000000
8.586032211000,0.132000000000
8.593718636000,0.169000000000
8.601405061000,0.206000000000
8.609091486000,0.251000000000
8.616777911000,0.295000000000
8.624464336000,0.322000000000
8.632150761000,0.329000000000
8.639837186000,0.334000000000
8.647523611000,0.322000000000
8.655210036000,0.295000000000
8.662896461000,0.260000000000
8.670582886000,0.206000000000
8.678269311000,0.130000000000
8.685955736000,0.034000000000
8.693642161000,-0.056000000000
8.701328586000,-0.137000000000
8.709015011000,-0.204000000000
8.716701436000,-0.246000000000
8.724387861000,-0.265000000000
8.732074286000,-0.278000000000
8.739760711000,-0.278000000000
8.747447136000,-0.270000000000
8.755133561000,-0.258000000000
8.762819986000,-0.246000000000
8.770506411000,-0.233000000000
8.778192836000,-0.221000000000
8.785879261000,-0.206000000000
8.793565686000,-0.201000000000
8.801252111000,-0.194000000000
8.808938536000,-0.184000000000
8.816624961000,-0.182000000000
8.824311386000,-0.179000000000
8.831997811000,-0.169000000000
8.839684236000,-0.162000000000
8.847370661000,-0.164000000000
8.855057086000,-0.164000000000
8.862743511000,-0.164000000000
8.870429936000,-0.167000000000
8.878116361000,-0.167000000000
8.885802786000,-0.164000000000
8.893489211000,-0.162000000000
8.901175636000,-0.160000000000
8.908862061000,-0.157000000000
8.916548486000,-0.157000000000
8.924234911000,-0.155000000000
8.931921336000,-0.150000000000
8.939607761000,-0.145000000000
8.947294186000,-0.142000000000
8.954980611000,-0.140000000000
8.962667036000,-0.137000000000
8.970353461000,-0.135000000000
8.978039886000,-0.130000000000
8.985726317000,-0.125000000000
8.993413020000,-0.125000000000
9.001099723000,-0.125000000000
9.008786426000,-0.118000000000
9.016473129000,-0.108000000000
9.024159832000,-0.086000000000
9.031846535000,-0.064000000000
9.039533238000,-0.056000000000
9.047219941000,-0.056000000000
9.054906644000,-0.056000000000
9.062593347000,-0.086000000000
9.070280050000,-0.120000000000
9.077966753000,-0.125000000000
9.085653456000,-0.115000000000
9.093340159000,-0.108000000000
9.101026862000,-0.103000000000
9.108713565000,-0.098000000000
9.116400268000,-0.096000000000
9.124086971000,-0.088000000000
9.131773674000,-0.098000000000
9.139460377000,-0.145000000000
9.147147080000,-0.211000000000
9.154833783000,-0.167000000000
9.162520486000,0.241000000000
9.170207189000,1.024000000000
9.177893892000,1.789000000000
9.185580595000,1.831000000000
9.193267298000,0.617000000000
9.200954001000,-0.630000000000
9.208640704000,-0.507000000000
9.216327407000,-0.066000000000
9.224014110000,-0.206000000000
9.231700813000,-0.258000000000
9.239387516000,-0.125000000000
9.247074219000,-0.142000000000
9.254760922000,-0.167000000000
9.262447625000,-0.108000000000
9.270134328000,-0.091000000000
9.277821031000,-0.091000000000
9.285507734000,-0.056000000000
9.293194437000,-0.029000000000
9.300881140000,-0.019000000000
9.308567843000,0.002000000000
9.316254546000,0.036000000000
9.323941249000,0.068000000000
9.331627952000,0.098000000000
9.339314655000,0.132000000000
9.347001358000,0.172000000000
9.354688061000,0.216000000000
9.362374764000,0.260000000000
9.370061467000,0.297000000000
9.377748170000,0.327000000000
9.385434873000,0.347000000000
9.393121576000,0.352000000000
9.400808279000,0.337000000000
9.408494982000,0.317000000000
9.416181685000,0.288000000000
9.423868388000,0.241000000000
9.431555091000,0.169000000000
9.439241794000,0.078000000000
9.446928497000,-0.024000000000
9.454615200000,-0.113000000000
9.462301903000,-0.182000000000
9.469988606000,-0.238000000000
9.477675309000,-0.273000000000
9.485362012000,-0.275000000000
9.493048715000,-0.278000000000
9.500735418000,-0.285000000000
9.508422121000,-0.275000000000
9.516108824000,-0.258000000000
9.523795527000,-0.246000000000
9.531482230000,-0.231000000000
9.539168933000,-0.219000000000
9.546855696000,-0.211000000000
9.554542469000,-0.199000000000
9.562229242000,-0.187000000000
9.569916015000,-0.182000000000
9.577602788000,-0.182000000000
9.585289561000,-0.179000000000
9.592976334000,-0.174000000000
9.600663107000,-0.169000000000
9.608349880000,-0.167000000000
9.616036653000,-0.167000000000
9.623723426000,-0.172000000000
9.631410199000,-0.174000000000
9.639096972000,-0.167000000000
9.646783745000,-0.167000000000
9.654470518000,-0.169000000000
9.662157291000,-0.164000000000
9.669844064000,-0.162000000000
9.677530837000,-0.162000000000
9.685217610000,-0.160000000000
9.692904383000,-0.155000000000
9.700591156000,-0.155000000000
9.708277929000,-0.150000000000
9.715964702000,-0.142000000000
9.723651475000,-0.140000000000
9.731338248000,-0.140000000000
9.739025021000,-0.140000000000
9.746711794000,-0.140000000000
9.754398567000,-0.137000000000
9.762085340000,-0.125000000000
9.769772113000,-0.098000000000
9.777458886000,-0.076000000000
9.785145659000,-0.073000000000
9.792832432000,-0.076000000000
9.800519205000,-0.078000000000
9.808205978000,-0.103000000000
9.815892751000,-0.135000000000
9.823579524000,-0.137000000000
9.831266297000,-0.123000000000
9.838953070000,-0.120000000000
9.846639843000,-0.120000000000
9.854326616000,-0.115000000000
9.862013389000,-0.115000000000
9.869700162000,-0.115000000000
9.877386935000,-0.128000000000
9.885073708000,-0.164000000000
9.892760481000,-0.224000000000
9.900447254000,-0.147000000000
9.908134027000,0.324000000000
9.915820800000,1.132000000000
9.923507573000,1.858000000000
9.931194346000,1.730000000000
9.938881119000,0.352000000000
9.946567892000,-0.748000000000
9.954254665000,-0.430000000000
9.961941438000,-0.059000000000
9.969628211000,-0.260000000000
9.977314984000,-0.265000000000
9.985001757000,-0.135000000000
9.992688530000,-0.172000000000
10.000375303000,-0.187000000000
10.008062076000,-0.125000000000
10.015748849000,-0.113000000000
10.023435622000,-0.113000000000
10.031122395000,-0.081000000000
10.038809168000,-0.056000000000
10.046495941000,-0.041000000000
10.054182714000,-0.014000000000
10.061869487000,0.017000000000
10.069556260000,0.044000000000
10.077243033000,0.076000000000
10.084929806000,0.113000000000
10.092616579000,0.152000000000
10.100303352000,0.194000000000
10.107990166000,0.238000000000
10.115676939000,0.278000000000
10.123363712000,0.302000000000
10.131050485000,0.320000000000
10.138737258000,0.320000000000
10.146424031000,0.305000000000
10.154110804000,0.283000000000
10.161797577000,0.251000000000
10.169484350000,0.199000000000
10.177171123000,0.123000000000
10.184857896000,0.032000000000
10.192544669000,-0.061000000000
10.200231442000,-0.142000000000
10.207918215000,-0.209000000000
10.215604988000,-0.256000000000
10.223291761000,-0.280000000000
10.230978534000,-0.290000000000
10.238665307000,-0.290000000000
10.246352080000,-0.283000000000
10.254038853000,-0.273000000000
10.261725626000,-0.260000000000
10.269412399000,-0.248000000000
10.277099172000,-0.236000000000
10.284785945000,-0.224000000000
10.292472718000,-0.214000000000
10.300159491000,-0.206000000000
10.307846264000,-0.199000000000
10.315533037000,-0.194000000000
10.323219810000,-0.189000000000
10.330906583000,-0.187000000000
10.338593356000,-0.182000000000
10.346280129000,-0.182000000000
10.353966902000,-0.182000000000
10.361653675000,-0.179000000000
10.369340448000,-0.179000000000
10.377027221000,-0.179000000000
10.384713994000,-0.177000000000
10.392400767000,-0.177000000000
10.400087540000,-0.174000000000
10.407774313000,-0.174000000000
10.415461086000,-0.172000000000
10.423147859000,-0.169000000000
10.430834632000,-0.164000000000
10.438521405000,-0.162000000000
10.446208178000,-0.160000000000
10.453894951000,-0.157000000000
10.461581724000,-0.150000000000
10.469268497000,-0.145000000000
10.476955270000,-0.142000000000
10.484642043000,-0.140000000000
10.492328816000,-0.135000000000
10.500015589000,-0.132000000000
10.507702362000,-0.132000000000
10.515389135000,-0.132000000000
10.523075908000,-0.125000000000
10.530762681000,-0.105000000000
10.538449454000,-0.081000000000
10.546136227000,-0.068000000000
10.553823000000,-0.071000000000
10.561509773000,-0.071000000000
10.569196546000,-0.078000000000
10.576883319000,-0.110000000000
10.584570092000,-0.135000000000
10.592256865000,-0.128000000000
10.599943638000,-0.118000000000
10.607630411000,-0.118000000000
10.615317184000,-0.115000000000
10.623003957000,-0.110000000000
10.630690730000,-0.110000000000
10.638377503000,-0.113000000000
10.646064276000,-0.130000000000
10.653751049000,-0.182000000000
10.661437822000,-0.228000000000
10.669124632000,-0.066000000000
10.676811405000,0.499000000000
10.684498178000,1.319000000000
10.692184951000,1.947000000000
10.699871724000,1.513000000000
10.707558497000,-0.007000000000
10.715245270000,-0.765000000000
10.722932043000,-0.265000000000
10.730618816000,-0.066000000000
10.738305589000,-0.295000000000
10.745992362000,-0.236000000000
10.753679135000,-0.132000000000
10.761365908000,-0.189000000000
10.769052681000,-0.179000000000
10.776739454000,-0.120000000000
10.784426227000,-0.115000000000
10.792113000000,-0.108000000000
10.799799773000,-0.076000000000
10.807486546000,-0.054000000000
10.815173319000,-0.036000000000
10.822860092000,-0.007000000000
10.830546865000,0.019000000000
10.838233638000,0.046000000000
10.845920411000,0.078000000000
10.853607184000,0.118000000000
10.861293957000,0.157000000000
10.868980730000,0.196000000000
10.876667503000,0.241000000000
10.884354276000,0.278000000000
10.892041049000,0.305000000000
10.899727822000,0.320000000000
10.907414595000,0.317000000000
10.915101368000,0.305000000000
10.922788141000,0.283000000000
10.930474914000,0.248000000000
10.938161687000,0.199000000000
10.945848460000,0.125000000000
10.953535233000,0.032000000000
10.961222006000,-0.061000000000
10.968908779000,-0.140000000000
10.976595552000,-0.206000000000
10.984282325000,-0.251000000000
10.991969098000,-0.273000000000
10.999655871000,-0.283000000000
11.007342644000,-0.280000000000
11.015029417000,-0.273000000000
11.022716190000,-0.263000000000
11.030402963000,-0.251000000000
11.038089736000,-0.238000000000
11.045776509000,-0.224000000000
11.053463282000,-0.214000000000
11.061150055000,-0.204000000000
11.068836828000,-0.196000000000
11.076523601000,-0.192000000000
11.084210374000,-0.189000000000
11.091897147000,-0.184000000000
11.099583920000,-0.182000000000
11.107270693000,-0.179000000000
11.114957466000,-0.177000000000
11.122644239000,-0.177000000000
11.130331012000,-0.177000000000
11.138017785000,-0.177000000000
11.145704558000,-0.177000000000
11.153391331000,-0.177000000000
11.161078104000,-0.174000000000
11.168764877000,-0.172000000000
11.176451650000,-0.172000000000
11.184138423000,-0.169000000000
11.191825196000,-0.164000000000
11.199511969000,-0.164000000000
11.207198742000,-0.160000000000
11.214885515000,-0.157000000000
11.222572288000,-0.155000000000
11.230259098000,-0.150000000000
11.237945592000,-0.147000000000
11.245632086000,-0.142000000000
11.253318580000,-0.137000000000
11.261005074000,-0.135000000000
11.268691568000,-0.137000000000
11.276378062000,-0.137000000000
11.284064556000,-0.128000000000
11.291751050000,-0.105000000000
11.299437544000,-0.081000000000
11.307124038000,-0.073000000000
11.314810532000,-0.078000000000
11.322497026000,-0.078000000000
11.330183520000,-0.093000000000
11.337870014000,-0.130000000000
11.345556508000,-0.145000000000
11.353243002000,-0.130000000000
11.360929496000,-0.125000000000
11.368615990000,-0.128000000000
11.376302484000,-0.123000000000
11.383988978000,-0.118000000000
11.391675472000,-0.115000000000
11.399361966000,-0.120000000000
11.407048460000,-0.145000000000
11.414734954000,-0.206000000000
11.422421448000,-0.226000000000
11.430107942000,0.039000000000
11.437794436000,0.699000000000
11.445480930000,1.523000000000
11.453167424000,1.962000000000
11.460853918000,1.166000000000
11.468540412000,-0.352000000000
11.476226906000,-0.701000000000
11.483913400000,-0.150000000000
11.491599894000,-0.132000000000
11.499286388000,-0.312000000000
11.506972882000,-0.196000000000
11.514659376000,-0.147000000000
11.522345870000,-0.199000000000
11.530032364000,-0.162000000000
11.537718858000,-0.118000000000
11.545405352000,-0.120000000000
11.553091846000,-0.103000000000
11.560778340000,-0.068000000000
11.568464834000,-0.051000000000
11.576151328000,-0.032000000000
11.583837822000,-0.002000000000
11.591524316000,0.027000000000
11.599210810000,0.054000000000
11.606897304000,0.088000000000
11.614583798000,0.128000000000
11.622270292000,0.167000000000
11.629956786000,0.209000000000
11.637643280000,0.248000000000
11.645329774000,0.285000000000
11.653016268000,0.307000000000
11.660702762000,0.317000000000
11.668389256000,0.312000000000
11.676075750000,0.297000000000
11.683762244000,0.273000000000
11.691448738000,0.238000000000
11.699135232000,0.182000000000
11.706821726000,0.100000000000
11.714508220000,0.007000000000
11.722194714000,-0.078000000000
11.729881208000,-0.155000000000
11.737567702000,-0.211000000000
11.745254196000,-0.248000000000
11.752940690000,-0.268000000000
11.760627184000,-0.273000000000
11.768313678000,-0.270000000000
11.776000172000,-0.260000000000
11.783686666000,-0.248000000000
11.791373216000,-0.236000000000
11.799059919000,-0.224000000000
11.806746622000,-0.211000000000
11.814433325000,-0.201000000000
11.822120028000,-0.192000000000
11.829806731000,-0.187000000000
11.837493434000,-0.179000000000
11.845180137000,-0.177000000000
11.852866840000,-0.174000000000
11.860553543000,-0.169000000000
11.868240246000,-0.167000000000
11.875926949000,-0.167000000000
11.883613652000,-0.164000000000
11.891300355000,-0.164000000000
11.898987058000,-0.164000000000
11.906673761000,-0.162000000000
11.914360464000,-0.162000000000
11.922047167000,-0.162000000000
11.929733870000,-0.160000000000
11.937420573000,-0.157000000000
11.945107276000,-0.155000000000
11.952793979000,-0.152000000000
11.960480682000,-0.150000000000
11.968167385000,-0.147000000000
11.975854088000,-0.142000000000
11.983540791000,-0.140000000000
11.991227494000,-0.135000000000
11.998914197000,-0.130000000000
12.006600900000,-0.128000000000
12.014287603000,-0.128000000000
12.021974306000,-0.128000000000
12.029661009000,-0.123000000000
12.037347712000,-0.105000000000
12.045034415000,-0.078000000000
12.052721118000,-0.064000000000
12.060407821000,-0.066000000000
12.068094524000,-0.066000000000
12.075781227000,-0.071000000000
12.083467930000,-0.103000000000
12.091154633000,-0.130000000000
12.098841336000,-0.123000000000
12.106528039000,-0.113000000000
12.114214742000,-0.113000000000
12.121901445000,-0.110000000000
12.129588148000,-0.105000000000
12.137274851000,-0.103000000000
12.144961554000,-0.105000000000
12.152648257000,-0.123000000000
12.160334960000,-0.172000000000
12.168021663000,-0.228000000000
12.175708366000,-0.105000000000
12.183395069000,0.416000000000
12.191081772000,1.223000000000
12.198768475000,1.905000000000
12.206455178000,1.637000000000
12.214141881000,0.184000000000
12.221828584000,-0.745000000000
12.229515287000,-0.342000000000
12.237201990000,-0.056000000000
12.244888693000,-0.270000000000
12.252575396000,-0.248000000000
12.260262099000,-0.135000000000
12.267948802000,-0.179000000000
12.275635505000,-0.182000000000
12.283322208000,-0.123000000000
12.291008911000,-0.115000000000
12.298695614000,-0.110000000000
12.306382317000,-0.076000000000
12.314069020000,-0.054000000000
12.321755723000,-0.039000000000
12.329442426000,-0.007000000000
12.337129129000,0.019000000000
12.344815832000,0.041000000000
12.352502595000,0.076000000000
12.360189298000,0.118000000000
12.367876001000,0.155000000000
12.375562704000,0.194000000000
12.383249407000,0.236000000000
12.390936110000,0.273000000000
12.398622813000,0.305000000000
12.406309516000,0.320000000000
12.413996219000,0.317000000000
12.421682922000,0.307000000000
12.429369625000,0.288000000000
12.437056328000,0.256000000000
12.444743031000,0.204000000000
12.452429734000,0.132000000000
12.460116437000,0.039000000000
12.467803140000,-0.054000000000
12.475489843000,-0.135000000000
12.483176546000,-0.199000000000
12.490863249000,-0.243000000000
12.498549952000,-0.268000000000
12.506236655000,-0.275000000000
12.513923358000,-0.280000000000
12.521610061000,-0.275000000000
12.529296764000,-0.260000000000
12.536983467000,-0.243000000000
12.544670170000,-0.233000000000
12.552356873000,-0.226000000000
12.560043576000,-0.216000000000
12.567730279000,-0.204000000000
12.575416982000,-0.189000000000
12.583103685000,-0.182000000000
12.590790388000,-0.184000000000
12.598477091000,-0.184000000000
12.606163794000,-0.177000000000
12.613850497000,-0.172000000000
12.621537200000,-0.172000000000
12.629223903000,-0.169000000000
12.636910606000,-0.172000000000
12.644597309000,-0.174000000000
12.652284012000,-0.172000000000
12.659970715000,-0.169000000000
12.667657418000,-0.172000000000
12.675344121000,-0.167000000000
12.683030824000,-0.164000000000
12.690717527000,-0.164000000000
12.698404230000,-0.160000000000
12.706090933000,-0.155000000000
12.713777636000,-0.160000000000
12.721464339000,-0.157000000000
12.729151042000,-0.147000000000
12.736837745000,-0.140000000000
12.744524448000,-0.140000000000
12.752211151000,-0.142000000000
12.759897854000,-0.140000000000
12.767584557000,-0.132000000000
12.775271260000,-0.113000000000
12.782957963000,-0.083000000000
12.790644666000,-0.068000000000
12.798331369000,-0.078000000000
12.806018072000,-0.078000000000
12.813704775000,-0.088000000000
12.821391478000,-0.128000000000
12.829078181000,-0.142000000000
12.836764884000,-0.125000000000
12.844451587000,-0.128000000000
12.852138290000,-0.130000000000
12.859824993000,-0.115000000000
12.867511696000,-0.110000000000
12.875198399000,-0.120000000000
12.882885102000,-0.125000000000
12.890571805000,-0.137000000000
12.898258508000,-0.194000000000
12.905945211000,-0.236000000000
12.913631974000,-0.029000000000
12.921318677000,0.605000000000
12.929005380000,1.452000000000
12.936692083000,1.964000000000
12.944378786000,1.307000000000
12.952065489000,-0.214000000000
12.959752192000,-0.738000000000
12.967438895000,-0.216000000000
12.975125598000,-0.120000000000
12.982812301000,-0.300000000000
12.990499004000,-0.204000000000
12.998185707000,-0.140000000000
13.005872410000,-0.189000000000
13.013559113000,-0.162000000000
13.021245816000,-0.118000000000
13.028932519000,-0.115000000000
13.036619222000,-0.103000000000
13.044305925000,-0.076000000000
13.051992628000,-0.049000000000
13.059679331000,-0.024000000000
13.067366034000,0.000000000000
13.075052737000,0.027000000000
13.082739440000,0.061000000000
13.090426143000,0.096000000000
13.098112846000,0.132000000000
13.105799549000,0.179000000000
13.113486252000,0.224000000000
13.121172955000,0.258000000000
13.128859658000,0.292000000000
13.136546361000,0.322000000000
13.144233064000,0.329000000000
13.151919767000,0.327000000000
13.159606470000,0.315000000000
13.167293173000,0.292000000000
13.174979876000,0.253000000000
13.182666579000,0.184000000000
13.190353282000,0.098000000000
13.198039985000,0.000000000000
13.205726688000,-0.096000000000
13.213413391000,-0.179000000000
13.221100094000,-0.241000000000
13.228786797000,-0.280000000000
13.236473500000,-0.295000000000
13.244160203000,-0.300000000000
13.251846906000,-0.297000000000
13.259533609000,-0.290000000000
13.267220312000,-0.283000000000
13.274907015000,-0.273000000000
13.282593718000,-0.258000000000
13.290280421000,-0.246000000000
13.297967124000,-0.233000000000
13.305653827000,-0.226000000000
13.313340530000,-0.216000000000
13.321027233000,-0.201000000000
13.328713936000,-0.194000000000
13.336400639000,-0.192000000000
13.344087342000,-0.194000000000
13.351774045000,-0.196000000000
13.359460748000,-0.192000000000
13.367147451000,-0.184000000000
13.374834154000,-0.184000000000
13.382520857000,-0.189000000000
13.390207560000,-0.192000000000
13.397894263000,-0.189000000000
13.405580966000,-0.189000000000
13.413267669000,-0.192000000000
13.420954372000,-0.184000000000
13.428641075000,-0.179000000000
13.436327778000,-0.179000000000
13.444014481000,-0.174000000000
13.451701184000,-0.167000000000
13.459387887000,-0.167000000000
13.467074590000,-0.167000000000
13.474761357000,-0.167000000000
13.482448060000,-0.169000000000
13.490134763000,-0.164000000000
13.497821466000,-0.140000000000
13.505508169000,-0.108000000000
13.513194872000,-0.093000000000
13.520881575000,-0.098000000000
13.528568278000,-0.100000000000
13.536254981000,-0.108000000000
13.543941684000,-0.140000000000
13.551628387000,-0.157000000000
13.559315090000,-0.150000000000
13.567001793000,-0.145000000000
13.574688496000,-0.145000000000
13.582375199000,-0.135000000000
13.590061902000,-0.130000000000
13.597748605000,-0.130000000000
13.605435308000,-0.132000000000
13.613122011000,-0.150000000000
13.620808714000,-0.201000000000
13.628495417000,-0.260000000000
13.636182120000,-0.118000000000
13.643868823000,0.465000000000
13.651555526000,1.314000000000
13.659242229000,1.910000000000
13.666928932000,1.454000000000
13.674615635000,-0.034000000000
13.682302338000,-0.782000000000
13.689989041000,-0.302000000000
13.697675744000,-0.100000000000
13.705362447000,-0.300000000000
13.713049150000,-0.226000000000
13.720735853000,-0.135000000000
13.728422556000,-0.192000000000
13.736109259000,-0.174000000000
13.743795962000,-0.115000000000
13.751482665000,-0.115000000000
13.759169368000,-0.108000000000
13.766856071000,-0.073000000000
13.774542774000,-0.054000000000
13.782229477000,-0.034000000000
13.789916180000,-0.007000000000
13.797602883000,0.019000000000
13.805289586000,0.049000000000
13.812976289000,0.086000000000
13.820662992000,0.128000000000
13.828349695000,0.167000000000
13.836036398000,0.209000000000
13.843723101000,0.253000000000
13.851409804000,0.288000000000
13.859096507000,0.312000000000
13.866783210000,0.322000000000
13.874469913000,0.315000000000
13.882156616000,0.297000000000
13.889843319000,0.270000000000
13.897530022000,0.231000000000
13.905216725000,0.169000000000
13.912903428000,0.086000000000
13.920590131000,-0.014000000000
13.928276834000,-0.108000000000
13.935963537000,-0.187000000000
13.943650240000,-0.248000000000
13.951336943000,-0.288000000000
13.959023646000,-0.307000000000
13.966710349000,-0.315000000000
13.974397052000,-0.312000000000
13.982083755000,-0.305000000000
13.989770458000,-0.290000000000
13.997457161000,-0.278000000000
14.005143864000,-0.268000000000
14.012830567000,-0.253000000000
14.020517270000,-0.241000000000
14.028203973000,-0.228000000000
14.035890736000,-0.221000000000
14.043577439000,-0.214000000000
14.051264142000,-0.206000000000
14.058950845000,-0.204000000000
14.066637548000,-0.199000000000
14.074324251000,-0.194000000000
14.082010954000,-0.194000000000
14.089697657000,-0.194000000000
14.097384360000,-0.192000000000
14.105071063000,-0.189000000000
14.112757766000,-0.192000000000
14.120444469000,-0.192000000000
14.128131172000,-0.192000000000
14.135817875000,-0.189000000000
14.143504578000,-0.189000000000
14.151191281000,-0.187000000000
14.158877984000,-0.184000000000
14.166564687000,-0.179000000000
14.174251390000,-0.179000000000
14.181938093000,-0.174000000000
14.189624796000,-0.169000000000
14.197311499000,-0.162000000000
14.204998202000,-0.160000000000
14.212684905000,-0.162000000000
14.220371608000,-0.162000000000
14.228058311000,-0.152000000000
14.235745014000,-0.128000000000
14.243431717000,-0.103000000000
14.251118420000,-0.098000000000
14.258805123000,-0.100000000000
14.266491826000,-0.100000000000
14.274178529000,-0.118000000000
14.281865232000,-0.152000000000
14.289551935000,-0.162000000000
14.297238638000,-0.150000000000
14.304925341000,-0.142000000000
14.312612044000,-0.142000000000
14.320298747000,-0.137000000000
14.327985450000,-0.135000000000
14.335672153000,-0.135000000000
14.343358856000,-0.142000000000
14.351045559000,-0.172000000000
14.358732262000,-0.236000000000
14.366418965000,-0.236000000000
14.374105668000,0.088000000000
14.381792371000,0.814000000000
14.389479074000,1.651000000000
14.397165777000,1.944000000000
14.404852480000,0.918000000000
14.412539183000,-0.544000000000
14.420225886000,-0.659000000000
14.427912589000,-0.113000000000
14.435599292000,-0.187000000000
14.443285995000,-0.329000000000
14.450972698000,-0.194000000000
14.458659401000,-0.172000000000
14.466346104000,-0.219000000000
14.474032807000,-0.169000000000
14.481719510000,-0.132000000000
14.489406213000,-0.137000000000
14.497092916000,-0.115000000000
14.504779619000,-0.083000000000
14.512466322000,-0.068000000000
14.520153025000,-0.046000000000
14.527839728000,-0.017000000000
14.535526431000,0.012000000000
14.543213134000,0.041000000000
14.550899837000,0.078000000000
14.558586540000,0.120000000000
14.566273243000,0.162000000000
14.573959946000,0.206000000000
14.581646649000,0.251000000000
14.589333352000,0.285000000000
14.597020115000,0.307000000000
14.604706818000,0.315000000000
14.612393521000,0.307000000000
14.620080224000,0.290000000000
14.627766927000,0.263000000000
14.635453630000,0.219000000000
14.643140333000,0.152000000000
14.650827036000,0.059000000000
14.658513739000,-0.041000000000
14.666200442000,-0.130000000000
14.673887145000,-0.204000000000
14.681573848000,-0.258000000000
14.689260551000,-0.292000000000
14.696947254000,-0.305000000000
14.704633957000,-0.310000000000
14.712320660000,-0.305000000000
14.720007363000,-0.295000000000
14.727694066000,-0.283000000000
14.735380769000,-0.270000000000
14.743067472000,-0.258000000000
14.750754175000,-0.246000000000
14.758440878000,-0.236000000000
14.766127581000,-0.226000000000
14.773814284000,-0.216000000000
14.781500987000,-0.211000000000
14.789187690000,-0.204000000000
14.796874393000,-0.201000000000
14.804561096000,-0.199000000000
14.812247799000,-0.196000000000
14.819934502000,-0.194000000000
14.827621205000,-0.194000000000
14.835307908000,-0.194000000000
14.842994611000,-0.192000000000
14.850681314000,-0.192000000000
14.858368017000,-0.192000000000
14.866054720000,-0.189000000000
14.873741423000,-0.187000000000
14.881428126000,-0.184000000000
14.889114829000,-0.184000000000
14.896801532000,-0.182000000000
14.904488235000,-0.177000000000
14.912174938000,-0.174000000000
14.919861641000,-0.172000000000
14.927548344000,-0.169000000000
14.935235047000,-0.162000000000
14.942921750000,-0.157000000000
14.950608453000,-0.157000000000
14.958295156000,-0.157000000000
14.965981859000,-0.152000000000
14.973668562000,-0.137000000000
14.981355265000,-0.110000000000
14.989041968000,-0.093000000000
14.996728671000,-0.096000000000
15.004415374000,-0.096000000000
15.012102077000,-0.098000000000
15.019788780000,-0.128000000000
15.027475483000,-0.155000000000
15.035162186000,-0.152000000000
15.042848889000,-0.137000000000
15.050535592000,-0.137000000000
15.058222295000,-0.137000000000
15.065908998000,-0.130000000000
15.073595701000,-0.130000000000
15.081282404000,-0.128000000000
15.088969107000,-0.137000000000
15.096655810000,-0.174000000000
15.104342513000,-0.241000000000
15.112029216000,-0.192000000000
15.119715919000,0.221000000000
15.127402622000,0.974000000000
15.135089325000,1.757000000000
15.142776028000,1.856000000000
15.150462731000,0.617000000000
15.158149494000,-0.681000000000
15.165836128000,-0.536000000000
15.173522762000,-0.071000000000
15.181209396000,-0.238000000000
15.188896030000,-0.312000000000
15.196582664000,-0.172000000000
15.204269298000,-0.184000000000
15.211955932000,-0.219000000000
15.219642566000,-0.157000000000
15.227329200000,-0.132000000000
15.235015834000,-0.135000000000
15.242702468000,-0.108000000000
15.250389102000,-0.081000000000
15.258075736000,-0.064000000000
15.265762370000,-0.039000000000
15.273449004000,-0.009000000000
15.281135638000,0.017000000000
15.288822272000,0.049000000000
15.296508906000,0.088000000000
15.304195540000,0.125000000000
15.311882174000,0.167000000000
15.319568808000,0.211000000000
15.327255442000,0.253000000000
15.334942076000,0.285000000000
15.342628710000,0.302000000000
15.350315344000,0.307000000000
15.358001978000,0.300000000000
15.365688612000,0.283000000000
15.373375246000,0.256000000000
15.381061880000,0.211000000000
15.388748514000,0.142000000000
15.396435148000,0.049000000000
15.404121782000,-0.046000000000
15.411808416000,-0.132000000000
15.419495050000,-0.204000000000
15.427181684000,-0.256000000000
15.434868318000,-0.285000000000
15.442554952000,-0.297000000000
15.450241586000,-0.300000000000
15.457928220000,-0.295000000000
15.465614854000,-0.285000000000
15.473301488000,-0.273000000000
15.480988122000,-0.263000000000
15.488674756000,-0.251000000000
15.496361390000,-0.238000000000
15.504048024000,-0.226000000000
15.511734658000,-0.219000000000
15.519421292000,-0.211000000000
15.527107926000,-0.204000000000
15.534794560000,-0.199000000000
15.542481194000,-0.196000000000
15.550167828000,-0.194000000000
15.557854462000,-0.192000000000
15.565541096000,-0.189000000000
15.573227730000,-0.189000000000
15.580914364000,-0.187000000000
15.588600998000,-0.187000000000
15.596287632000,-0.184000000000
15.603974266000,-0.182000000000
15.611660900000,-0.182000000000
15.619347534000,-0.179000000000
15.627034168000,-0.177000000000
15.634720802000,-0.174000000000
15.642407436000,-0.169000000000
15.650094070000,-0.167000000000
15.657780704000,-0.164000000000
15.665467338000,-0.162000000000
15.673153972000,-0.155000000000
15.680840606000,-0.150000000000
15.688527240000,-0.147000000000
15.696213874000,-0.142000000000
15.703900508000,-0.140000000000
15.711587142000,-0.135000000000
15.719273790000,-0.132000000000
15.726960563000,-0.132000000000
15.734647336000,-0.130000000000
15.742334109000,-0.125000000000
15.750020882000,-0.105000000000
15.757707655000,-0.081000000000
15.765394428000,-0.066000000000
15.773081201000,-0.071000000000
15.780767974000,-0.076000000000
15.788454747000,-0.081000000000
15.796141520000,-0.113000000000
15.803828293000,-0.137000000000
15.811515066000,-0.132000000000
15.819201839000,-0.120000000000
15.826888612000,-0.118000000000
15.834575385000,-0.118000000000
15.842262158000,-0.113000000000
15.849948931000,-0.113000000000
15.857635704000,-0.110000000000
15.865322477000,-0.120000000000
15.873009250000,-0.160000000000
15.880696023000,-0.224000000000
15.888382796000,-0.162000000000
15.896069569000,0.258000000000
15.903756342000,1.014000000000
15.911443115000,1.784000000000
15.919129888000,1.821000000000
15.926816661000,0.536000000000
15.934503434000,-0.689000000000
15.942190207000,-0.482000000000
15.949876980000,-0.059000000000
15.957563753000,-0.241000000000
15.965250526000,-0.288000000000
15.972937299000,-0.152000000000
15.980624072000,-0.174000000000
15.988310845000,-0.201000000000
15.995997618000,-0.140000000000
16.003684391000,-0.120000000000
16.011371164000,-0.123000000000
16.019057937000,-0.093000000000
16.026744710000,-0.068000000000
16.034431483000,-0.051000000000
16.042118256000,-0.027000000000
16.049805029000,0.000000000000
16.057491802000,0.027000000000
16.065178575000,0.059000000000
16.072865348000,0.093000000000
16.080552121000,0.132000000000
16.088238894000,0.172000000000
16.095925667000,0.214000000000
16.103612440000,0.253000000000
16.111299213000,0.285000000000
16.118985986000,0.305000000000
16.126672759000,0.312000000000
16.134359532000,0.305000000000
16.142046305000,0.290000000000
16.149733078000,0.263000000000
16.157419851000,0.221000000000
16.165106624000,0.157000000000
16.172793397000,0.068000000000
16.180480170000,-0.027000000000
16.188166943000,-0.113000000000
16.195853716000,-0.182000000000
16.203540489000,-0.236000000000
16.211227262000,-0.268000000000
16.218914035000,-0.283000000000
16.226600808000,-0.285000000000
16.234287581000,-0.283000000000
16.241974354000,-0.273000000000
16.249661127000,-0.260000000000
16.257347900000,-0.251000000000
16.265034673000,-0.236000000000
16.272721446000,-0.224000000000
16.280408256000,-0.211000000000
16.288094959000,-0.204000000000
16.295781662000,-0.199000000000
16.303468365000,-0.194000000000
16.311155068000,-0.189000000000
16.318841771000,-0.187000000000
16.326528474000,-0.184000000000
16.334215177000,-0.184000000000
16.341901880000,-0.182000000000
16.349588583000,-0.179000000000
16.357275286000,-0.179000000000
16.364961989000,-0.179000000000
16.372648692000,-0.177000000000
16.380335395000,-0.177000000000
16.388022098000,-0.174000000000
16.395708801000,-0.174000000000
16.403395504000,-0.172000000000
16.411082207000,-0.167000000000
16.418768910000,-0.164000000000
16.426455613000,-0.162000000000
16.434142316000,-0.162000000000
16.441829019000,-0.155000000000
16.449515722000,-0.150000000000
16.457202425000,-0.142000000000
16.464889128000,-0.140000000000
16.472575831000,-0.137000000000
16.480262534000,-0.135000000000
16.487949237000,-0.132000000000
16.495635940000,-0.132000000000
16.503322643000,-0.125000000000
16.511009346000,-0.120000000000
16.518696049000,-0.123000000000
16.526382752000,-0.123000000000
16.534069455000,-0.115000000000
16.541756158000,-0.088000000000
16.549442861000,-0.061000000000
16.557129564000,-0.056000000000
16.564816267000,-0.061000000000
16.572502970000,-0.066000000000
16.580189673000,-0.083000000000
16.587876376000,-0.118000000000
16.595563079000,-0.130000000000
16.603249782000,-0.113000000000
16.610936485000,-0.108000000000
16.618623188000,-0.113000000000
16.626309891000,-0.110000000000
16.633996594000,-0.103000000000
16.641683297000,-0.098000000000
16.649370000000,-0.103000000000
16.657056703000,-0.125000000000
16.664743406000,-0.182000000000
16.672430109000,-0.221000000000
16.680116812000,-0.014000000000
16.687803515000,0.608000000000
16.695490218000,1.442000000000
16.703176921000,1.962000000000
16.710863624000,1.314000000000
16.718550327000,-0.206000000000
16.726237030000,-0.721000000000
16.733923733000,-0.189000000000
16.741610436000,-0.103000000000
16.749297139000,-0.297000000000
16.756983842000,-0.199000000000
16.764670545000,-0.130000000000
16.772357248000,-0.187000000000
16.780043951000,-0.160000000000
16.787730654000,-0.105000000000
16.795417357000,-0.108000000000
16.803104060000,-0.096000000000
16.810790763000,-0.059000000000
16.818477466000,-0.044000000000
16.826164169000,-0.032000000000
16.833850872000,-0.002000000000
16.841537635000,0.029000000000
16.849223920000,0.059000000000
16.856910205000,0.098000000000
16.864596490000,0.135000000000
16.872282775000,0.169000000000
16.879969060000,0.216000000000
16.887655345000,0.260000000000
16.895341630000,0.295000000000
16.903027915000,0.324000000000
16.910714200000,0.339000000000
16.918400485000,0.339000000000
16.926086770000,0.329000000000
16.933773055000,0.307000000000
16.941459340000,0.268000000000
16.949145625000,0.216000000000
16.956831910000,0.142000000000
16.964518195000,0.046000000000
16.972204480000,-0.051000000000
16.979890765000,-0.140000000000
16.987577050000,-0.211000000000
16.995263335000,-0.253000000000
17.002949620000,-0.270000000000
17.010635905000,-0.278000000000
17.018322190000,-0.283000000000
17.026008475000,-0.283000000000
17.033694760000,-0.268000000000
17.041381045000,-0.256000000000
17.049067330000,-0.243000000000
17.056753615000,-0.231000000000
17.064439900000,-0.219000000000
17.072126185000,-0.206000000000
17.079812470000,-0.199000000000
17.087498755000,-0.192000000000
17.095185040000,-0.189000000000
17.102871325000,-0.192000000000
17.110557610000,-0.187000000000
17.118243895000,-0.179000000000
17.125930180000,-0.174000000000
17.133616465000,-0.177000000000
17.141302750000,-0.179000000000
17.148989035000,-0.177000000000
17.156675320000,-0.172000000000
17.164361605000,-0.167000000000
17.172047890000,-0.167000000000
17.179734175000,-0.169000000000
17.187420460000,-0.172000000000
17.195106745000,-0.172000000000
17.202793030000,-0.167000000000
17.210479315000,-0.162000000000
17.218165600000,-0.160000000000
17.225851885000,-0.157000000000
17.233538170000,-0.152000000000
17.241224455000,-0.150000000000
17.248910740000,-0.142000000000
17.256597025000,-0.137000000000
17.264283310000,-0.135000000000
17.271969595000,-0.130000000000
17.279655880000,-0.125000000000
17.287342165000,-0.128000000000
17.295028450000,-0.130000000000
17.302714735000,-0.128000000000
17.310401020000,-0.120000000000
17.318087305000,-0.093000000000
17.325773590000,-0.066000000000
17.333459875000,-0.064000000000
17.341146160000,-0.071000000000
17.348832445000,-0.066000000000
17.356518730000,-0.083000000000
17.364205015000,-0.128000000000
17.371891300000,-0.142000000000
17.379577585000,-0.120000000000
17.387263870000,-0.113000000000
17.394950155000,-0.120000000000
17.402636496000,-0.113000000000
17.410323199000,-0.103000000000
17.418009902000,-0.108000000000
17.425696605000,-0.113000000000
17.433383308000,-0.130000000000
17.441070011000,-0.189000000000
17.448756714000,-0.228000000000
17.456443417000,0.000000000000
17.464130120000,0.659000000000
17.471816823000,1.484000000000
17.479503526000,1.927000000000
17.487190229000,1.225000000000
17.494876932000,-0.260000000000
17.502563635000,-0.718000000000
17.510250338000,-0.194000000000
17.517937041000,-0.123000000000
17.525623744000,-0.297000000000
17.533310447000,-0.187000000000
17.540997150000,-0.132000000000
17.548683853000,-0.184000000000
17.556370556000,-0.152000000000
17.564057259000,-0.108000000000
17.571743962000,-0.110000000000
17.579430665000,-0.091000000000
17.587117368000,-0.059000000000
17.594804071000,-0.044000000000
17.602490774000,-0.022000000000
17.610177477000,0.009000000000
17.617864180000,0.036000000000
17.625550883000,0.064000000000
17.633237586000,0.100000000000
17.640924289000,0.137000000000
17.648610992000,0.179000000000
17.656297695000,0.224000000000
17.663984398000,0.265000000000
17.671671101000,0.302000000000
17.679357804000,0.329000000000
17.687044507000,0.344000000000
17.694731210000,0.339000000000
17.702417913000,0.324000000000
17.710104616000,0.302000000000
17.717791319000,0.263000000000
17.725478022000,0.204000000000
17.733164725000,0.123000000000
17.740851428000,0.027000000000
17.748538131000,-0.068000000000
17.756224834000,-0.155000000000
17.763911537000,-0.221000000000
17.771598240000,-0.265000000000
17.779284943000,-0.288000000000
17.786971646000,-0.295000000000
17.794658349000,-0.297000000000
17.802345052000,-0.290000000000
17.810031755000,-0.280000000000
17.817718458000,-0.270000000000
17.825405161000,-0.258000000000
17.833091864000,-0.243000000000
17.840778567000,-0.231000000000
17.848465270000,-0.221000000000
17.856151973000,-0.211000000000
17.863838676000,-0.204000000000
17.871525379000,-0.199000000000
17.879212082000,-0.194000000000
17.886898785000,-0.189000000000
17.894585488000,-0.187000000000
17.902272191000,-0.187000000000
17.909958894000,-0.184000000000
17.917645597000,-0.182000000000
17.925332300000,-0.182000000000
17.933019003000,-0.184000000000
17.940705706000,-0.184000000000
17.948392409000,-0.184000000000
17.956079112000,-0.184000000000
17.963765875000,-0.184000000000
17.971452578000,-0.179000000000
17.979139281000,-0.177000000000
17.986825984000,-0.174000000000
17.994512687000,-0.172000000000
18.002199390000,-0.167000000000
18.009886093000,-0.164000000000
18.017572796000,-0.162000000000
18.025259499000,-0.157000000000
18.032946202000,-0.155000000000
18.040632905000,-0.152000000000
18.048319608000,-0.150000000000
18.056006311000,-0.145000000000
18.063693014000,-0.140000000000
18.071379717000,-0.140000000000
18.079066420000,-0.140000000000
18.086753123000,-0.135000000000
18.094439826000,-0.120000000000
18.102126529000,-0.098000000000
18.109813232000,-0.081000000000
18.117499935000,-0.081000000000
18.125186638000,-0.083000000000
18.132873341000,-0.083000000000
18.140560044000,-0.108000000000
18.148246747000,-0.142000000000
18.155933450000,-0.145000000000
18.163620153000,-0.130000000000
18.171306856000,-0.128000000000
18.178993559000,-0.128000000000
18.186680262000,-0.123000000000
18.194366965000,-0.118000000000
18.202053668000,-0.118000000000
18.209740371000,-0.125000000000
18.217427074000,-0.157000000000
18.225113777000,-0.224000000000
18.232800480000,-0.201000000000
18.240487183000,0.164000000000
18.248173886000,0.901000000000
18.255860589000,1.701000000000
18.263547292000,1.890000000000
18.271233995000,0.763000000000
18.278920698000,-0.612000000000
18.286607401000,-0.583000000000
18.294294104000,-0.076000000000
18.301980807000,-0.204000000000
18.309667510000,-0.310000000000
18.317354213000,-0.167000000000
18.325040916000,-0.164000000000
18.332727619000,-0.206000000000
18.340414322000,-0.150000000000
18.348101025000,-0.123000000000
18.355787728000,-0.128000000000
18.363474431000,-0.100000000000
18.371161134000,-0.071000000000
18.378847837000,-0.056000000000
18.386534540000,-0.034000000000
18.394221243000,-0.004000000000
18.401907946000,0.019000000000
18.409594649000,0.049000000000
18.417281352000,0.083000000000
18.424968055000,0.123000000000
18.432654758000,0.164000000000
18.440341461000,0.206000000000
18.448028164000,0.248000000000
18.455714867000,0.283000000000
18.463401570000,0.307000000000
18.471088273000,0.315000000000
18.478774976000,0.312000000000
18.486461679000,0.295000000000
18.494148382000,0.270000000000
18.501835085000,0.233000000000
18.509521788000,0.172000000000
18.517208491000,0.088000000000
18.524895254000,-0.007000000000
18.532581957000,-0.100000000000
18.540268660000,-0.177000000000
18.547955363000,-0.236000000000
18.555642066000,-0.275000000000
18.563328769000,-0.292000000000
18.571015472000,-0.300000000000
18.578702175000,-0.297000000000
18.586388878000,-0.288000000000
18.594075581000,-0.275000000000
18.601762284000,-0.263000000000
18.609448987000,-0.251000000000
18.617135690000,-0.238000000000
18.624822393000,-0.226000000000
18.632509096000,-0.216000000000
18.640195799000,-0.209000000000
18.647882502000,-0.201000000000
18.655569205000,-0.199000000000
18.663255908000,-0.196000000000
18.670942611000,-0.194000000000
18.678629314000,-0.189000000000
18.686316017000,-0.189000000000
18.694002720000,-0.189000000000
18.701689423000,-0.187000000000
18.709376126000,-0.187000000000
18.717062829000,-0.187000000000
18.724749532000,-0.184000000000
18.732436235000,-0.184000000000
18.740122938000,-0.184000000000
18.747809641000,-0.182000000000
18.755496344000,-0.177000000000
18.763183047000,-0.174000000000
18.770869750000,-0.172000000000
18.778556453000,-0.169000000000
18.786243156000,-0.164000000000
18.793929859000,-0.162000000000
18.801616562000,-0.157000000000
18.809303265000,-0.152000000000
18.816989968000,-0.150000000000
18.824676671000,-0.145000000000
18.832363374000,-0.142000000000
18.840050077000,-0.140000000000
18.847736780000,-0.135000000000
18.855423483000,-0.130000000000
18.863110186000,-0.128000000000
18.870796889000,-0.130000000000
18.878483592000,-0.130000000000
18.886170295000,-0.120000000000
18.893856998000,-0.098000000000
18.901543701000,-0.078000000000
18.909230404000,-0.071000000000
18.916917107000,-0.073000000000
18.924603810000,-0.073000000000
18.932290513000,-0.088000000000
18.939977216000,-0.120000000000
18.947663919000,-0.140000000000
18.955350622000,-0.130000000000
18.963037325000,-0.123000000000
18.970724028000,-0.123000000000
18.978410731000,-0.118000000000
18.986097434000,-0.113000000000
18.993784137000,-0.110000000000
19.001470840000,-0.115000000000
19.009157543000,-0.137000000000
19.016844246000,-0.194000000000
19.024530949000,-0.219000000000
19.032217652000,0.022000000000
19.039904355000,0.657000000000
19.047591058000,1.477000000000
19.055277761000,1.954000000000
19.062964464000,1.223000000000
19.070651167000,-0.300000000000
19.078337870000,-0.713000000000
19.086024633000,-0.162000000000
19.093711336000,-0.120000000000
19.101398039000,-0.312000000000
19.109084742000,-0.204000000000
19.116771445000,-0.147000000000
19.124458148000,-0.201000000000
19.132144851000,-0.169000000000
19.139831554000,-0.123000000000
19.147518257000,-0.125000000000
19.155204960000,-0.108000000000
19.162891663000,-0.076000000000
19.170578366000,-0.061000000000
19.178265069000,-0.041000000000
19.185951772000,-0.012000000000
19.193638475000,0.014000000000
19.201325178000,0.039000000000
19.209011881000,0.073000000000
19.216698584000,0.110000000000
19.224385287000,0.150000000000
19.232071990000,0.189000000000
19.239758693000,0.231000000000
19.247445396000,0.270000000000
19.255132099000,0.295000000000
19.262818802000,0.310000000000
19.270505505000,0.310000000000
19.278192208000,0.295000000000
19.285878911000,0.273000000000
19.293565614000,0.243000000000
19.301252317000,0.194000000000
19.308939020000,0.120000000000
19.316625723000,0.032000000000
19.324312426000,-0.059000000000
19.331999129000,-0.142000000000
19.339685832000,-0.209000000000
19.347372535000,-0.253000000000
19.355059238000,-0.278000000000
19.362745941000,-0.290000000000
19.370432644000,-0.290000000000
19.378119347000,-0.283000000000
19.385806050000,-0.273000000000
19.393492753000,-0.260000000000
19.401179456000,-0.248000000000
19.408866159000,-0.236000000000
19.416552862000,-0.224000000000
19.424239565000,-0.214000000000
19.431926268000,-0.209000000000
19.439612971000,-0.201000000000
19.447299674000,-0.196000000000
19.454986377000,-0.194000000000
19.462673080000,-0.192000000000
19.470359783000,-0.189000000000
19.478046486000,-0.189000000000
19.485733189000,-0.187000000000
19.493419892000,-0.184000000000
19.501106595000,-0.184000000000
19.508793298000,-0.182000000000
19.516480001000,-0.182000000000
19.524166704000,-0.184000000000
19.531853407000,-0.182000000000
19.539540110000,-0.177000000000
19.547226813000,-0.174000000000
19.554913516000,-0.172000000000
19.562600219000,-0.169000000000
19.570286922000,-0.164000000000
19.577973625000,-0.162000000000
19.585660328000,-0.157000000000
19.593347031000,-0.155000000000
19.601033734000,-0.150000000000
19.608720437000,-0.147000000000
19.616407140000,-0.142000000000
19.624093843000,-0.140000000000
19.631780546000,-0.137000000000
19.639467249000,-0.135000000000
19.647154012000,-0.130000000000
19.654840715000,-0.125000000000
19.662527418000,-0.125000000000
19.670214121000,-0.125000000000
19.677900824000,-0.120000000000
19.685587527000,-0.108000000000
19.693274230000,-0.083000000000
19.700960933000,-0.066000000000
19.708647636000,-0.066000000000
19.716334339000,-0.071000000000
19.724021042000,-0.071000000000
19.731707745000,-0.093000000000
19.739394448000,-0.128000000000
19.747081151000,-0.132000000000
19.754767854000,-0.120000000000
19.762454557000,-0.115000000000
19.770141260000,-0.115000000000
19.777827963000,-0.110000000000
19.785514666000,-0.108000000000
19.793201369000,-0.108000000000
19.800888072000,-0.115000000000
19.808574775000,-0.150000000000
19.816261478000,-0.211000000000
19.823948181000,-0.167000000000
19.831634884000,0.221000000000
19.839321587000,0.957000000000
19.847008290000,1.735000000000
19.854694993000,1.846000000000
19.862381696000,0.637000000000
19.870068399000,-0.647000000000
19.877755102000,-0.514000000000
19.885441805000,-0.056000000000
19.893128508000,-0.216000000000
19.900815211000,-0.290000000000
19.908501914000,-0.150000000000
19.916188617000,-0.164000000000
19.923875320000,-0.196000000000
19.931562023000,-0.135000000000
19.939248726000,-0.113000000000
19.946935429000,-0.120000000000
19.954622132000,-0.093000000000
19.962308835000,-0.064000000000
19.969995538000,-0.049000000000
19.977682241000,-0.024000000000
19.985368944000,0.000000000000
19.993055647000,0.024000000000
20.000742350000,0.054000000000
20.008429053000,0.088000000000
20.016115756000,0.125000000000
20.023802459000,0.164000000000
20.031489162000,0.206000000000
20.039175865000,0.246000000000
20.046862568000,0.280000000000
20.054549271000,0.302000000000
20.062235974000,0.310000000000
20.069922677000,0.302000000000
20.077609380000,0.290000000000
20.085296083000,0.263000000000
20.092982786000,0.226000000000
20.100669489000,0.172000000000
20.108356192000,0.096000000000
20.116042895000,0.004000000000
20.123729598000,-0.083000000000
20.131416301000,-0.160000000000
20.139103004000,-0.216000000000
20.146789707000,-0.256000000000
20.154476410000,-0.278000000000
20.162163113000,-0.288000000000
20.169849816000,-0.283000000000
20.177536519000,-0.270000000000
20.185223222000,-0.260000000000
20.192909925000,-0.251000000000
20.200596628000,-0.238000000000
20.208283395000,-0.224000000000
20.215970098000,-0.214000000000
20.223656801000,-0.206000000000
20.231343504000,-0.196000000000
20.239030207000,-0.187000000000
20.246716910000,-0.184000000000
20.254403613000,-0.189000000000
20.262090316000,-0.192000000000
20.269777019000,-0.187000000000
20.277463722000,-0.182000000000
20.285150425000,-0.182000000000
20.292837128000,-0.179000000000
20.300523831000,-0.177000000000
20.308210534000,-0.177000000000
20.315897237000,-0.177000000000
20.323583940000,-0.172000000000
20.331270643000,-0.167000000000
20.338957346000,-0.169000000000
20.346644049000,-0.177000000000
20.354330752000,-0.169000000000
20.362017455000,-0.162000000000
20.369704158000,-0.160000000000
20.377390861000,-0.157000000000
20.385077564000,-0.150000000000
20.392764267000,-0.145000000000
20.400450970000,-0.142000000000
20.408137673000,-0.140000000000
20.415824376000,-0.135000000000
20.423511079000,-0.128000000000
20.431197782000,-0.128000000000
20.438884485000,-0.132000000000
20.446571188000,-0.128000000000
20.454257891000,-0.108000000000
20.461944594000,-0.088000000000
20.469631297000,-0.071000000000
20.477318000000,-0.066000000000
20.485004703000,-0.068000000000
20.492691406000,-0.076000000000
20.500378109000,-0.103000000000
20.508064812000,-0.132000000000
20.515751515000,-0.128000000000
20.523438218000,-0.113000000000
20.531124921000,-0.113000000000
20.538811624000,-0.118000000000
20.546498327000,-0.113000000000
20.554185030000,-0.105000000000
20.561871733000,-0.103000000000
20.569558436000,-0.118000000000
20.577245139000,-0.164000000000
20.584931842000,-0.224000000000
20.592618545000,-0.120000000000
20.600305248000,0.379000000000
20.607991951000,1.181000000000
20.615678654000,1.870000000000
20.623365357000,1.659000000000
20.631052060000,0.260000000000
20.638738763000,-0.728000000000
20.646425466000,-0.376000000000
20.654112169000,-0.064000000000
20.661798872000,-0.260000000000
20.669485575000,-0.246000000000
20.677172278000,-0.130000000000
20.684858981000,-0.169000000000
20.692545684000,-0.169000000000
20.700232387000,-0.108000000000
20.707919090000,-0.103000000000
20.715605793000,-0.103000000000
20.723292496000,-0.064000000000
20.730979199000,-0.039000000000
20.738665902000,-0.027000000000
20.746352605000,0.000000000000
20.754039308000,0.027000000000
20.761726011000,0.051000000000
20.769412774000,0.088000000000
20.777099477000,0.123000000000
20.784786180000,0.157000000000
20.792472883000,0.204000000000
20.800159586000,0.251000000000
20.807846289000,0.290000000000
20.815532992000,0.320000000000
20.823219695000,0.334000000000
20.830906398000,0.342000000000
20.838593101000,0.337000000000
20.846279804000,0.312000000000
20.853966507000,0.280000000000
20.861653210000,0.238000000000
20.869339913000,0.164000000000
20.877026616000,0.078000000000
20.884713319000,-0.012000000000
20.892400022000,-0.103000000000
20.900086725000,-0.187000000000
20.907773428000,-0.236000000000
20.915460131000,-0.260000000000
20.923146834000,-0.278000000000
20.930833537000,-0.283000000000
20.938520240000,-0.275000000000
20.946206943000,-0.270000000000
20.953893646000,-0.263000000000
20.961580349000,-0.241000000000
20.969267052000,-0.221000000000
20.976953755000,-0.219000000000
20.984640458000,-0.211000000000
20.992327161000,-0.194000000000
21.000013864000,-0.187000000000
21.007700567000,-0.189000000000
21.015387270000,-0.179000000000
21.023073973000,-0.167000000000
21.030760676000,-0.164000000000
21.038447379000,-0.169000000000
21.046134082000,-0.172000000000
21.053820785000,-0.169000000000
21.061507488000,-0.162000000000
21.069194191000,-0.164000000000
21.076880894000,-0.167000000000
21.084567597000,-0.162000000000
21.092254300000,-0.152000000000
21.099941003000,-0.150000000000
21.107627706000,-0.155000000000
21.115314409000,-0.155000000000
21.123001112000,-0.152000000000
21.130687815000,-0.150000000000
21.138374518000,-0.145000000000
21.146061221000,-0.132000000000
21.153747924000,-0.128000000000
21.161434627000,-0.130000000000
21.169121330000,-0.123000000000
21.176808033000,-0.115000000000
21.184494736000,-0.123000000000
21.192181439000,-0.118000000000
21.199868142000,-0.091000000000
21.207554845000,-0.071000000000
21.215241548000,-0.064000000000
21.222928251000,-0.061000000000
21.230614954000,-0.056000000000
21.238301657000,-0.064000000000
21.245988360000,-0.103000000000
21.253675063000,-0.128000000000
21.261361766000,-0.113000000000
21.269048469000,-0.100000000000
21.276735172000,-0.105000000000
21.284421875000,-0.105000000000
21.292108578000,-0.100000000000
21.299795281000,-0.096000000000
21.307481984000,-0.093000000000
21.315168687000,-0.108000000000
21.322855390000,-0.150000000000
21.330542153000,-0.211000000000
21.338228856000,-0.108000000000
21.345915559000,0.416000000000
21.353602262000,1.240000000000
21.361288965000,1.885000000000
21.368975668000,1.582000000000
21.376662371000,0.157000000000
21.384349074000,-0.745000000000
21.392035777000,-0.332000000000
21.399722480000,-0.049000000000
21.407409183000,-0.251000000000
21.415095886000,-0.209000000000
21.422782589000,-0.098000000000
21.430469292000,-0.150000000000
21.438155995000,-0.147000000000
21.445842698000,-0.088000000000
21.453529401000,-0.086000000000
21.461216104000,-0.078000000000
21.468902807000,-0.044000000000
21.476589510000,-0.027000000000
21.484276213000,-0.012000000000
21.491962916000,0.019000000000
21.499649619000,0.046000000000
21.507336322000,0.071000000000
21.515023025000,0.103000000000
21.522709728000,0.140000000000
21.530396431000,0.177000000000
21.538083134000,0.221000000000
21.545769837000,0.263000000000
21.553456540000,0.300000000000
21.561143243000,0.332000000000
21.568829946000,0.344000000000
21.576516649000,0.339000000000
21.584203352000,0.327000000000
21.591890055000,0.307000000000
21.599576758000,0.273000000000
21.607263461000,0.224000000000
21.614950164000,0.150000000000
21.622636867000,0.056000000000
21.630323570000,-0.036000000000
21.638010273000,-0.123000000000
21.645696976000,-0.194000000000
21.653383679000,-0.246000000000
21.661070382000,-0.273000000000
21.668757085000,-0.285000000000
21.676443788000,-0.285000000000
21.684130491000,-0.280000000000
21.691817194000,-0.270000000000
21.699503897000,-0.258000000000
21.707190600000,-0.246000000000
21.714877303000,-0.231000000000
21.722564006000,-0.221000000000
21.730250709000,-0.211000000000
21.737937412000,-0.201000000000
21.745624115000,-0.194000000000
21.753310818000,-0.187000000000
21.760997521000,-0.184000000000
21.768684224000,-0.179000000000
21.776370927000,-0.177000000000
21.784057630000,-0.174000000000
21.791744333000,-0.174000000000
21.799431036000,-0.172000000000
21.807117739000,-0.174000000000
21.814804442000,-0.174000000000
21.822491145000,-0.172000000000
21.830177848000,-0.172000000000
21.837864551000,-0.169000000000
21.845551254000,-0.169000000000
21.853237957000,-0.167000000000
21.860924660000,-0.164000000000
21.868611363000,-0.160000000000
21.876298066000,-0.157000000000
21.883984769000,-0.155000000000
21.891671532000,-0.152000000000
21.899358235000,-0.147000000000
21.907044938000,-0.142000000000
21.914731641000,-0.137000000000
21.922418344000,-0.135000000000
21.930105047000,-0.137000000000
21.937791750000,-0.137000000000
21.945478453000,-0.132000000000
21.953165156000,-0.110000000000
21.960851859000,-0.086000000000
21.968538562000,-0.073000000000
21.976225265000,-0.076000000000
21.983911968000,-0.076000000000
21.991598671000,-0.083000000000
21.999285374000,-0.118000000000
22.006972077000,-0.137000000000
22.014658780000,-0.128000000000
22.022345483000,-0.118000000000
22.030032186000,-0.118000000000
22.037718889000,-0.113000000000
22.045405592000,-0.110000000000
22.053092295000,-0.108000000000
22.060778998000,-0.110000000000
22.068465701000,-0.128000000000
22.076152404000,-0.189000000000
22.083839107000,-0.226000000000
22.091525810000,-0.004000000000
22.099212513000,0.625000000000
22.106899216000,1.457000000000
22.114585919000,1.971000000000
22.122272622000,1.312000000000
22.129959325000,-0.226000000000
22.137646028000,-0.738000000000
22.145332731000,-0.187000000000
22.153019434000,-0.096000000000
22.160706137000,-0.305000000000
22.168392840000,-0.206000000000
22.176079543000,-0.132000000000
22.183766246000,-0.192000000000
22.191452949000,-0.167000000000
22.199139652000,-0.115000000000
22.206826355000,-0.118000000000
22.214513058000,-0.103000000000
22.222199761000,-0.071000000000
22.229886464000,-0.054000000000
22.237573167000,-0.034000000000
22.245259870000,-0.004000000000
22.252946573000,0.019000000000
22.260633276000,0.046000000000
22.268319979000,0.081000000000
22.276006682000,0.118000000000
22.283693385000,0.157000000000
22.291380088000,0.199000000000
22.299066791000,0.241000000000
22.306753494000,0.278000000000
22.314440197000,0.305000000000
22.322126900000,0.320000000000
22.329813603000,0.317000000000
22.337500306000,0.302000000000
22.345187009000,0.280000000000
22.352873712000,0.248000000000
22.360560415000,0.196000000000
22.368247118000,0.123000000000
22.375933821000,0.029000000000
22.383620524000,-0.066000000000
22.391307227000,-0.147000000000
22.398993930000,-0.211000000000
22.406680633000,-0.256000000000
22.414367336000,-0.280000000000
22.422054039000,-0.290000000000
22.429740742000,-0.290000000000
22.437427445000,-0.283000000000
22.445114148000,-0.273000000000
22.452800911000,-0.258000000000
22.460487614000,-0.246000000000
22.468174317000,-0.233000000000
22.475861020000,-0.224000000000
22.483547723000,-0.214000000000
22.491234426000,-0.206000000000
22.498921129000,-0.199000000000
22.506607832000,-0.196000000000
22.514294535000,-0.192000000000
22.521981238000,-0.189000000000
22.529667941000,-0.187000000000
22.537354644000,-0.184000000000
22.545041347000,-0.182000000000
22.552728050000,-0.182000000000
22.560414753000,-0.184000000000
22.568101456000,-0.182000000000
22.575788159000,-0.182000000000
22.583474862000,-0.179000000000
22.591161565000,-0.179000000000
22.598848268000,-0.177000000000
22.606534971000,-0.174000000000
22.614221674000,-0.172000000000
22.621908377000,-0.169000000000
22.629595080000,-0.167000000000
22.637281783000,-0.162000000000
22.644968486000,-0.157000000000
22.652655189000,-0.155000000000
22.660341892000,-0.152000000000
22.668028595000,-0.147000000000
22.675715298000,-0.142000000000
22.683402001000,-0.140000000000
22.691088704000,-0.137000000000
22.698775407000,-0.132000000000
22.706462110000,-0.130000000000
22.714148813000,-0.130000000000
22.721835516000,-0.130000000000
22.729522219000,-0.120000000000
22.737208922000,-0.098000000000
22.744895625000,-0.076000000000
22.752582328000,-0.071000000000
22.760269031000,-0.073000000000
22.767955734000,-0.073000000000
22.775642437000,-0.086000000000
22.783329140000,-0.120000000000
22.791015843000,-0.140000000000
22.798702546000,-0.128000000000
22.806389249000,-0.120000000000
22.814075952000,-0.120000000000
22.821762655000,-0.115000000000
22.829449358000,-0.113000000000
22.837136061000,-0.110000000000
22.844822764000,-0.115000000000
22.852509467000,-0.135000000000
22.860196170000,-0.189000000000
22.867882873000,-0.224000000000
22.875569576000,-0.007000000000
22.883256279000,0.608000000000
22.890942982000,1.430000000000
22.898629685000,1.954000000000
22.906316388000,1.314000000000
22.914003091000,-0.219000000000
22.921689794000,-0.738000000000
22.929376497000,-0.196000000000
22.937063200000,-0.105000000000
22.944749903000,-0.310000000000
22.952436606000,-0.214000000000
22.960123309000,-0.142000000000
22.967810012000,-0.201000000000
22.975496715000,-0.174000000000
22.983183418000,-0.123000000000
22.990870121000,-0.125000000000
22.998556824000,-0.113000000000
23.006243527000,-0.078000000000
23.013930290000,-0.059000000000
23.021616993000,-0.041000000000
23.029303696000,-0.014000000000
23.036990399000,0.012000000000
23.044677102000,0.039000000000
23.052363805000,0.071000000000
23.060050508000,0.105000000000
23.067737211000,0.145000000000
23.075423914000,0.187000000000
23.083110617000,0.226000000000
23.090797320000,0.263000000000
23.098484023000,0.288000000000
23.106170726000,0.302000000000
23.113857429000,0.302000000000
23.121544132000,0.290000000000
23.129230835000,0.270000000000
23.136917538000,0.238000000000
23.144604241000,0.194000000000
23.152290944000,0.128000000000
23.159977647000,0.039000000000
23.167664350000,-0.051000000000
23.175351053000,-0.132000000000
23.183037756000,-0.199000000000
23.190724459000,-0.248000000000
23.198411162000,-0.278000000000
23.206097865000,-0.288000000000
23.213784568000,-0.288000000000
23.221471271000,-0.283000000000
23.229157974000,-0.273000000000
23.236844677000,-0.260000000000
23.244531380000,-0.248000000000
23.252218083000,-0.236000000000
23.259904786000,-0.224000000000
23.267591489000,-0.214000000000
23.275278192000,-0.204000000000
23.282964895000,-0.199000000000
23.290651598000,-0.196000000000
23.298338301000,-0.192000000000
23.306025004000,-0.189000000000
23.313711707000,-0.187000000000
23.321398410000,-0.187000000000
23.329085113000,-0.184000000000
23.336771816000,-0.184000000000
23.344458519000,-0.184000000000
23.352145222000,-0.182000000000
23.359831925000,-0.182000000000
23.367518628000,-0.182000000000
23.375205331000,-0.179000000000
23.382892034000,-0.179000000000
23.390578737000,-0.177000000000
23.398265440000,-0.172000000000
23.405952143000,-0.169000000000
23.413638846000,-0.167000000000
23.421325549000,-0.162000000000
23.429012252000,-0.160000000000
23.436698955000,-0.155000000000
23.444385658000,-0.152000000000
23.452072361000,-0.147000000000
23.459759064000,-0.142000000000
23.467445767000,-0.140000000000
23.475132470000,-0.135000000000
23.482819173000,-0.130000000000
23.490505876000,-0.132000000000
23.498192579000,-0.132000000000
23.505879282000,-0.125000000000
23.513565985000,-0.108000000000
23.521252688000,-0.083000000000
23.528939391000,-0.068000000000
23.536626094000,-0.073000000000
23.544312797000,-0.073000000000
23.551999500000,-0.078000000000
23.559686203000,-0.110000000000
23.567372906000,-0.140000000000
23.575059673000,-0.132000000000
23.582746376000,-0.120000000000
23.590433079000,-0.120000000000
23.598119782000,-0.118000000000
23.605806485000,-0.113000000000
23.613493188000,-0.110000000000
23.621179891000,-0.110000000000
23.628866594000,-0.123000000000
23.636553297000,-0.164000000000
23.644240000000,-0.224000000000
23.651926703000,-0.137000000000
23.659613406000,0.329000000000
23.667300109000,1.107000000000
23.674986812000,1.834000000000
23.682673515000,1.720000000000
23.690360218000,0.347000000000
23.698046921000,-0.733000000000
23.705733624000,-0.416000000000
23.713420327000,-0.056000000000
23.721107030000,-0.260000000000
23.728793733000,-0.273000000000
23.736480436000,-0.142000000000
23.744167139000,-0.177000000000
23.751853842000,-0.189000000000
23.759540545000,-0.130000000000
23.767227248000,-0.115000000000
23.774913951000,-0.115000000000
23.782600654000,-0.086000000000
23.790287357000,-0.059000000000
23.797974060000,-0.046000000000
23.805660763000,-0.022000000000
23.813347466000,0.004000000000
23.821034169000,0.032000000000
23.828720872000,0.061000000000
23.836407575000,0.098000000000
23.844094278000,0.135000000000
23.851780981000,0.177000000000
23.859467684000,0.221000000000
23.867154387000,0.258000000000
23.874841090000,0.285000000000
23.882527793000,0.302000000000
23.890214496000,0.305000000000
23.897901199000,0.302000000000
23.905587902000,0.290000000000
23.913274605000,0.260000000000
23.920961308000,0.219000000000
23.928648011000,0.162000000000
23.936334714000,0.081000000000
23.944021417000,-0.009000000000
23.951708120000,-0.098000000000
23.959394823000,-0.169000000000
23.967081526000,-0.224000000000
23.974768229000,-0.258000000000
23.982454932000,-0.275000000000
23.990141635000,-0.280000000000
23.997828338000,-0.278000000000
24.005515041000,-0.268000000000
24.013201744000,-0.251000000000
24.020888447000,-0.233000000000
24.028575150000,-0.226000000000
24.036261853000,-0.221000000000
24.043948556000,-0.209000000000
24.051635259000,-0.196000000000
24.059321962000,-0.187000000000
24.067008665000,-0.182000000000
24.074695368000,-0.182000000000
24.082382071000,-0.177000000000
24.090068774000,-0.172000000000
24.097755477000,-0.174000000000
24.105442180000,-0.174000000000
24.113128883000,-0.164000000000
24.120815586000,-0.172000000000
24.128502289000,-0.179000000000
24.136189052000,-0.172000000000
24.143875755000,-0.167000000000
24.151562458000,-0.167000000000
24.159249161000,-0.157000000000
24.166935864000,-0.160000000000
24.174622567000,-0.164000000000
24.182309270000,-0.157000000000
24.189995973000,-0.152000000000
24.197682676000,-0.155000000000
24.205369379000,-0.147000000000
24.213056082000,-0.140000000000
24.220742785000,-0.135000000000
24.228429488000,-0.132000000000
24.236116191000,-0.130000000000
24.243802894000,-0.123000000000
24.251489597000,-0.123000000000
24.259176300000,-0.120000000000
24.266863003000,-0.120000000000
24.274549706000,-0.120000000000
24.282236409000,-0.108000000000
24.289923112000,-0.078000000000
24.297609815000,-0.056000000000
24.305296518000,-0.049000000000
24.312983221000,-0.056000000000
24.320669924000,-0.061000000000
24.328356627000,-0.076000000000
24.336043330000,-0.110000000000
24.343730033000,-0.123000000000
24.351416736000,-0.110000000000
24.359103439000,-0.100000000000
24.366790142000,-0.103000000000
24.374476845000,-0.103000000000
24.382163548000,-0.098000000000
24.389850251000,-0.096000000000
24.397536954000,-0.098000000000
24.405223657000,-0.120000000000
24.412910360000,-0.174000000000
24.420597063000,-0.206000000000
24.428283766000,0.034000000000
24.435970469000,0.696000000000
24.443657172000,1.528000000000
24.451343875000,1.959000000000
24.459030578000,1.198000000000
24.466717281000,-0.295000000000
24.474403984000,-0.689000000000
24.482090687000,-0.155000000000
24.489777390000,-0.120000000000
24.497464093000,-0.290000000000
24.505150796000,-0.172000000000
24.512837499000,-0.120000000000
24.520524202000,-0.177000000000
24.528210905000,-0.132000000000
24.535897608000,-0.078000000000
24.543584311000,-0.088000000000
24.551271014000,-0.081000000000
24.558957717000,-0.051000000000
24.566644420000,-0.029000000000
24.574331123000,-0.004000000000
24.582017826000,0.027000000000
24.589704529000,0.054000000000
24.597391232000,0.081000000000
24.605077935000,0.115000000000
24.612764638000,0.147000000000
24.620451341000,0.182000000000
24.628138044000,0.228000000000
24.635824747000,0.275000000000
24.643511450000,0.307000000000
24.651198153000,0.334000000000
24.658884856000,0.349000000000
24.666571559000,0.349000000000
24.674258262000,0.334000000000
24.681944965000,0.310000000000
24.689631668000,0.275000000000
24.697318431000,0.219000000000
24.705005134000,0.140000000000
24.712691837000,0.051000000000
24.720378540000,-0.036000000000
24.728065243000,-0.120000000000
24.735751946000,-0.194000000000
24.743438649000,-0.248000000000
24.751125352000,-0.275000000000
24.758812055000,-0.285000000000
24.766498758000,-0.283000000000
24.774185461000,-0.275000000000
24.781872164000,-0.260000000000
24.789558867000,-0.246000000000
24.797245570000,-0.241000000000
24.804932273000,-0.233000000000
24.812618976000,-0.221000000000
24.820305679000,-0.204000000000
24.827992382000,-0.199000000000
24.835679085000,-0.199000000000
24.843365788000,-0.184000000000
24.851052491000,-0.167000000000
24.858739194000,-0.169000000000
24.866425897000,-0.177000000000
24.874112600000,-0.172000000000
24.881799303000,-0.167000000000
24.889486006000,-0.174000000000
24.897172709000,-0.174000000000
24.904859412000,-0.172000000000
24.912546115000,-0.169000000000
24.920232818000,-0.167000000000
24.927919521000,-0.167000000000
24.935606224000,-0.164000000000
24.943292927000,-0.164000000000
24.950979630000,-0.160000000000
24.958666333000,-0.157000000000
24.966353036000,-0.162000000000
24.974039739000,-0.155000000000
24.981726442000,-0.145000000000
24.989413145000,-0.137000000000
24.997099848000,-0.135000000000
25.004786551000,-0.137000000000
25.012473254000,-0.140000000000
25.020159957000,-0.135000000000
25.027846660000,-0.120000000000
25.035533363000,-0.091000000000
25.043220066000,-0.071000000000
25.050906769000,-0.071000000000
25.058593472000,-0.076000000000
25.066280175000,-0.083000000000
25.073966878000,-0.110000000000
25.081653581000,-0.140000000000
25.089340284000,-0.140000000000
25.097026987000,-0.125000000000
25.104713690000,-0.120000000000
25.112400393000,-0.120000000000
25.120087096000,-0.113000000000
25.127773799000,-0.108000000000
25.135460502000,-0.110000000000
25.143147205000,-0.128000000000
25.150833908000,-0.167000000000
25.158520611000,-0.224000000000
25.166207314000,-0.150000000000
25.173894017000,0.322000000000
25.181580720000,1.129000000000
25.189267423000,1.819000000000
25.196954126000,1.664000000000
25.204640829000,0.320000000000
25.212327532000,-0.736000000000
25.220014235000,-0.418000000000
25.227700938000,-0.064000000000
25.235387641000,-0.263000000000
25.243074344000,-0.256000000000
25.250761047000,-0.120000000000
25.258447810000,-0.162000000000
25.266134444000,-0.172000000000
25.273821078000,-0.115000000000
25.281507712000,-0.108000000000
25.289194346000,-0.100000000000
25.296880980000,-0.066000000000
25.304567614000,-0.049000000000
25.312254248000,-0.039000000000
25.319940882000,-0.009000000000
25.327627516000,0.019000000000
25.335314150000,0.046000000000
25.343000784000,0.078000000000
25.350687418000,0.115000000000
25.358374052000,0.152000000000
25.366060686000,0.192000000000
25.373747320000,0.236000000000
25.381433954000,0.275000000000
25.389120588000,0.305000000000
25.396807222000,0.320000000000
25.404493856000,0.320000000000
25.412180490000,0.310000000000
25.419867124000,0.288000000000
25.427553758000,0.256000000000
25.435240392000,0.209000000000
25.442927026000,0.137000000000
25.450613660000,0.046000000000
25.458300294000,-0.044000000000
25.465986928000,-0.130000000000
25.473673562000,-0.201000000000
25.481360196000,-0.253000000000
25.489046830000,-0.285000000000
25.496733464000,-0.300000000000
25.504420098000,-0.302000000000
25.512106732000,-0.295000000000
25.519793366000,-0.285000000000
25.527480000000,-0.275000000000
25.535166634000,-0.263000000000
25.542853268000,-0.251000000000
25.550539902000,-0.236000000000
25.558226536000,-0.224000000000
25.565913170000,-0.214000000000
25.573599804000,-0.206000000000
25.581286438000,-0.199000000000
25.588973072000,-0.196000000000
25.596659706000,-0.192000000000
25.604346340000,-0.189000000000
25.612032974000,-0.187000000000
25.619719608000,-0.184000000000
25.627406242000,-0.182000000000
25.635092876000,-0.182000000000
25.642779510000,-0.182000000000
25.650466144000,-0.184000000000
25.658152778000,-0.184000000000
25.665839412000,-0.182000000000
25.673526046000,-0.177000000000
25.681212680000,-0.177000000000
25.688899314000,-0.174000000000
25.696585948000,-0.172000000000
25.704272582000,-0.169000000000
25.711959216000,-0.167000000000
25.719645850000,-0.162000000000
25.727332484000,-0.157000000000
25.735019118000,-0.152000000000
25.742705752000,-0.147000000000
25.750392386000,-0.145000000000
25.758079020000,-0.145000000000
25.765765654000,-0.147000000000
25.773452288000,-0.142000000000
25.781138922000,-0.125000000000
25.788825556000,-0.098000000000
25.796512190000,-0.081000000000
25.804198824000,-0.083000000000
25.811885458000,-0.083000000000
25.819572106000,-0.086000000000
25.827258879000,-0.113000000000
25.834945652000,-0.142000000000
25.842632425000,-0.137000000000
25.850319198000,-0.128000000000
25.858005971000,-0.128000000000
25.865692744000,-0.123000000000
25.873379517000,-0.118000000000
25.881066290000,-0.115000000000
25.888753063000,-0.118000000000
25.896439836000,-0.130000000000
25.904126609000,-0.174000000000
25.911813382000,-0.231000000000
25.919500155000,-0.113000000000
25.927186928000,0.401000000000
25.934873701000,1.208000000000
25.942560474000,1.895000000000
25.950247247000,1.641000000000
25.957934020000,0.187000000000
25.965620793000,-0.770000000000
25.973307566000,-0.356000000000
25.980994339000,-0.051000000000
25.988681112000,-0.275000000000
25.996367885000,-0.258000000000
26.004054658000,-0.135000000000
26.011741431000,-0.179000000000
26.019428204000,-0.187000000000
26.027114977000,-0.125000000000
26.034801750000,-0.115000000000
26.042488523000,-0.115000000000
26.050175296000,-0.081000000000
26.057862069000,-0.059000000000
26.065548842000,-0.041000000000
26.073235615000,-0.014000000000
26.080922388000,0.009000000000
26.088609161000,0.036000000000
26.096295934000,0.071000000000
26.103982707000,0.105000000000
26.111669480000,0.145000000000
26.119356253000,0.189000000000
26.127043026000,0.233000000000
26.134729799000,0.273000000000
26.142416572000,0.302000000000
26.150103345000,0.322000000000
26.157790118000,0.327000000000
26.165476891000,0.317000000000
26.173163664000,0.297000000000
26.180850437000,0.270000000000
26.188537210000,0.224000000000
26.196223983000,0.152000000000
26.203910756000,0.061000000000
26.211597529000,-0.034000000000
26.219284302000,-0.125000000000
26.226971075000,-0.196000000000
26.234657848000,-0.246000000000
26.242344621000,-0.278000000000
26.250031394000,-0.290000000000
26.257718167000,-0.292000000000
26.265404940000,-0.288000000000
26.273091713000,-0.278000000000
26.280778486000,-0.265000000000
26.288465259000,-0.251000000000
26.296152032000,-0.238000000000
26.303838805000,-0.226000000000
26.311525578000,-0.216000000000
26.319212351000,-0.206000000000
26.326899124000,-0.199000000000
26.334585897000,-0.194000000000
26.342272670000,-0.189000000000
26.349959443000,-0.184000000000
26.357646216000,-0.182000000000
26.365332989000,-0.179000000000
26.373019762000,-0.177000000000
26.380706568000,-0.174000000000
26.388393271000,-0.174000000000
26.396079974000,-0.172000000000
26.403766677000,-0.174000000000
26.411453380000,-0.174000000000
26.419140083000,-0.172000000000
26.426826786000,-0.169000000000
26.434513489000,-0.167000000000
26.442200192000,-0.164000000000
26.449886895000,-0.164000000000
26.457573598000,-0.162000000000
26.465260301000,-0.157000000000
26.472947004000,-0.152000000000
26.480633707000,-0.147000000000
26.488320410000,-0.145000000000
26.496007113000,-0.140000000000
26.503693816000,-0.135000000000
26.511380519000,-0.132000000000
26.519067222000,-0.135000000000
26.526753925000,-0.135000000000
26.534440628000,-0.128000000000
26.542127331000,-0.103000000000
26.549814034000,-0.078000000000
26.557500737000,-0.068000000000
26.565187440000,-0.073000000000
26.572874143000,-0.071000000000
26.580560846000,-0.083000000000
26.588247549000,-0.118000000000
26.595934252000,-0.135000000000
26.603620955000,-0.123000000000
26.611307658000,-0.115000000000
26.618994361000,-0.118000000000
26.626681064000,-0.113000000000
26.634367767000,-0.108000000000
26.642054470000,-0.108000000000
26.649741173000,-0.110000000000
26.657427876000,-0.135000000000
26.665114579000,-0.196000000000
26.672801282000,-0.214000000000
26.680487985000,0.059000000000
26.688174688000,0.726000000000
26.695861391000,1.545000000000
26.703548094000,1.957000000000
26.711234797000,1.125000000000
26.718921500000,-0.386000000000
26.726608203000,-0.691000000000
26.734294906000,-0.128000000000
26.741981609000,-0.128000000000
26.749668312000,-0.307000000000
26.757355015000,-0.187000000000
26.765041718000,-0.137000000000
26.772728421000,-0.194000000000
26.780415124000,-0.155000000000
26.788101827000,-0.108000000000
26.795788530000,-0.113000000000
26.803475233000,-0.096000000000
26.811161936000,-0.064000000000
26.818848639000,-0.046000000000
26.826535342000,-0.027000000000
26.834222045000,0.002000000000
26.841908748000,0.032000000000
26.849595451000,0.059000000000
26.857282154000,0.091000000000
26.864968857000,0.128000000000
26.872655560000,0.167000000000
26.880342263000,0.211000000000
26.888028966000,0.253000000000
26.895715669000,0.290000000000
26.903402372000,0.317000000000
26.911089075000,0.327000000000
26.918775778000,0.324000000000
26.926462481000,0.312000000000
26.934149184000,0.290000000000
26.941835951000,0.256000000000
26.949522654000,0.201000000000
26.957209357000,0.125000000000
26.964896060000,0.029000000000
26.972582763000,-0.061000000000
26.980269466000,-0.140000000000
26.987956169000,-0.204000000000
26.995642872000,-0.248000000000
27.003329575000,-0.270000000000
27.011016278000,-0.280000000000
27.018702981000,-0.280000000000
27.026389684000,-0.270000000000
27.034076387000,-0.258000000000
27.041763090000,-0.246000000000
27.049449793000,-0.236000000000
27.057136496000,-0.224000000000
27.064823199000,-0.211000000000
27.072509902000,-0.199000000000
27.080196605000,-0.194000000000
27.087883308000,-0.187000000000
27.095570011000,-0.182000000000
27.103256714000,-0.177000000000
27.110943417000,-0.177000000000
27.118630120000,-0.174000000000
27.126316823000,-0.172000000000
27.134003526000,-0.169000000000
27.141690229000,-0.169000000000
27.149376932000,-0.169000000000
27.157063635000,-0.167000000000
27.164750338000,-0.167000000000
27.172437041000,-0.164000000000
27.180123744000,-0.164000000000
27.187810447000,-0.162000000000
27.195497150000,-0.160000000000
27.203183853000,-0.155000000000
27.210870556000,-0.150000000000
27.218557259000,-0.152000000000
27.226243962000,-0.155000000000
27.233930665000,-0.157000000000
27.241617368000,-0.150000000000
27.249304071000,-0.135000000000
27.256990774000,-0.115000000000
27.264677477000,-0.105000000000
27.272364180000,-0.096000000000
27.280050883000,-0.086000000000
27.287737586000,-0.093000000000
27.295424289000,-0.125000000000
27.303110992000,-0.142000000000
27.310797695000,-0.132000000000
27.318484398000,-0.125000000000
27.326171101000,-0.123000000000
27.333857804000,-0.118000000000
27.341544507000,-0.113000000000
27.349231210000,-0.110000000000
27.356917913000,-0.120000000000
27.364604616000,-0.152000000000
27.372291319000,-0.226000000000
27.379978022000,-0.224000000000
27.387664725000,0.118000000000
27.395351428000,0.854000000000
27.403038131000,1.678000000000
27.410724834000,1.937000000000
27.418411537000,0.888000000000
27.426098240000,-0.546000000000
27.433784943000,-0.620000000000
27.441471646000,-0.083000000000
27.449158349000,-0.172000000000
27.456845052000,-0.305000000000
27.464531755000,-0.167000000000
27.472218458000,-0.147000000000
27.479905161000,-0.196000000000
27.487591864000,-0.145000000000
27.495278567000,-0.108000000000
27.502965330000,-0.113000000000
27.510652033000,-0.091000000000
27.518338736000,-0.061000000000
27.526025439000,-0.046000000000
27.533712142000,-0.024000000000
27.541398845000,0.004000000000
27.549085548000,0.032000000000
27.556772251000,0.061000000000
27.564458954000,0.096000000000
27.572145657000,0.132000000000
27.579832360000,0.174000000000
27.587519063000,0.219000000000
27.595205766000,0.258000000000
27.602892469000,0.290000000000
27.610579172000,0.315000000000
27.618265875000,0.322000000000
27.625952578000,0.315000000000
27.633639281000,0.297000000000
27.641325984000,0.273000000000
27.649012687000,0.231000000000
27.656699390000,0.167000000000
27.664386093000,0.081000000000
27.672072796000,-0.014000000000
27.679759499000,-0.105000000000
27.687446202000,-0.179000000000
27.695132905000,-0.233000000000
27.702819608000,-0.265000000000
27.710506311000,-0.283000000000
27.718193014000,-0.288000000000
27.725879717000,-0.283000000000
27.733566420000,-0.273000000000
27.741253123000,-0.260000000000
27.748939826000,-0.248000000000
27.756626529000,-0.236000000000
27.764313232000,-0.221000000000
27.771999935000,-0.211000000000
27.779686638000,-0.204000000000
27.787373341000,-0.196000000000
27.795060044000,-0.192000000000
27.802746747000,-0.189000000000
27.810433450000,-0.184000000000
27.818120153000,-0.182000000000
27.825806856000,-0.179000000000
27.833493559000,-0.177000000000
27.841180262000,-0.174000000000
27.848866965000,-0.174000000000
27.856553668000,-0.177000000000
27.864240371000,-0.174000000000
27.871927074000,-0.174000000000
27.879613777000,-0.172000000000
27.887300480000,-0.169000000000
27.894987183000,-0.164000000000
27.902673886000,-0.162000000000
27.910360589000,-0.164000000000
27.918047292000,-0.167000000000
27.925733995000,-0.164000000000
27.933420698000,-0.157000000000
27.941107401000,-0.142000000000
27.948794104000,-0.128000000000
27.956480807000,-0.118000000000
27.964167510000,-0.103000000000
27.971854213000,-0.096000000000
27.979540916000,-0.120000000000
27.987227619000,-0.150000000000
27.994914322000,-0.152000000000
28.002601025000,-0.140000000000
28.010287728000,-0.135000000000
28.017974431000,-0.132000000000
28.025661134000,-0.128000000000
28.033347837000,-0.123000000000
28.041034540000,-0.123000000000
28.048721243000,-0.142000000000
28.056407946000,-0.196000000000
28.064094709000,-0.260000000000
28.071781412000,-0.130000000000
28.079468115000,0.425000000000
28.087154818000,1.265000000000
28.094841521000,1.930000000000
28.102528224000,1.555000000000
28.110214927000,0.049000000000
28.117901630000,-0.782000000000
28.125588333000,-0.315000000000
28.133275036000,-0.076000000000
28.140961739000,-0.300000000000
28.148648442000,-0.253000000000
28.156335145000,-0.145000000000
28.164021848000,-0.199000000000
28.171708551000,-0.194000000000
28.179395254000,-0.135000000000
28.187081957000,-0.128000000000
28.194768660000,-0.123000000000
28.202455363000,-0.091000000000
28.210142066000,-0.068000000000
28.217828769000,-0.051000000000
28.225515472000,-0.022000000000
28.233202175000,0.004000000000
28.240888878000,0.029000000000
28.248575581000,0.064000000000
28.256262284000,0.100000000000
28.263948987000,0.137000000000
28.271635690000,0.182000000000
28.279322393000,0.226000000000
28.287009096000,0.258000000000
28.294695799000,0.283000000000
28.302382502000,0.297000000000
28.310069205000,0.295000000000
28.317755908000,0.278000000000
28.325442611000,0.263000000000
28.333129314000,0.233000000000
28.340816017000,0.177000000000
28.348502720000,0.100000000000
28.356189423000,0.012000000000
28.363876126000,-0.078000000000
28.371562829000,-0.157000000000
28.379249532000,-0.219000000000
28.386936235000,-0.260000000000
28.394622938000,-0.285000000000
28.402309641000,-0.292000000000
28.409996344000,-0.290000000000
28.417683047000,-0.283000000000
28.425369750000,-0.273000000000
28.433056453000,-0.260000000000
28.440743156000,-0.246000000000
28.448429859000,-0.233000000000
28.456116562000,-0.224000000000
28.463803265000,-0.216000000000
28.471489968000,-0.209000000000
28.479176671000,-0.204000000000
28.486863374000,-0.199000000000
28.494550077000,-0.196000000000
28.502236780000,-0.194000000000
28.509923483000,-0.192000000000
28.517610186000,-0.189000000000
28.525296889000,-0.189000000000
28.532983592000,-0.189000000000
28.540670295000,-0.187000000000
28.548356998000,-0.184000000000
28.556043701000,-0.187000000000
28.563730404000,-0.184000000000
28.571417107000,-0.179000000000
28.579103810000,-0.177000000000
28.586790513000,-0.174000000000
28.594477216000,-0.179000000000
28.602163919000,-0.182000000000
28.609850622000,-0.177000000000
28.617537325000,-0.162000000000
28.625224088000,-0.142000000000
28.632910791000,-0.132000000000
28.640597494000,-0.128000000000
28.648284197000,-0.110000000000
28.655970900000,-0.103000000000
28.663657603000,-0.135000000000
28.671344306000,-0.162000000000
28.679031009000,-0.157000000000
28.686717712000,-0.145000000000
28.694404415000,-0.145000000000
28.702091118000,-0.140000000000
28.709777821000,-0.132000000000
28.717464524000,-0.128000000000
28.725151227000,-0.132000000000
28.732837930000,-0.155000000000
28.740524633000,-0.216000000000
28.748211336000,-0.265000000000
28.755898039000,-0.061000000000
28.763584742000,0.566000000000
28.771271445000,1.408000000000
28.778958148000,1.934000000000
28.786644851000,1.287000000000
28.794331554000,-0.233000000000
28.802018257000,-0.750000000000
28.809704960000,-0.214000000000
28.817391663000,-0.115000000000
28.825078366000,-0.310000000000
28.832765069000,-0.216000000000
28.840451772000,-0.147000000000
28.848138475000,-0.201000000000
28.855825178000,-0.174000000000
28.863511881000,-0.123000000000
28.871198584000,-0.125000000000
28.878885287000,-0.110000000000
28.886571990000,-0.078000000000
28.894258693000,-0.061000000000
28.901945396000,-0.044000000000
28.909632099000,-0.014000000000
28.917318802000,0.014000000000
28.925005505000,0.039000000000
28.932692208000,0.073000000000
28.940378911000,0.110000000000
28.948065614000,0.147000000000
28.955752317000,0.184000000000
28.963439020000,0.224000000000
28.971125723000,0.256000000000
28.978812426000,0.275000000000
28.986499129000,0.283000000000
28.994185832000,0.278000000000
29.001872535000,0.263000000000
29.009559238000,0.241000000000
29.017245941000,0.206000000000
29.024932644000,0.150000000000
29.032619347000,0.073000000000
29.040306050000,-0.012000000000
29.047992753000,-0.096000000000
29.055679456000,-0.167000000000
29.063366159000,-0.219000000000
29.071052862000,-0.253000000000
29.078739565000,-0.273000000000
29.086426268000,-0.278000000000
29.094112971000,-0.273000000000
29.101799674000,-0.263000000000
29.109486377000,-0.253000000000
29.117173080000,-0.241000000000
29.124859783000,-0.228000000000
29.132546486000,-0.219000000000
29.140233189000,-0.211000000000
29.147919892000,-0.201000000000
29.155606595000,-0.196000000000
29.163293298000,-0.194000000000
29.170980001000,-0.189000000000
29.178666704000,-0.184000000000
29.186353467000,-0.184000000000
29.194040170000,-0.182000000000
29.201726873000,-0.182000000000
29.209413576000,-0.182000000000
29.217100279000,-0.182000000000
29.224786982000,-0.184000000000
29.232473685000,-0.182000000000
29.240160388000,-0.182000000000
29.247847091000,-0.179000000000
29.255533794000,-0.169000000000
29.263220497000,-0.169000000000
29.270907200000,-0.182000000000
29.278593903000,-0.184000000000
29.286280606000,-0.167000000000
29.293967309000,-0.147000000000
29.301654012000,-0.132000000000
29.309340715000,-0.128000000000
29.317027418000,-0.120000000000
29.324714121000,-0.105000000000
