time,LSB
0.000000000000,1.626000000000
0.007686285000,0.284000000000
0.015372570000,-0.781000000000
0.023058855000,-0.507000000000
0.030745140000,-0.124000000000
0.038431425000,-0.281000000000
0.046117710000,-0.289000000000
0.053803995000,-0.169000000000
0.061490280000,-0.200000000000
0.069176565000,-0.208000000000
0.076862850000,-0.146000000000
0.084549135000,-0.132000000000
0.092235420000,-0.127000000000
0.099921705000,-0.093000000000
0.107607990000,-0.063000000000
0.115294275000,-0.041000000000
0.122980560000,-0.014000000000
0.130666845000,0.019000000000
0.138353130000,0.053000000000
0.146039415000,0.090000000000
0.153725700000,0.127000000000
0.161411985000,0.161000000000
0.169098270000,0.193000000000
0.176784555000,0.218000000000
0.184470840000,0.222000000000
0.192157125000,0.222000000000
0.199843410000,0.220000000000
0.207529695000,0.205000000000
0.215215980000,0.181000000000
0.222902265000,0.149000000000
0.230588550000,0.093000000000
0.238274835000,0.014000000000
0.245961120000,-0.075000000000
0.253647405000,-0.164000000000
0.261333690000,-0.247000000000
0.269019975000,-0.311000000000
0.276706260000,-0.347000000000
0.284392545000,-0.369000000000
0.292078830000,-0.379000000000
0.299765115000,-0.379000000000
0.307451400000,-0.364000000000
0.315137685000,-0.350000000000
0.322823970000,-0.342000000000
0.330510255000,-0.330000000000
0.338196540000,-0.313000000000
0.345882825000,-0.303000000000
0.353569110000,-0.298000000000
0.361255395000,-0.293000000000
0.368941680000,-0.284000000000
0.376627965000,-0.276000000000
0.384314250000,-0.271000000000
0.392000535000,-0.269000000000
0.399686820000,-0.271000000000
0.407373105000,-0.274000000000
0.415059390000,-0.269000000000
0.422745675000,-0.267000000000
0.430431960000,-0.267000000000
0.438118245000,-0.267000000000
0.445804530000,-0.264000000000
0.453490815000,-0.262000000000
0.461177156000,-0.259000000000
0.468863859000,-0.257000000000
0.476550562000,-0.259000000000
0.484237265000,-0.259000000000
0.491923968000,-0.247000000000
0.499610671000,-0.222000000000
0.507297374000,-0.203000000000
0.514984077000,-0.195000000000
0.522670780000,-0.188000000000
0.530357483000,-0.188000000000
0.538044186000,-0.213000000000
0.545730889000,-0.242000000000
0.553417592000,-0.247000000000
0.561104295000,-0.235000000000
0.568790998000,-0.227000000000
0.576477701000,-0.227000000000
0.584164404000,-0.225000000000
0.591851107000,-0.218000000000
0.599537810000,-0.210000000000
0.607224513000,-0.215000000000
0.614911216000,-0.235000000000
0.622597919000,-0.284000000000
0.630284622000,-0.350000000000
0.637971325000,-0.220000000000
0.645658028000,0.391000000000
0.653344731000,1.317000000000
0.661031434000,1.959000000000
0.668718137000,1.464000000000
0.676404840000,-0.078000000000
0.684091543000,-0.845000000000
0.691778246000,-0.357000000000
0.699464949000,-0.127000000000
0.707151652000,-0.335000000000
0.714838355000,-0.281000000000
0.722525058000,-0.183000000000
0.730211761000,-0.235000000000
0.737898464000,-0.220000000000
0.745585167000,-0.159000000000
0.753271870000,-0.151000000000
0.760958573000,-0.142000000000
0.768645276000,-0.102000000000
0.776331979000,-0.075000000000
0.784018682000,-0.056000000000
0.791705385000,-0.024000000000
0.799392088000,0.009000000000
0.807078791000,0.041000000000
0.814765494000,0.075000000000
0.822452197000,0.115000000000
0.830138900000,0.149000000000
0.837825603000,0.178000000000
0.845512306000,0.200000000000
0.853199009000,0.215000000000
0.860885712000,0.218000000000
0.868572415000,0.208000000000
0.876259118000,0.191000000000
0.883945821000,0.173000000000
0.891632524000,0.144000000000
0.899319227000,0.088000000000
0.907005930000,0.004000000000
0.914692633000,-0.090000000000
0.922379336000,-0.186000000000
0.930066039000,-0.269000000000
0.937752742000,-0.328000000000
0.945439445000,-0.362000000000
0.953126148000,-0.379000000000
0.960812851000,-0.384000000000
0.968499554000,-0.382000000000
0.976186257000,-0.367000000000
0.983872960000,-0.352000000000
0.991559663000,-0.342000000000
0.999246366000,-0.330000000000
1.006933069000,-0.313000000000
1.014619772000,-0.301000000000
1.022306539000,-0.296000000000
1.029992824000,-0.293000000000
1.037679109000,-0.286000000000
1.045365394000,-0.279000000000
1.053051679000,-0.276000000000
1.060737964000,-0.279000000000
1.068424249000,-0.276000000000
1.076110534000,-0.269000000000
1.083796819000,-0.269000000000
1.091483104000,-0.269000000000
1.099169389000,-0.269000000000
1.106855674000,-0.267000000000
1.114541959000,-0.267000000000
1.122228244000,-0.264000000000
1.129914529000,-0.259000000000
1.137600814000,-0.257000000000
1.145287099000,-0.249000000000
1.152973384000,-0.247000000000
1.160659669000,-0.249000000000
1.168345954000,-0.249000000000
1.176032239000,-0.235000000000
1.183718524000,-0.205000000000
1.191404809000,-0.183000000000
1.199091094000,-0.178000000000
1.206777379000,-0.173000000000
1.214463664000,-0.171000000000
1.222149949000,-0.193000000000
1.229836234000,-0.225000000000
1.237522519000,-0.235000000000
1.245208804000,-0.222000000000
1.252895089000,-0.215000000000
1.260581374000,-0.210000000000
1.268267659000,-0.208000000000
1.275953944000,-0.205000000000
1.283640229000,-0.200000000000
1.291326514000,-0.195000000000
1.299012799000,-0.208000000000
1.306699084000,-0.257000000000
1.314385369000,-0.335000000000
1.322071654000,-0.274000000000
1.329757939000,0.227000000000
1.337444224000,1.109000000000
1.345130509000,1.888000000000
1.352816794000,1.736000000000
1.360503079000,0.313000000000
1.368189364000,-0.803000000000
1.375875649000,-0.485000000000
1.383561934000,-0.088000000000
1.391248219000,-0.281000000000
1.398934504000,-0.306000000000
1.406620789000,-0.173000000000
1.414307074000,-0.205000000000
1.421993359000,-0.222000000000
1.429679644000,-0.156000000000
1.437365929000,-0.137000000000
1.445052214000,-0.134000000000
1.452738499000,-0.100000000000
1.460424784000,-0.071000000000
1.468111069000,-0.051000000000
1.475797354000,-0.019000000000
1.483483639000,0.014000000000
1.491169924000,0.048000000000
1.498856209000,0.085000000000
1.506542494000,0.120000000000
1.514228779000,0.154000000000
1.521915064000,0.188000000000
1.529601349000,0.218000000000
1.537287634000,0.232000000000
1.544973919000,0.235000000000
1.552660204000,0.230000000000
1.560346489000,0.218000000000
1.568032774000,0.198000000000
1.575719059000,0.171000000000
1.583405400000,0.120000000000
1.591091894000,0.046000000000
1.598778388000,-0.044000000000
1.606464882000,-0.139000000000
1.614151376000,-0.225000000000
1.621837870000,-0.293000000000
1.629524364000,-0.340000000000
1.637210858000,-0.367000000000
1.644897352000,-0.374000000000
1.652583846000,-0.372000000000
1.660270340000,-0.362000000000
1.667956834000,-0.350000000000
1.675643328000,-0.338000000000
1.683329822000,-0.320000000000
1.691016316000,-0.311000000000
1.698702810000,-0.301000000000
1.706389304000,-0.291000000000
1.714075798000,-0.286000000000
1.721762292000,-0.281000000000
1.729448786000,-0.276000000000
1.737135280000,-0.274000000000
1.744821774000,-0.269000000000
1.752508268000,-0.267000000000
1.760194762000,-0.267000000000
1.767881256000,-0.264000000000
1.775567750000,-0.264000000000
1.783254244000,-0.262000000000
1.790940738000,-0.259000000000
1.798627232000,-0.259000000000
1.806313726000,-0.259000000000
1.814000220000,-0.257000000000
1.821686714000,-0.254000000000
1.829373208000,-0.249000000000
1.837059702000,-0.242000000000
1.844746196000,-0.237000000000
1.852432690000,-0.237000000000
1.860119184000,-0.237000000000
1.867805678000,-0.232000000000
1.875492172000,-0.213000000000
1.883178666000,-0.186000000000
1.890865160000,-0.171000000000
1.898551654000,-0.166000000000
1.906238148000,-0.161000000000
1.913924642000,-0.169000000000
1.921611136000,-0.195000000000
1.929297630000,-0.222000000000
1.936984124000,-0.220000000000
1.944670618000,-0.208000000000
1.952357112000,-0.208000000000
1.960043606000,-0.205000000000
1.967730100000,-0.198000000000
1.975416594000,-0.193000000000
1.983103088000,-0.188000000000
1.990789582000,-0.193000000000
1.998476076000,-0.215000000000
2.006162570000,-0.279000000000
2.013849064000,-0.338000000000
2.021535558000,-0.142000000000
2.029222052000,0.524000000000
2.036908546000,1.430000000000
2.044595040000,1.971000000000
2.052281534000,1.310000000000
2.059968028000,-0.240000000000
2.067654522000,-0.808000000000
2.075341016000,-0.264000000000
2.083027510000,-0.129000000000
2.090714004000,-0.335000000000
2.098400498000,-0.254000000000
2.106086992000,-0.171000000000
2.113773486000,-0.225000000000
2.121459980000,-0.203000000000
2.129146474000,-0.146000000000
2.136832968000,-0.144000000000
2.144519522000,-0.129000000000
2.152206016000,-0.090000000000
2.159892510000,-0.068000000000
2.167579004000,-0.046000000000
2.175265498000,-0.012000000000
2.182951992000,0.019000000000
2.190638486000,0.051000000000
2.198324980000,0.088000000000
2.206011474000,0.122000000000
2.213697968000,0.156000000000
2.221384462000,0.188000000000
2.229070956000,0.210000000000
2.236757450000,0.220000000000
2.244443944000,0.222000000000
2.252130438000,0.215000000000
2.259816932000,0.200000000000
2.267503426000,0.181000000000
2.275189920000,0.149000000000
2.282876414000,0.093000000000
2.290562908000,0.014000000000
2.298249402000,-0.078000000000
2.305935896000,-0.171000000000
2.313622390000,-0.257000000000
2.321308884000,-0.318000000000
2.328995378000,-0.357000000000
2.336681872000,-0.374000000000
2.344368366000,-0.379000000000
2.352054860000,-0.374000000000
2.359741354000,-0.364000000000
2.367427848000,-0.350000000000
2.375114342000,-0.338000000000
2.382800836000,-0.325000000000
2.390487330000,-0.313000000000
2.398173824000,-0.301000000000
2.405860318000,-0.293000000000
2.413546812000,-0.289000000000
2.421233306000,-0.284000000000
2.428919800000,-0.279000000000
2.436606294000,-0.276000000000
2.444292788000,-0.276000000000
2.451979282000,-0.276000000000
2.459665776000,-0.274000000000
2.467352270000,-0.271000000000
2.475038764000,-0.269000000000
2.482725258000,-0.267000000000
2.490411752000,-0.264000000000
2.498098246000,-0.262000000000
2.505784740000,-0.259000000000
2.513471234000,-0.257000000000
2.521157728000,-0.252000000000
2.528844222000,-0.244000000000
2.536530716000,-0.242000000000
2.544217210000,-0.240000000000
2.551903704000,-0.240000000000
2.559590198000,-0.237000000000
2.567276692000,-0.218000000000
2.574963186000,-0.191000000000
2.582649680000,-0.173000000000
2.590336174000,-0.171000000000
2.598022668000,-0.166000000000
2.605709162000,-0.171000000000
2.613395656000,-0.203000000000
2.621082150000,-0.230000000000
2.628768644000,-0.222000000000
2.636455138000,-0.210000000000
2.644141632000,-0.210000000000
2.651828126000,-0.208000000000
2.659514620000,-0.200000000000
2.667201114000,-0.195000000000
2.674887608000,-0.193000000000
2.682574102000,-0.198000000000
2.690260596000,-0.220000000000
2.697947090000,-0.284000000000
2.705633640000,-0.340000000000
2.713319925000,-0.137000000000
2.721006210000,0.538000000000
2.728692495000,1.442000000000
2.736378780000,1.949000000000
2.744065065000,1.244000000000
2.751751350000,-0.296000000000
2.759437635000,-0.803000000000
2.767123920000,-0.254000000000
2.774810205000,-0.146000000000
2.782496490000,-0.340000000000
2.790182775000,-0.252000000000
2.797869060000,-0.178000000000
2.805555345000,-0.230000000000
2.813241630000,-0.205000000000
2.820927915000,-0.151000000000
2.828614200000,-0.149000000000
2.836300485000,-0.134000000000
2.843986770000,-0.095000000000
2.851673055000,-0.073000000000
2.859359340000,-0.051000000000
2.867045625000,-0.017000000000
2.874731910000,0.017000000000
2.882418195000,0.046000000000
2.890104480000,0.083000000000
2.897790765000,0.124000000000
2.905477050000,0.156000000000
2.913163335000,0.181000000000
2.920849620000,0.205000000000
2.928535905000,0.225000000000
2.936222190000,0.225000000000
2.943908475000,0.210000000000
2.951594760000,0.195000000000
2.959281045000,0.181000000000
2.966967330000,0.149000000000
2.974653615000,0.088000000000
2.982339900000,0.009000000000
2.990026185000,-0.080000000000
2.997712470000,-0.173000000000
3.005398755000,-0.259000000000
3.013085040000,-0.315000000000
3.020771325000,-0.350000000000
3.028457610000,-0.367000000000
3.036143895000,-0.372000000000
3.043830180000,-0.369000000000
3.051516465000,-0.362000000000
3.059202750000,-0.347000000000
3.066889035000,-0.330000000000
3.074575320000,-0.318000000000
3.082261605000,-0.308000000000
3.089947890000,-0.298000000000
3.097634175000,-0.291000000000
3.105320460000,-0.284000000000
3.113006745000,-0.276000000000
3.120693030000,-0.274000000000
3.128379315000,-0.274000000000
3.136065600000,-0.271000000000
3.143751885000,-0.269000000000
3.151438170000,-0.267000000000
3.159124455000,-0.264000000000
3.166810740000,-0.262000000000
3.174497025000,-0.257000000000
3.182183310000,-0.257000000000
3.189869595000,-0.257000000000
3.197555880000,-0.254000000000
3.205242165000,-0.249000000000
3.212928450000,-0.242000000000
3.220614735000,-0.240000000000
3.228301020000,-0.235000000000
3.235987305000,-0.232000000000
3.243673590000,-0.232000000000
3.251359875000,-0.227000000000
3.259046160000,-0.208000000000
3.266732501000,-0.188000000000
3.274418786000,-0.171000000000
3.282105071000,-0.164000000000
3.289791356000,-0.154000000000
3.297477641000,-0.154000000000
3.305163926000,-0.181000000000
3.312850211000,-0.218000000000
3.320536496000,-0.222000000000
3.328222781000,-0.203000000000
3.335909066000,-0.195000000000
3.343595351000,-0.198000000000
3.351281636000,-0.193000000000
3.358967921000,-0.191000000000
3.366654206000,-0.188000000000
3.374340491000,-0.186000000000
3.382026776000,-0.200000000000
3.389713061000,-0.249000000000
3.397399346000,-0.313000000000
3.405085631000,-0.193000000000
3.412771916000,0.396000000000
3.420458201000,1.293000000000
3.428144486000,1.908000000000
3.435830771000,1.440000000000
3.443517056000,-0.039000000000
3.451203341000,-0.803000000000
3.458889626000,-0.350000000000
3.466575911000,-0.115000000000
3.474262196000,-0.298000000000
3.481948481000,-0.247000000000
3.489634766000,-0.156000000000
3.497321051000,-0.198000000000
3.505007336000,-0.181000000000
3.512693621000,-0.132000000000
3.520379906000,-0.124000000000
3.528066191000,-0.105000000000
3.535752476000,-0.071000000000
3.543438761000,-0.048000000000
3.551125046000,-0.024000000000
3.558811331000,0.007000000000
3.566497616000,0.036000000000
3.574183901000,0.068000000000
3.581870186000,0.112000000000
3.589556471000,0.146000000000
3.597242756000,0.171000000000
3.604929041000,0.205000000000
3.612615326000,0.235000000000
3.620301611000,0.244000000000
3.627987896000,0.252000000000
3.635674181000,0.247000000000
3.643360466000,0.225000000000
3.651046751000,0.205000000000
3.658733036000,0.173000000000
3.666419321000,0.120000000000
3.674105606000,0.044000000000
3.681791891000,-0.048000000000
3.689478176000,-0.144000000000
3.697164461000,-0.225000000000
3.704850746000,-0.289000000000
3.712537031000,-0.338000000000
3.720223316000,-0.360000000000
3.727909601000,-0.362000000000
3.735595886000,-0.367000000000
3.743282171000,-0.364000000000
3.750968456000,-0.350000000000
3.758654741000,-0.333000000000
3.766341026000,-0.325000000000
3.774027311000,-0.311000000000
3.781713596000,-0.293000000000
3.789399881000,-0.281000000000
3.797086166000,-0.279000000000
3.804772451000,-0.281000000000
3.812458736000,-0.274000000000
3.820145021000,-0.259000000000
3.827831362000,-0.259000000000
3.835517717000,-0.269000000000
3.843204072000,-0.269000000000
3.850890427000,-0.259000000000
3.858576782000,-0.249000000000
3.866263137000,-0.257000000000
3.873949492000,-0.259000000000
3.881635847000,-0.249000000000
3.889322202000,-0.247000000000
3.897008557000,-0.247000000000
3.904694912000,-0.242000000000
3.912381267000,-0.240000000000
3.920067622000,-0.237000000000
3.927753977000,-0.235000000000
3.935440332000,-0.230000000000
3.943126687000,-0.213000000000
3.950813042000,-0.188000000000
3.958499397000,-0.169000000000
3.966185752000,-0.156000000000
3.973872107000,-0.161000000000
3.981558462000,-0.173000000000
3.989244817000,-0.205000000000
3.996931172000,-0.230000000000
4.004617527000,-0.220000000000
4.012303882000,-0.205000000000
4.019990237000,-0.205000000000
4.027676592000,-0.205000000000
4.035362947000,-0.200000000000
4.043049302000,-0.191000000000
4.050735657000,-0.178000000000
4.058422012000,-0.186000000000
4.066108367000,-0.227000000000
4.073794722000,-0.293000000000
4.081481077000,-0.301000000000
4.089167432000,0.058000000000
4.096853787000,0.886000000000
4.104540142000,1.699000000000
4.112226497000,1.744000000000
4.119912852000,0.585000000000
4.127599207000,-0.661000000000
4.135285562000,-0.602000000000
4.142971917000,-0.139000000000
4.150658272000,-0.237000000000
4.158344627000,-0.296000000000
4.166030982000,-0.164000000000
4.173717337000,-0.171000000000
4.181403692000,-0.198000000000
4.189090047000,-0.139000000000
4.196776402000,-0.112000000000
4.204462757000,-0.112000000000
4.212149112000,-0.080000000000
4.219835467000,-0.051000000000
4.227521822000,-0.029000000000
4.235208177000,0.009000000000
4.242894532000,0.041000000000
4.250580887000,0.071000000000
4.258267242000,0.107000000000
4.265953597000,0.142000000000
4.273639952000,0.171000000000
4.281326307000,0.213000000000
4.289012662000,0.249000000000
4.296699017000,0.267000000000
4.304385372000,0.269000000000
4.312071727000,0.264000000000
4.319758082000,0.242000000000
4.327444437000,0.225000000000
4.335130792000,0.208000000000
4.342817147000,0.159000000000
4.350503502000,0.083000000000
4.358189857000,-0.012000000000
4.365876212000,-0.112000000000
4.373562567000,-0.203000000000
4.381248922000,-0.281000000000
4.388935314000,-0.338000000000
4.396621948000,-0.362000000000
4.404308582000,-0.367000000000
4.411995216000,-0.374000000000
4.419681850000,-0.369000000000
4.427368484000,-0.352000000000
4.435055118000,-0.345000000000
4.442741752000,-0.340000000000
4.450428386000,-0.323000000000
4.458115020000,-0.301000000000
4.465801654000,-0.291000000000
4.473488288000,-0.284000000000
4.481174922000,-0.274000000000
4.488861556000,-0.274000000000
4.496548190000,-0.271000000000
4.504234824000,-0.267000000000
4.511921458000,-0.262000000000
4.519608092000,-0.259000000000
4.527294726000,-0.252000000000
4.534981360000,-0.252000000000
4.542667994000,-0.259000000000
4.550354628000,-0.259000000000
4.558041262000,-0.249000000000
4.565727896000,-0.242000000000
4.573414530000,-0.240000000000
4.581101164000,-0.247000000000
4.588787798000,-0.247000000000
4.596474432000,-0.230000000000
4.604161066000,-0.220000000000
4.611847700000,-0.222000000000
4.619534334000,-0.200000000000
4.627220968000,-0.169000000000
4.634907602000,-0.156000000000
4.642594236000,-0.161000000000
4.650280870000,-0.173000000000
4.657967504000,-0.198000000000
4.665654138000,-0.218000000000
4.673340772000,-0.220000000000
4.681027406000,-0.220000000000
4.688714040000,-0.215000000000
4.696400674000,-0.208000000000
4.704087308000,-0.203000000000
4.711773942000,-0.200000000000
4.719460576000,-0.193000000000
4.727147210000,-0.193000000000
4.734833844000,-0.215000000000
4.742520478000,-0.276000000000
4.750207112000,-0.313000000000
4.757893746000,-0.046000000000
4.765580380000,0.712000000000
4.773267014000,1.543000000000
4.780953648000,1.734000000000
4.788640282000,0.808000000000
4.796326916000,-0.492000000000
4.804013550000,-0.680000000000
4.811700184000,-0.208000000000
4.819386818000,-0.210000000000
4.827073452000,-0.303000000000
4.834760086000,-0.181000000000
4.842446720000,-0.161000000000
4.850133354000,-0.200000000000
4.857819988000,-0.159000000000
4.865506622000,-0.127000000000
4.873193256000,-0.124000000000
4.880879890000,-0.095000000000
4.888566524000,-0.061000000000
4.896253158000,-0.041000000000
4.903939792000,-0.012000000000
4.911626426000,0.017000000000
4.919313060000,0.041000000000
4.926999694000,0.075000000000
4.934686328000,0.117000000000
4.942372962000,0.154000000000
4.950059606000,0.186000000000
4.957745891000,0.210000000000
4.965432176000,0.230000000000
4.973118461000,0.240000000000
4.980804746000,0.232000000000
4.988491031000,0.218000000000
4.996177316000,0.200000000000
5.003863601000,0.171000000000
5.011549886000,0.122000000000
5.019236171000,0.061000000000
5.026922456000,-0.022000000000
5.034608741000,-0.122000000000
5.042295026000,-0.215000000000
5.049981311000,-0.286000000000
5.057667596000,-0.340000000000
5.065353881000,-0.377000000000
5.073040166000,-0.389000000000
5.080726451000,-0.387000000000
5.088412736000,-0.384000000000
5.096099021000,-0.374000000000
5.103785306000,-0.360000000000
5.111471591000,-0.347000000000
5.119157876000,-0.335000000000
5.126844161000,-0.323000000000
5.134530446000,-0.311000000000
5.142216731000,-0.301000000000
5.149903016000,-0.296000000000
5.157589301000,-0.293000000000
5.165275586000,-0.286000000000
5.172961871000,-0.279000000000
5.180648156000,-0.276000000000
5.188334441000,-0.276000000000
5.196020726000,-0.276000000000
5.203707011000,-0.276000000000
5.211393296000,-0.276000000000
5.219079581000,-0.274000000000
5.226765866000,-0.269000000000
5.234452151000,-0.269000000000
5.242138436000,-0.269000000000
5.249824721000,-0.262000000000
5.257511006000,-0.257000000000
5.265197291000,-0.259000000000
5.272883576000,-0.264000000000
5.280569861000,-0.262000000000
5.288256146000,-0.244000000000
5.295942431000,-0.218000000000
5.303628716000,-0.198000000000
5.311315001000,-0.193000000000
5.319001286000,-0.188000000000
5.326687571000,-0.186000000000
5.334373856000,-0.210000000000
5.342060141000,-0.242000000000
5.349746426000,-0.249000000000
5.357432711000,-0.235000000000
5.365118996000,-0.230000000000
5.372805281000,-0.227000000000
5.380491566000,-0.222000000000
5.388177851000,-0.218000000000
5.395864136000,-0.215000000000
5.403550421000,-0.220000000000
5.411236706000,-0.244000000000
5.418922991000,-0.308000000000
5.426609276000,-0.345000000000
5.434295561000,-0.075000000000
5.441981846000,0.668000000000
5.449668131000,1.555000000000
5.457354416000,1.908000000000
5.465040701000,1.009000000000
5.472726986000,-0.485000000000
5.480413271000,-0.776000000000
5.488099556000,-0.208000000000
5.495785841000,-0.183000000000
5.503472126000,-0.357000000000
5.511158467000,-0.247000000000
5.518844752000,-0.195000000000
5.526531037000,-0.247000000000
5.534217322000,-0.210000000000
5.541903607000,-0.161000000000
5.549589892000,-0.164000000000
5.557276177000,-0.142000000000
5.564962462000,-0.105000000000
5.572648747000,-0.085000000000
5.580335032000,-0.063000000000
5.588021317000,-0.029000000000
5.595707602000,0.002000000000
5.603393887000,0.031000000000
5.611080172000,0.068000000000
5.618766457000,0.107000000000
5.626452742000,0.142000000000
5.634139027000,0.171000000000
5.641825312000,0.191000000000
5.649511597000,0.203000000000
5.657197882000,0.203000000000
5.664884167000,0.195000000000
5.672570452000,0.181000000000
5.680256737000,0.159000000000
5.687943022000,0.120000000000
5.695629307000,0.056000000000
5.703315592000,-0.029000000000
5.711001877000,-0.124000000000
5.718688162000,-0.215000000000
5.726374447000,-0.293000000000
5.734060732000,-0.350000000000
5.741747017000,-0.382000000000
5.749433302000,-0.394000000000
5.757119587000,-0.396000000000
5.764805872000,-0.389000000000
5.772492157000,-0.379000000000
5.780178442000,-0.367000000000
5.787864727000,-0.355000000000
5.795551012000,-0.342000000000
5.803237297000,-0.328000000000
5.810923582000,-0.315000000000
5.818609867000,-0.308000000000
5.826296152000,-0.301000000000
5.833982437000,-0.293000000000
5.841668722000,-0.291000000000
5.849355007000,-0.289000000000
5.857041292000,-0.289000000000
5.864727577000,-0.289000000000
5.872413862000,-0.286000000000
5.880100147000,-0.284000000000
5.887786432000,-0.284000000000
5.895472717000,-0.281000000000
5.903159002000,-0.276000000000
5.910845287000,-0.274000000000
5.918531572000,-0.271000000000
5.926217857000,-0.267000000000
5.933904142000,-0.264000000000
5.941590427000,-0.267000000000
5.949276712000,-0.264000000000
5.956962997000,-0.247000000000
5.964649282000,-0.218000000000
5.972335567000,-0.200000000000
5.980021852000,-0.195000000000
5.987708137000,-0.188000000000
5.995394422000,-0.188000000000
6.003080707000,-0.213000000000
6.010766992000,-0.244000000000
6.018453277000,-0.247000000000
6.026139562000,-0.235000000000
6.033825847000,-0.230000000000
6.041512132000,-0.227000000000
6.049198417000,-0.222000000000
6.056884702000,-0.218000000000
6.064570987000,-0.215000000000
6.072257328000,-0.215000000000
6.079943613000,-0.237000000000
6.087629898000,-0.303000000000
6.095316183000,-0.355000000000
6.103002468000,-0.124000000000
6.110688753000,0.585000000000
6.118375038000,1.504000000000
6.126061323000,1.976000000000
6.133747608000,1.195000000000
6.141433893000,-0.360000000000
6.149120178000,-0.810000000000
6.156806463000,-0.244000000000
6.164492748000,-0.159000000000
6.172179033000,-0.357000000000
6.179865318000,-0.264000000000
6.187551603000,-0.195000000000
6.195237888000,-0.249000000000
6.202924173000,-0.220000000000
6.210610458000,-0.166000000000
6.218296743000,-0.164000000000
6.225983028000,-0.144000000000
6.233669313000,-0.107000000000
6.241355598000,-0.088000000000
6.249041883000,-0.058000000000
6.256728168000,-0.022000000000
6.264414453000,0.007000000000
6.272100738000,0.039000000000
6.279787023000,0.078000000000
6.287473308000,0.120000000000
6.295159593000,0.156000000000
6.302845878000,0.188000000000
6.310532163000,0.215000000000
6.318218448000,0.227000000000
6.325904733000,0.230000000000
6.333591018000,0.220000000000
6.341277303000,0.210000000000
6.348963588000,0.198000000000
6.356649873000,0.159000000000
6.364336158000,0.083000000000
6.372022443000,-0.004000000000
6.379708728000,-0.095000000000
6.387395013000,-0.193000000000
6.395081298000,-0.281000000000
6.402767583000,-0.338000000000
6.410453868000,-0.372000000000
6.418140153000,-0.387000000000
6.425826438000,-0.389000000000
6.433512723000,-0.389000000000
6.441199008000,-0.382000000000
6.448885293000,-0.364000000000
6.456571578000,-0.345000000000
6.464257863000,-0.328000000000
6.471944148000,-0.315000000000
6.479630433000,-0.311000000000
6.487316718000,-0.303000000000
6.495003003000,-0.291000000000
6.502689288000,-0.286000000000
6.510375573000,-0.291000000000
6.518061858000,-0.291000000000
6.525748143000,-0.274000000000
6.533434428000,-0.264000000000
6.541120713000,-0.276000000000
6.548806998000,-0.276000000000
6.556493283000,-0.264000000000
6.564179568000,-0.259000000000
6.571865853000,-0.262000000000
6.579552138000,-0.259000000000
6.587238423000,-0.254000000000
6.594924708000,-0.252000000000
6.602610993000,-0.254000000000
6.610297278000,-0.244000000000
6.617983563000,-0.220000000000
6.625669848000,-0.205000000000
6.633356189000,-0.198000000000
6.641042474000,-0.181000000000
6.648728759000,-0.173000000000
6.656415044000,-0.186000000000
6.664101329000,-0.210000000000
6.671787614000,-0.227000000000
6.679473899000,-0.227000000000
6.687160184000,-0.218000000000
6.694846469000,-0.215000000000
6.702532754000,-0.215000000000
6.710219039000,-0.213000000000
6.717905324000,-0.205000000000
6.725591609000,-0.193000000000
6.733277894000,-0.198000000000
6.740964179000,-0.225000000000
6.748650464000,-0.284000000000
6.756336749000,-0.318000000000
6.764023034000,-0.053000000000
6.771709319000,0.700000000000
6.779395604000,1.577000000000
6.787081889000,1.866000000000
6.794768174000,0.940000000000
6.802454459000,-0.480000000000
6.810140744000,-0.729000000000
6.817827029000,-0.200000000000
6.825513314000,-0.178000000000
6.833199599000,-0.320000000000
6.840885884000,-0.218000000000
6.848572169000,-0.176000000000
6.856258454000,-0.208000000000
6.863944739000,-0.164000000000
6.871631024000,-0.122000000000
6.879317309000,-0.122000000000
6.887003594000,-0.102000000000
6.894689879000,-0.073000000000
6.902376164000,-0.048000000000
6.910062449000,-0.014000000000
6.917748734000,0.024000000000
6.925435019000,0.051000000000
6.933121304000,0.085000000000
6.940807589000,0.129000000000
6.948493874000,0.169000000000
6.956180159000,0.203000000000
6.963866444000,0.237000000000
6.971552729000,0.254000000000
6.979239014000,0.259000000000
6.986925299000,0.264000000000
6.994611584000,0.259000000000
7.002297869000,0.240000000000
7.009984154000,0.210000000000
7.017670439000,0.161000000000
7.025356724000,0.090000000000
7.033043009000,0.002000000000
7.040729294000,-0.093000000000
7.048415579000,-0.186000000000
7.056101864000,-0.274000000000
7.063788149000,-0.333000000000
7.071474434000,-0.367000000000
7.079160719000,-0.377000000000
7.086847004000,-0.374000000000
7.094533289000,-0.369000000000
7.102219574000,-0.364000000000
7.109905859000,-0.350000000000
7.117592144000,-0.333000000000
7.125278429000,-0.320000000000
7.132964714000,-0.313000000000
7.140650999000,-0.298000000000
7.148337284000,-0.284000000000
7.156023569000,-0.279000000000
7.163709854000,-0.279000000000
7.171396139000,-0.274000000000
7.179082424000,-0.269000000000
7.186768709000,-0.271000000000
7.194455050000,-0.269000000000
7.202141335000,-0.259000000000
7.209827620000,-0.259000000000
7.217513905000,-0.259000000000
7.225200190000,-0.252000000000
7.232886475000,-0.254000000000
7.240572760000,-0.259000000000
7.248259045000,-0.257000000000
7.255945330000,-0.257000000000
7.263631615000,-0.257000000000
7.271317900000,-0.235000000000
7.279004185000,-0.208000000000
7.286690470000,-0.200000000000
7.294376755000,-0.195000000000
7.302063040000,-0.183000000000
7.309749325000,-0.188000000000
7.317435610000,-0.218000000000
7.325121895000,-0.237000000000
7.332808180000,-0.232000000000
7.340494465000,-0.222000000000
7.348180750000,-0.220000000000
7.355867035000,-0.215000000000
7.363553320000,-0.205000000000
7.371239605000,-0.203000000000
7.378925890000,-0.208000000000
7.386612175000,-0.215000000000
7.394298460000,-0.240000000000
7.401984745000,-0.301000000000
7.409671030000,-0.267000000000
7.417357315000,0.171000000000
7.425043600000,0.999000000000
7.432729885000,1.641000000000
7.440416170000,1.452000000000
7.448102455000,0.284000000000
7.455788740000,-0.710000000000
7.463475025000,-0.529000000000
7.471161310000,-0.154000000000
7.478847595000,-0.257000000000
7.486533880000,-0.262000000000
7.494220165000,-0.146000000000
7.501906450000,-0.166000000000
7.509592735000,-0.173000000000
7.517279020000,-0.122000000000
7.524965305000,-0.117000000000
7.532651590000,-0.105000000000
7.540337875000,-0.056000000000
7.548024160000,-0.029000000000
7.555710445000,-0.017000000000
7.563396730000,0.017000000000
7.571083015000,0.058000000000
7.578769300000,0.085000000000
7.586455585000,0.117000000000
7.594141870000,0.159000000000
7.601828155000,0.200000000000
7.609514440000,0.235000000000
7.617200725000,0.257000000000
7.624887010000,0.279000000000
7.632573295000,0.279000000000
7.640259580000,0.262000000000
7.647945865000,0.252000000000
7.655632150000,0.232000000000
7.663318435000,0.188000000000
7.671004720000,0.129000000000
7.678691005000,0.051000000000
7.686377290000,-0.046000000000
7.694063575000,-0.137000000000
7.701749860000,-0.222000000000
7.709436145000,-0.301000000000
7.717122430000,-0.357000000000
7.724808715000,-0.372000000000
7.732495000000,-0.357000000000
7.740181285000,-0.360000000000
7.747867570000,-0.374000000000
7.755553915000,-0.357000000000
7.763240200000,-0.330000000000
7.770926485000,-0.328000000000
7.778612770000,-0.315000000000
7.786299055000,-0.293000000000
7.793985340000,-0.284000000000
7.801671625000,-0.276000000000
7.809357910000,-0.271000000000
7.817044195000,-0.271000000000
7.824730480000,-0.271000000000
7.832416765000,-0.259000000000
7.840103050000,-0.252000000000
7.847789335000,-0.254000000000
7.855475620000,-0.259000000000
7.863161905000,-0.267000000000
7.870848190000,-0.264000000000
7.878534475000,-0.257000000000
7.886220760000,-0.252000000000
7.893907045000,-0.257000000000
7.901593330000,-0.259000000000
7.909279615000,-0.247000000000
7.916965900000,-0.244000000000
7.924652185000,-0.237000000000
7.932338470000,-0.205000000000
7.940024755000,-0.186000000000
7.947711040000,-0.195000000000
7.955397325000,-0.215000000000
7.963083610000,-0.230000000000
7.970769895000,-0.240000000000
7.978456180000,-0.244000000000
7.986142465000,-0.235000000000
7.993828750000,-0.222000000000
8.001515035000,-0.218000000000
8.009201320000,-0.210000000000
8.016887605000,-0.203000000000
8.024573890000,-0.210000000000
8.032260175000,-0.240000000000
8.039946460000,-0.298000000000
8.047632745000,-0.281000000000
8.055319030000,0.107000000000
8.063005315000,0.889000000000
8.070691600000,1.484000000000
8.078377885000,1.327000000000
8.086064170000,0.335000000000
8.093750455000,-0.617000000000
8.101436740000,-0.563000000000
8.109123025000,-0.203000000000
8.116809310000,-0.252000000000
8.124495595000,-0.257000000000
8.132181880000,-0.149000000000
8.139868165000,-0.173000000000
8.147554450000,-0.195000000000
8.155240735000,-0.139000000000
8.162927020000,-0.107000000000
8.170613305000,-0.097000000000
8.178299590000,-0.075000000000
8.185985875000,-0.053000000000
8.193672160000,-0.026000000000
8.201358445000,0.007000000000
8.209044730000,0.039000000000
8.216731015000,0.066000000000
8.224417300000,0.100000000000
8.232103585000,0.144000000000
8.239789870000,0.178000000000
8.247476155000,0.205000000000
8.255162440000,0.232000000000
8.262848725000,0.254000000000
8.270535010000,0.244000000000
8.278221295000,0.220000000000
8.285907580000,0.208000000000
8.293593865000,0.193000000000
8.301280150000,0.156000000000
8.308966435000,0.095000000000
8.316652776000,0.017000000000
8.324339061000,-0.068000000000
8.332025346000,-0.159000000000
8.339711631000,-0.252000000000
8.347397916000,-0.318000000000
8.355084201000,-0.355000000000
8.362770486000,-0.382000000000
8.370456771000,-0.396000000000
8.378143056000,-0.387000000000
8.385829341000,-0.374000000000
8.393515626000,-0.372000000000
8.401201911000,-0.357000000000
8.408888196000,-0.340000000000
8.416574481000,-0.333000000000
8.424260766000,-0.323000000000
8.431947051000,-0.308000000000
8.439633336000,-0.298000000000
8.447319621000,-0.293000000000
8.455005906000,-0.281000000000
8.462692191000,-0.276000000000
8.470378476000,-0.276000000000
8.478064761000,-0.271000000000
8.485751046000,-0.264000000000
8.493437331000,-0.262000000000
8.501123616000,-0.264000000000
8.508809901000,-0.267000000000
8.516496186000,-0.262000000000
8.524182471000,-0.259000000000
8.531868756000,-0.267000000000
8.539555041000,-0.271000000000
8.547241326000,-0.264000000000
8.554927611000,-0.254000000000
8.562613896000,-0.240000000000
8.570300181000,-0.230000000000
8.577986466000,-0.225000000000
8.585672751000,-0.205000000000
8.593359036000,-0.193000000000
8.601045321000,-0.220000000000
8.608731606000,-0.252000000000
8.616417891000,-0.247000000000
8.624104176000,-0.240000000000
8.631790461000,-0.240000000000
8.639476746000,-0.230000000000
8.647163031000,-0.218000000000
8.654849316000,-0.218000000000
8.662535601000,-0.220000000000
8.670221886000,-0.225000000000
8.677908171000,-0.257000000000
8.685594456000,-0.311000000000
8.693280741000,-0.193000000000
8.700967026000,0.362000000000
8.708653311000,1.141000000000
8.716339596000,1.592000000000
8.724025881000,1.205000000000
8.731712166000,-0.017000000000
8.739398451000,-0.783000000000
8.747084736000,-0.445000000000
8.754771021000,-0.159000000000
8.762457306000,-0.291000000000
8.770143591000,-0.269000000000
8.777829876000,-0.181000000000
8.785516161000,-0.213000000000
8.793202446000,-0.203000000000
8.800888731000,-0.154000000000
8.808575016000,-0.144000000000
8.816261301000,-0.134000000000
8.823947586000,-0.097000000000
8.831633871000,-0.075000000000
8.839320156000,-0.058000000000
8.847006441000,-0.026000000000
8.854692726000,0.002000000000
8.862379011000,0.034000000000
8.870065296000,0.071000000000
8.877751637000,0.105000000000
8.885437922000,0.139000000000
8.893124207000,0.169000000000
8.900810492000,0.181000000000
8.908496777000,0.193000000000
8.916183062000,0.198000000000
8.923869347000,0.186000000000
8.931555632000,0.169000000000
8.939241917000,0.146000000000
8.946928202000,0.107000000000
8.954614487000,0.048000000000
8.962300772000,-0.024000000000
8.969987057000,-0.115000000000
8.977673342000,-0.205000000000
8.985359627000,-0.284000000000
8.993045912000,-0.340000000000
9.000732197000,-0.372000000000
9.008418482000,-0.389000000000
9.016104767000,-0.394000000000
9.023791052000,-0.384000000000
9.031477337000,-0.372000000000
9.039163622000,-0.362000000000
9.046849907000,-0.350000000000
9.054536192000,-0.333000000000
9.062222477000,-0.320000000000
9.069908762000,-0.311000000000
9.077595047000,-0.298000000000
9.085281332000,-0.289000000000
9.092967617000,-0.281000000000
9.100653902000,-0.276000000000
9.108340187000,-0.274000000000
9.116026472000,-0.276000000000
9.123712757000,-0.276000000000
9.131399042000,-0.269000000000
9.139085327000,-0.267000000000
9.146771612000,-0.269000000000
9.154457897000,-0.269000000000
9.162144182000,-0.267000000000
9.169830467000,-0.264000000000
9.177516752000,-0.267000000000
9.185203037000,-0.267000000000
9.192889322000,-0.264000000000
9.200575607000,-0.267000000000
9.208261892000,-0.257000000000
9.215948177000,-0.235000000000
9.223634462000,-0.222000000000
9.231320747000,-0.215000000000
9.239007032000,-0.198000000000
9.246693317000,-0.191000000000
9.254379602000,-0.210000000000
9.262065887000,-0.237000000000
9.269752172000,-0.242000000000
9.277438457000,-0.230000000000
9.285124742000,-0.227000000000
9.292811027000,-0.225000000000
9.300497312000,-0.215000000000
9.308183597000,-0.210000000000
9.315869882000,-0.213000000000
9.323556167000,-0.218000000000
9.331242452000,-0.242000000000
9.338928737000,-0.306000000000
9.346615022000,-0.284000000000
9.354301307000,0.124000000000
9.361987592000,0.925000000000
9.369673877000,1.646000000000
9.377360162000,1.633000000000
9.385046447000,0.494000000000
9.392732732000,-0.698000000000
9.400419017000,-0.614000000000
9.408105302000,-0.129000000000
9.415791587000,-0.230000000000
9.423477872000,-0.328000000000
9.431164157000,-0.203000000000
9.438850498000,-0.193000000000
9.446536783000,-0.227000000000
9.454223068000,-0.176000000000
9.461909353000,-0.142000000000
9.469595638000,-0.144000000000
9.477281923000,-0.115000000000
9.484968208000,-0.080000000000
9.492654493000,-0.063000000000
9.500340778000,-0.039000000000
9.508027063000,-0.004000000000
9.515713348000,0.026000000000
9.523399633000,0.058000000000
9.531085918000,0.097000000000
9.538772203000,0.134000000000
9.546458488000,0.164000000000
9.554144773000,0.188000000000
9.561831058000,0.208000000000
9.569517343000,0.213000000000
9.577203628000,0.205000000000
9.584889913000,0.193000000000
9.592576198000,0.178000000000
9.600262483000,0.149000000000
9.607948768000,0.097000000000
9.615635053000,0.022000000000
9.623321338000,-0.071000000000
9.631007623000,-0.161000000000
9.638693908000,-0.247000000000
9.646380193000,-0.318000000000
9.654066478000,-0.364000000000
9.661752763000,-0.384000000000
9.669439048000,-0.394000000000
9.677125333000,-0.391000000000
9.684811618000,-0.382000000000
9.692497903000,-0.367000000000
9.700184188000,-0.352000000000
9.707870473000,-0.340000000000
9.715556758000,-0.325000000000
9.723243043000,-0.315000000000
9.730929328000,-0.306000000000
9.738615613000,-0.293000000000
9.746301898000,-0.286000000000
9.753988183000,-0.281000000000
9.761674468000,-0.281000000000
9.769360753000,-0.276000000000
9.777047038000,-0.274000000000
9.784733323000,-0.271000000000
9.792419608000,-0.271000000000
9.800105893000,-0.271000000000
9.807792178000,-0.267000000000
9.815478463000,-0.264000000000
9.823164748000,-0.262000000000
9.830851033000,-0.259000000000
9.838537318000,-0.257000000000
9.846223603000,-0.254000000000
9.853909888000,-0.257000000000
9.861596173000,-0.259000000000
9.869282458000,-0.252000000000
9.876968743000,-0.230000000000
9.884655028000,-0.208000000000
9.892341313000,-0.198000000000
9.900027598000,-0.195000000000
9.907713883000,-0.191000000000
9.915400168000,-0.195000000000
9.923086453000,-0.222000000000
9.930772738000,-0.247000000000
9.938459023000,-0.240000000000
9.946145308000,-0.225000000000
9.953831593000,-0.225000000000
9.961517878000,-0.220000000000
9.969204163000,-0.215000000000
9.976890448000,-0.210000000000
9.984576733000,-0.208000000000
9.992263018000,-0.215000000000
9.999949359000,-0.249000000000
10.007635644000,-0.315000000000
10.015321929000,-0.296000000000
10.023008214000,0.105000000000
10.030694499000,0.916000000000
10.038380784000,1.707000000000
10.046067069000,1.761000000000
10.053753354000,0.570000000000
10.061439639000,-0.710000000000
10.069125924000,-0.614000000000
10.076812209000,-0.107000000000
10.084498494000,-0.232000000000
10.092184779000,-0.340000000000
10.099871064000,-0.203000000000
10.107557349000,-0.193000000000
10.115243634000,-0.232000000000
10.122929919000,-0.181000000000
10.130616204000,-0.146000000000
10.138302489000,-0.144000000000
10.145988774000,-0.115000000000
10.153675059000,-0.080000000000
10.161361344000,-0.058000000000
10.169047629000,-0.034000000000
10.176733914000,-0.002000000000
10.184420199000,0.029000000000
10.192106484000,0.063000000000
10.199792769000,0.102000000000
10.207479054000,0.137000000000
10.215165339000,0.173000000000
10.222851624000,0.203000000000
10.230537909000,0.222000000000
10.238224194000,0.230000000000
10.245910479000,0.227000000000
10.253596764000,0.220000000000
10.261283049000,0.203000000000
10.268969334000,0.178000000000
10.276655619000,0.132000000000
10.284341904000,0.056000000000
10.292028189000,-0.036000000000
10.299714474000,-0.134000000000
10.307400759000,-0.227000000000
10.315087044000,-0.301000000000
10.322773329000,-0.350000000000
10.330459614000,-0.377000000000
10.338145899000,-0.384000000000
10.345832184000,-0.382000000000
10.353518469000,-0.374000000000
10.361204754000,-0.362000000000
10.368891039000,-0.350000000000
10.376577324000,-0.335000000000
10.384263609000,-0.323000000000
10.391949894000,-0.311000000000
10.399636179000,-0.301000000000
10.407322464000,-0.296000000000
10.415008749000,-0.289000000000
10.422695034000,-0.284000000000
10.430381319000,-0.281000000000
10.438067604000,-0.281000000000
10.445753889000,-0.279000000000
10.453440174000,-0.276000000000
10.461126459000,-0.274000000000
10.468812744000,-0.271000000000
10.476499029000,-0.267000000000
10.484185314000,-0.267000000000
10.491871599000,-0.264000000000
10.499557884000,-0.259000000000
10.507244169000,-0.257000000000
10.514930454000,-0.257000000000
10.522616739000,-0.252000000000
10.530303024000,-0.252000000000
10.537989309000,-0.257000000000
10.545675594000,-0.249000000000
10.553361879000,-0.222000000000
10.561048220000,-0.193000000000
10.568734575000,-0.183000000000
10.576420930000,-0.183000000000
10.584107285000,-0.176000000000
10.591793640000,-0.186000000000
10.599479995000,-0.227000000000
10.607166350000,-0.247000000000
10.614852705000,-0.225000000000
10.622539060000,-0.210000000000
10.630225415000,-0.215000000000
10.637911770000,-0.220000000000
10.645598125000,-0.218000000000
10.653284480000,-0.208000000000
10.660970835000,-0.198000000000
10.668657190000,-0.203000000000
10.676343545000,-0.227000000000
10.684029900000,-0.296000000000
10.691716255000,-0.325000000000
10.699402610000,-0.024000000000
10.707088965000,0.734000000000
10.714775320000,1.611000000000
10.722461675000,1.930000000000
10.730148030000,0.974000000000
10.737834385000,-0.511000000000
10.745520740000,-0.744000000000
10.753207095000,-0.178000000000
10.760893450000,-0.181000000000
10.768579805000,-0.347000000000
10.776266160000,-0.222000000000
10.783952515000,-0.176000000000
10.791638870000,-0.230000000000
10.799325225000,-0.191000000000
10.807011580000,-0.142000000000
10.814697935000,-0.137000000000
10.822384290000,-0.117000000000
10.830070645000,-0.088000000000
10.837757000000,-0.068000000000
10.845443355000,-0.039000000000
10.853129710000,0.000000000000
10.860816065000,0.036000000000
10.868502420000,0.073000000000
10.876188775000,0.107000000000
10.883875130000,0.137000000000
10.891561485000,0.178000000000
10.899247840000,0.220000000000
10.906934195000,0.232000000000
10.914620550000,0.235000000000
10.922306905000,0.240000000000
10.929993260000,0.242000000000
10.937679615000,0.227000000000
10.945365970000,0.195000000000
10.953052325000,0.156000000000
10.960738680000,0.100000000000
10.968425035000,0.012000000000
10.976111390000,-0.095000000000
10.983797745000,-0.198000000000
10.991484100000,-0.284000000000
10.999170455000,-0.340000000000
11.006856810000,-0.362000000000
11.014543165000,-0.372000000000
11.022229520000,-0.384000000000
11.029915875000,-0.374000000000
11.037602230000,-0.360000000000
11.045288585000,-0.350000000000
11.052974940000,-0.333000000000
11.060661295000,-0.320000000000
11.068347650000,-0.318000000000
11.076034005000,-0.306000000000
11.083720360000,-0.293000000000
11.091406715000,-0.289000000000
11.099093070000,-0.286000000000
11.106779425000,-0.281000000000
11.114465780000,-0.276000000000
11.122152172000,-0.276000000000
11.129838527000,-0.276000000000
11.137524882000,-0.269000000000
11.145211237000,-0.271000000000
11.152897592000,-0.279000000000
11.160583947000,-0.276000000000
11.168270302000,-0.269000000000
11.175956657000,-0.262000000000
11.183643012000,-0.257000000000
11.191329367000,-0.257000000000
11.199015722000,-0.262000000000
11.206702077000,-0.259000000000
11.214388432000,-0.247000000000
11.222074787000,-0.232000000000
11.229761142000,-0.210000000000
11.237447497000,-0.193000000000
11.245133852000,-0.186000000000
11.252820207000,-0.181000000000
11.260506562000,-0.183000000000
11.268192917000,-0.220000000000
11.275879272000,-0.247000000000
11.283565627000,-0.232000000000
11.291251982000,-0.222000000000
11.298938337000,-0.222000000000
11.306624692000,-0.218000000000
11.314311047000,-0.215000000000
11.321997402000,-0.213000000000
11.329683757000,-0.200000000000
11.337370112000,-0.203000000000
11.345056467000,-0.227000000000
11.352742822000,-0.284000000000
11.360429177000,-0.323000000000
11.368115532000,-0.083000000000
11.375801887000,0.641000000000
11.383488242000,1.489000000000
11.391174597000,1.775000000000
11.398860952000,0.925000000000
11.406547307000,-0.448000000000
11.414233662000,-0.742000000000
11.421920017000,-0.237000000000
11.429606372000,-0.193000000000
11.437292727000,-0.315000000000
11.444979082000,-0.208000000000
11.452665437000,-0.171000000000
11.460351792000,-0.208000000000
11.468038147000,-0.161000000000
11.475724502000,-0.122000000000
11.483410857000,-0.120000000000
11.491097212000,-0.093000000000
11.498783567000,-0.058000000000
11.506469922000,-0.041000000000
11.514156277000,-0.022000000000
11.521842632000,0.012000000000
11.529528987000,0.053000000000
11.537215342000,0.088000000000
11.544901697000,0.124000000000
11.552588052000,0.161000000000
11.560274407000,0.188000000000
11.567960762000,0.218000000000
11.575647117000,0.242000000000
11.583333472000,0.257000000000
11.591019827000,0.252000000000
11.598706182000,0.230000000000
11.606392537000,0.213000000000
11.614078892000,0.198000000000
11.621765247000,0.159000000000
11.629451602000,0.090000000000
11.637137957000,0.004000000000
11.644824312000,-0.093000000000
11.652510667000,-0.188000000000
11.660197022000,-0.259000000000
11.667883377000,-0.311000000000
11.675569732000,-0.350000000000
11.683256120000,-0.360000000000
11.690942475000,-0.357000000000
11.698628830000,-0.364000000000
11.706315185000,-0.357000000000
11.714001540000,-0.325000000000
11.721687895000,-0.308000000000
11.729374250000,-0.308000000000
11.737060605000,-0.298000000000
11.744746960000,-0.279000000000
11.752433315000,-0.269000000000
11.760119670000,-0.269000000000
11.767806025000,-0.271000000000
11.775492380000,-0.264000000000
11.783178735000,-0.259000000000
11.790865090000,-0.257000000000
11.798551445000,-0.249000000000
11.806237800000,-0.247000000000
11.813924155000,-0.252000000000
11.821610510000,-0.252000000000
11.829296865000,-0.247000000000
11.836983220000,-0.249000000000
11.844669575000,-0.252000000000
11.852355930000,-0.247000000000
11.860042285000,-0.240000000000
11.867728640000,-0.235000000000
11.875414995000,-0.237000000000
11.883101350000,-0.222000000000
11.890787705000,-0.195000000000
11.898474060000,-0.181000000000
11.906160415000,-0.181000000000
11.913846770000,-0.173000000000
11.921533125000,-0.171000000000
11.929219480000,-0.200000000000
11.936905835000,-0.235000000000
11.944592190000,-0.222000000000
11.952278545000,-0.200000000000
11.959964900000,-0.200000000000
11.967651255000,-0.191000000000
11.975337610000,-0.193000000000
11.983023965000,-0.200000000000
11.990710320000,-0.191000000000
11.998396675000,-0.188000000000
12.006083030000,-0.213000000000
12.013769385000,-0.269000000000
12.021455740000,-0.276000000000
12.029142095000,0.080000000000
12.036828450000,0.876000000000
12.044514805000,1.577000000000
12.052201160000,1.540000000000
12.059887515000,0.502000000000
12.067573870000,-0.607000000000
12.075260225000,-0.580000000000
12.082946580000,-0.159000000000
12.090632935000,-0.222000000000
12.098319290000,-0.262000000000
12.106005645000,-0.139000000000
12.113692000000,-0.154000000000
12.121378355000,-0.176000000000
12.129064710000,-0.112000000000
12.136751065000,-0.095000000000
12.144437420000,-0.100000000000
12.152123775000,-0.058000000000
12.159810130000,-0.019000000000
12.167496485000,0.000000000000
12.175182840000,0.026000000000
12.182869195000,0.048000000000
12.190555550000,0.073000000000
12.198241905000,0.124000000000
12.205928260000,0.173000000000
12.213614615000,0.205000000000
12.221300970000,0.235000000000
12.228987325000,0.252000000000
12.236673680000,0.264000000000
12.244360068000,0.279000000000
12.252046423000,0.267000000000
12.259732778000,0.247000000000
12.267419133000,0.242000000000
12.275105488000,0.210000000000
12.282791843000,0.149000000000
12.290478198000,0.073000000000
12.298164553000,-0.024000000000
12.305850908000,-0.124000000000
12.313537263000,-0.198000000000
12.321223618000,-0.259000000000
12.328909973000,-0.315000000000
12.336596328000,-0.352000000000
12.344282683000,-0.360000000000
12.351969038000,-0.347000000000
12.359655393000,-0.335000000000
12.367341748000,-0.325000000000
12.375028103000,-0.313000000000
12.382714458000,-0.306000000000
12.390400813000,-0.293000000000
12.398087168000,-0.289000000000
12.405773523000,-0.286000000000
12.413459878000,-0.267000000000
12.421146233000,-0.257000000000
12.428832588000,-0.254000000000
12.436518943000,-0.240000000000
12.444205298000,-0.235000000000
12.451891653000,-0.252000000000
12.459578008000,-0.254000000000
12.467264363000,-0.242000000000
12.474950718000,-0.244000000000
12.482637073000,-0.242000000000
12.490323428000,-0.225000000000
12.498009783000,-0.225000000000
12.505696138000,-0.242000000000
12.513382493000,-0.244000000000
12.521068848000,-0.225000000000
12.528755203000,-0.208000000000
12.536441558000,-0.210000000000
12.544127913000,-0.213000000000
12.551814268000,-0.200000000000
12.559500623000,-0.164000000000
12.567186978000,-0.146000000000
12.574873333000,-0.169000000000
12.582559688000,-0.200000000000
12.590246043000,-0.210000000000
12.597932398000,-0.203000000000
12.605618753000,-0.195000000000
12.613305108000,-0.186000000000
12.620991463000,-0.178000000000
12.628677818000,-0.181000000000
12.636364173000,-0.183000000000
12.644050528000,-0.176000000000
12.651736883000,-0.191000000000
12.659423238000,-0.230000000000
12.667109593000,-0.276000000000
12.674795948000,-0.161000000000
12.682482303000,0.394000000000
12.690168658000,1.185000000000
12.697855013000,1.577000000000
12.705541368000,1.097000000000
12.713227723000,-0.058000000000
12.720914078000,-0.700000000000
12.728600433000,-0.377000000000
12.736286788000,-0.132000000000
12.743973143000,-0.232000000000
12.751659498000,-0.186000000000
12.759345853000,-0.117000000000
12.767032208000,-0.156000000000
12.774718563000,-0.149000000000
12.782404918000,-0.100000000000
12.790091273000,-0.075000000000
12.797777628000,-0.061000000000
12.805464016000,-0.036000000000
12.813150371000,-0.012000000000
12.820836726000,0.007000000000
12.828523081000,0.046000000000
12.836209436000,0.085000000000
12.843895791000,0.107000000000
12.851582146000,0.137000000000
12.859268501000,0.173000000000
12.866954856000,0.220000000000
12.874641211000,0.252000000000
12.882327566000,0.269000000000
12.890013921000,0.276000000000
12.897700276000,0.264000000000
12.905386631000,0.252000000000
12.913072986000,0.240000000000
12.920759341000,0.213000000000
12.928445696000,0.166000000000
12.936132051000,0.102000000000
12.943818406000,0.017000000000
12.951504761000,-0.073000000000
12.959191116000,-0.173000000000
12.966877471000,-0.267000000000
12.974563826000,-0.323000000000
12.982250181000,-0.352000000000
12.989936536000,-0.367000000000
12.997622891000,-0.374000000000
13.005309246000,-0.372000000000
13.012995601000,-0.357000000000
13.020681956000,-0.342000000000
13.028368311000,-0.340000000000
13.036054666000,-0.330000000000
13.043741021000,-0.311000000000
13.051427376000,-0.298000000000
13.059113731000,-0.296000000000
13.066800086000,-0.291000000000
13.074486441000,-0.286000000000
13.082172796000,-0.281000000000
13.089859151000,-0.274000000000
13.097545506000,-0.271000000000
13.105231861000,-0.271000000000
13.112918216000,-0.267000000000
13.120604571000,-0.271000000000
13.128290926000,-0.276000000000
13.135977281000,-0.269000000000
13.143663636000,-0.264000000000
13.151349991000,-0.264000000000
13.159036346000,-0.262000000000
13.166722701000,-0.262000000000
13.174409056000,-0.267000000000
13.182095411000,-0.264000000000
13.189781766000,-0.264000000000
13.197468121000,-0.262000000000
13.205154476000,-0.240000000000
13.212840831000,-0.220000000000
13.220527186000,-0.215000000000
13.228213541000,-0.200000000000
13.235899896000,-0.188000000000
13.243586251000,-0.205000000000
13.251272606000,-0.237000000000
13.258958961000,-0.249000000000
13.266645316000,-0.237000000000
13.274331671000,-0.230000000000
13.282018026000,-0.230000000000
13.289704381000,-0.227000000000
13.297390736000,-0.220000000000
13.305077091000,-0.215000000000
13.312763446000,-0.222000000000
13.320449801000,-0.237000000000
13.328136156000,-0.291000000000
13.335822511000,-0.340000000000
13.343508866000,-0.122000000000
13.351195221000,0.565000000000
13.358881576000,1.371000000000
13.366567964000,1.680000000000
13.374254319000,0.962000000000
13.381940674000,-0.357000000000
13.389627029000,-0.764000000000
13.397313384000,-0.291000000000
13.404999739000,-0.193000000000
13.412686094000,-0.328000000000
13.420372449000,-0.237000000000
13.428058804000,-0.188000000000
13.435745159000,-0.237000000000
13.443431514000,-0.205000000000
13.451117869000,-0.159000000000
13.458804224000,-0.154000000000
13.466490579000,-0.137000000000
13.474176934000,-0.102000000000
13.481863289000,-0.083000000000
13.489549644000,-0.063000000000
13.497235999000,-0.026000000000
13.504922354000,0.004000000000
13.512608709000,0.036000000000
13.520295064000,0.073000000000
13.527981419000,0.110000000000
13.535667774000,0.139000000000
13.543354129000,0.166000000000
13.551040484000,0.188000000000
13.558726839000,0.198000000000
13.566413194000,0.191000000000
13.574099549000,0.181000000000
13.581785904000,0.164000000000
13.589472259000,0.139000000000
13.597158614000,0.100000000000
13.604844969000,0.036000000000
13.612531324000,-0.044000000000
13.620217679000,-0.134000000000
13.627904034000,-0.220000000000
13.635590389000,-0.296000000000
13.643276744000,-0.350000000000
13.650963099000,-0.379000000000
13.658649454000,-0.391000000000
13.666335809000,-0.394000000000
13.674022164000,-0.389000000000
13.681708519000,-0.374000000000
13.689394874000,-0.357000000000
13.697081229000,-0.347000000000
13.704767584000,-0.335000000000
13.712453939000,-0.318000000000
13.720140294000,-0.308000000000
13.727826649000,-0.301000000000
13.735513004000,-0.291000000000
13.743199359000,-0.284000000000
13.750885714000,-0.286000000000
13.758572069000,-0.284000000000
13.766258424000,-0.279000000000
13.773944779000,-0.279000000000
13.781631134000,-0.281000000000
13.789317489000,-0.281000000000
13.797003844000,-0.279000000000
13.804690199000,-0.276000000000
13.812376554000,-0.274000000000
13.820062909000,-0.274000000000
13.827749264000,-0.274000000000
13.835435619000,-0.271000000000
13.843121974000,-0.267000000000
13.850808329000,-0.264000000000
13.858494684000,-0.259000000000
13.866181039000,-0.259000000000
13.873867394000,-0.264000000000
13.881553749000,-0.259000000000
13.889240104000,-0.242000000000
13.896926459000,-0.220000000000
13.904612814000,-0.210000000000
13.912299169000,-0.200000000000
13.919985524000,-0.188000000000
13.927671908000,-0.186000000000
13.935358193000,-0.205000000000
13.943044478000,-0.235000000000
13.950730763000,-0.240000000000
13.958417048000,-0.230000000000
13.966103333000,-0.227000000000
13.973789618000,-0.222000000000
13.981475903000,-0.218000000000
13.989162188000,-0.213000000000
13.996848473000,-0.210000000000
14.004534758000,-0.215000000000
14.012221043000,-0.242000000000
14.019907328000,-0.308000000000
14.027593613000,-0.330000000000
14.035279898000,-0.029000000000
14.042966183000,0.710000000000
14.050652468000,1.555000000000
14.058338753000,1.869000000000
14.066025038000,0.977000000000
14.073711323000,-0.475000000000
14.081397608000,-0.747000000000
14.089083893000,-0.186000000000
14.096770178000,-0.171000000000
14.104456463000,-0.360000000000
14.112142748000,-0.249000000000
14.119829033000,-0.195000000000
14.127515318000,-0.247000000000
14.135201603000,-0.210000000000
14.142887888000,-0.161000000000
14.150574173000,-0.159000000000
14.158260458000,-0.137000000000
14.165946743000,-0.102000000000
14.173633028000,-0.080000000000
14.181319313000,-0.056000000000
14.189005598000,-0.024000000000
14.196691883000,0.007000000000
14.204378168000,0.041000000000
14.212064453000,0.075000000000
14.219750738000,0.115000000000
14.227437023000,0.149000000000
14.235123308000,0.178000000000
14.242809593000,0.203000000000
14.250495878000,0.213000000000
14.258182163000,0.215000000000
14.265868448000,0.208000000000
14.273554733000,0.193000000000
14.281241018000,0.169000000000
14.288927303000,0.132000000000
14.296613588000,0.068000000000
14.304299873000,-0.024000000000
14.311986158000,-0.120000000000
14.319672443000,-0.213000000000
14.327358728000,-0.293000000000
14.335045013000,-0.350000000000
14.342731298000,-0.382000000000
14.350417583000,-0.396000000000
14.358103868000,-0.396000000000
14.365790153000,-0.391000000000
14.373476438000,-0.382000000000
14.381162723000,-0.367000000000
14.388849008000,-0.352000000000
14.396535293000,-0.340000000000
14.404221578000,-0.328000000000
14.411907863000,-0.315000000000
14.419594148000,-0.306000000000
14.427280433000,-0.298000000000
14.434966718000,-0.293000000000
14.442653003000,-0.293000000000
14.450339288000,-0.291000000000
14.458025573000,-0.286000000000
14.465711858000,-0.284000000000
14.473398143000,-0.284000000000
14.481084428000,-0.279000000000
14.488770773000,-0.276000000000
14.496457058000,-0.274000000000
14.504143343000,-0.271000000000
14.511829628000,-0.269000000000
14.519515913000,-0.267000000000
14.527202198000,-0.262000000000
14.534888483000,-0.257000000000
14.542574768000,-0.252000000000
14.550261053000,-0.249000000000
14.557947338000,-0.252000000000
14.565633623000,-0.252000000000
14.573319908000,-0.244000000000
14.581006193000,-0.222000000000
14.588692478000,-0.195000000000
14.596378763000,-0.181000000000
14.604065048000,-0.178000000000
14.611751333000,-0.173000000000
14.619437618000,-0.176000000000
14.627123903000,-0.203000000000
14.634810188000,-0.232000000000
14.642496473000,-0.230000000000
14.650182758000,-0.215000000000
14.657869043000,-0.213000000000
14.665555328000,-0.210000000000
14.673241613000,-0.203000000000
14.680927898000,-0.200000000000
14.688614183000,-0.198000000000
14.696300468000,-0.198000000000
14.703986753000,-0.218000000000
14.711673038000,-0.279000000000
14.719359323000,-0.328000000000
14.727045608000,-0.127000000000
14.734731893000,0.519000000000
14.742418178000,1.396000000000
14.750104463000,1.944000000000
14.757790748000,1.339000000000
14.765477033000,-0.203000000000
14.773163318000,-0.823000000000
14.780849603000,-0.279000000000
14.788535888000,-0.115000000000
14.796222173000,-0.342000000000
14.803908458000,-0.274000000000
14.811594743000,-0.176000000000
14.819281028000,-0.230000000000
14.826967313000,-0.218000000000
14.834653598000,-0.156000000000
14.842339883000,-0.149000000000
14.850026168000,-0.137000000000
14.857712453000,-0.097000000000
14.865398738000,-0.075000000000
14.873085023000,-0.053000000000
14.880771308000,-0.019000000000
14.888457593000,0.014000000000
14.896143878000,0.046000000000
14.903830163000,0.080000000000
14.911516448000,0.120000000000
14.919202733000,0.159000000000
14.926889018000,0.193000000000
14.934575303000,0.220000000000
14.942261588000,0.232000000000
14.949947873000,0.232000000000
14.957634158000,0.227000000000
14.965320443000,0.218000000000
14.973006728000,0.198000000000
14.980693013000,0.161000000000
14.988379298000,0.105000000000
14.996065583000,0.022000000000
15.003751868000,-0.075000000000
15.011438153000,-0.173000000000
15.019124438000,-0.259000000000
15.026810723000,-0.325000000000
15.034497008000,-0.367000000000
15.042183293000,-0.384000000000
15.049869634000,-0.384000000000
15.057555919000,-0.379000000000
15.065242204000,-0.367000000000
15.072928489000,-0.357000000000
15.080614774000,-0.347000000000
15.088301059000,-0.328000000000
15.095987344000,-0.313000000000
15.103673629000,-0.303000000000
15.111359914000,-0.298000000000
15.119046199000,-0.291000000000
15.126732484000,-0.289000000000
15.134418769000,-0.289000000000
15.142105054000,-0.286000000000
15.149791339000,-0.279000000000
15.157477624000,-0.274000000000
15.165163909000,-0.274000000000
15.172850194000,-0.274000000000
15.180536479000,-0.269000000000
15.188222764000,-0.267000000000
15.195909049000,-0.267000000000
15.203595334000,-0.259000000000
15.211281619000,-0.257000000000
15.218967904000,-0.254000000000
15.226654189000,-0.252000000000
15.234340474000,-0.249000000000
15.242026759000,-0.242000000000
15.249713044000,-0.240000000000
15.257399329000,-0.244000000000
15.265085614000,-0.225000000000
15.272771899000,-0.188000000000
15.280458184000,-0.171000000000
15.288144469000,-0.171000000000
15.295830754000,-0.169000000000
15.303517039000,-0.169000000000
15.311203324000,-0.188000000000
15.318889609000,-0.215000000000
15.326575894000,-0.220000000000
15.334262179000,-0.213000000000
15.341948464000,-0.208000000000
15.349634749000,-0.200000000000
15.357321034000,-0.195000000000
15.365007319000,-0.188000000000
15.372693604000,-0.183000000000
15.380379889000,-0.181000000000
15.388066174000,-0.195000000000
15.395752459000,-0.244000000000
15.403438744000,-0.320000000000
15.411125029000,-0.249000000000
15.418811314000,0.262000000000
15.426497599000,1.139000000000
15.434183884000,1.876000000000
15.441870169000,1.682000000000
15.449556454000,0.286000000000
15.457242739000,-0.781000000000
15.464929024000,-0.475000000000
15.472615309000,-0.100000000000
15.480301594000,-0.276000000000
15.487987879000,-0.289000000000
15.495674164000,-0.169000000000
15.503360449000,-0.200000000000
15.511046734000,-0.200000000000
15.518733019000,-0.137000000000
15.526419304000,-0.129000000000
15.534105589000,-0.124000000000
15.541791874000,-0.083000000000
15.549478159000,-0.058000000000
15.557164444000,-0.041000000000
15.564850729000,-0.004000000000
15.572537014000,0.034000000000
15.580223299000,0.061000000000
15.587909584000,0.095000000000
15.595595869000,0.142000000000
15.603282154000,0.178000000000
15.610968495000,0.218000000000
15.618655059000,0.249000000000
15.626341623000,0.259000000000
15.634028187000,0.259000000000
15.641714751000,0.264000000000
15.649401315000,0.254000000000
15.657087879000,0.227000000000
15.664774443000,0.195000000000
15.672461007000,0.154000000000
15.680147571000,0.080000000000
15.687834135000,-0.026000000000
15.695520699000,-0.134000000000
15.703207263000,-0.218000000000
15.710893827000,-0.291000000000
15.718580391000,-0.342000000000
15.726266955000,-0.364000000000
15.733953519000,-0.382000000000
15.741640083000,-0.391000000000
15.749326647000,-0.372000000000
15.757013211000,-0.340000000000
15.764699775000,-0.328000000000
15.772386339000,-0.328000000000
15.780072903000,-0.315000000000
15.787759467000,-0.301000000000
15.795446031000,-0.291000000000
15.803132595000,-0.289000000000
15.810819159000,-0.281000000000
15.818505723000,-0.274000000000
15.826192287000,-0.269000000000
15.833878851000,-0.269000000000
15.841565415000,-0.269000000000
15.849251979000,-0.264000000000
15.856938543000,-0.267000000000
15.864625107000,-0.274000000000
15.872311671000,-0.262000000000
15.879998235000,-0.247000000000
15.887684799000,-0.252000000000
15.895371363000,-0.254000000000
15.903057927000,-0.254000000000
15.910744491000,-0.249000000000
15.918431055000,-0.244000000000
15.926117619000,-0.247000000000
15.933804183000,-0.244000000000
15.941490747000,-0.215000000000
15.949177311000,-0.183000000000
15.956863875000,-0.173000000000
15.964550439000,-0.169000000000
15.972237003000,-0.166000000000
15.979923567000,-0.186000000000
15.987610131000,-0.215000000000
15.995296695000,-0.230000000000
16.002983259000,-0.230000000000
16.010669823000,-0.220000000000
16.018356387000,-0.205000000000
16.026042951000,-0.200000000000
16.033729515000,-0.205000000000
16.041416079000,-0.193000000000
16.049102643000,-0.183000000000
16.056789207000,-0.200000000000
16.064475771000,-0.242000000000
16.072162335000,-0.311000000000
16.079848899000,-0.254000000000
16.087535463000,0.262000000000
16.095222027000,1.139000000000
16.102908591000,1.778000000000
16.110595155000,1.501000000000
16.118281719000,0.203000000000
16.125968283000,-0.747000000000
16.133654847000,-0.458000000000
16.141341411000,-0.127000000000
16.149027975000,-0.281000000000
16.156714539000,-0.276000000000
16.164401103000,-0.166000000000
16.172087704000,-0.181000000000
16.179774059000,-0.173000000000
16.187460414000,-0.132000000000
16.195146769000,-0.129000000000
16.202833124000,-0.107000000000
16.210519479000,-0.053000000000
16.218205834000,-0.036000000000
16.225892189000,-0.031000000000
16.233578544000,0.002000000000
16.241264899000,0.041000000000
16.248951254000,0.073000000000
16.256637609000,0.107000000000
16.264323964000,0.146000000000
16.272010319000,0.193000000000
16.279696674000,0.230000000000
16.287383029000,0.244000000000
16.295069384000,0.257000000000
16.302755739000,0.262000000000
16.310442094000,0.262000000000
16.318128449000,0.240000000000
16.325814804000,0.208000000000
16.333501159000,0.183000000000
16.341187514000,0.139000000000
16.348873869000,0.053000000000
16.356560224000,-0.041000000000
16.364246579000,-0.129000000000
16.371932934000,-0.225000000000
16.379619289000,-0.298000000000
16.387305644000,-0.335000000000
16.394991999000,-0.352000000000
16.402678354000,-0.357000000000
16.410364709000,-0.362000000000
16.418051064000,-0.360000000000
16.425737419000,-0.342000000000
16.433423774000,-0.318000000000
16.441110129000,-0.303000000000
16.448796484000,-0.296000000000
16.456482839000,-0.281000000000
16.464169194000,-0.276000000000
16.471855549000,-0.284000000000
16.479541904000,-0.271000000000
16.487228259000,-0.249000000000
16.494914614000,-0.252000000000
16.502600969000,-0.259000000000
16.510287324000,-0.249000000000
16.517973679000,-0.244000000000
16.525660034000,-0.244000000000
16.533346389000,-0.240000000000
16.541032744000,-0.235000000000
16.548719099000,-0.240000000000
16.556405454000,-0.232000000000
16.564091809000,-0.230000000000
16.571778164000,-0.247000000000
16.579464519000,-0.249000000000
16.587150874000,-0.225000000000
16.594837229000,-0.213000000000
16.602523584000,-0.200000000000
16.610209939000,-0.178000000000
16.617896294000,-0.176000000000
16.625582649000,-0.173000000000
16.633269004000,-0.171000000000
16.640955359000,-0.198000000000
16.648641714000,-0.215000000000
16.656328069000,-0.208000000000
16.664014424000,-0.203000000000
16.671700779000,-0.200000000000
16.679387134000,-0.188000000000
16.687073489000,-0.176000000000
16.694759844000,-0.178000000000
16.702446199000,-0.183000000000
16.710132554000,-0.191000000000
16.717818909000,-0.218000000000
16.725505264000,-0.276000000000
16.733191652000,-0.227000000000
16.740877589000,0.259000000000
16.748563526000,1.072000000000
16.756249463000,1.582000000000
16.763935400000,1.271000000000
16.771621337000,0.156000000000
16.779307274000,-0.673000000000
16.786993211000,-0.450000000000
16.794679148000,-0.144000000000
16.802365085000,-0.252000000000
16.810051022000,-0.227000000000
16.817736959000,-0.120000000000
16.825422896000,-0.154000000000
16.833108833000,-0.169000000000
16.840794770000,-0.102000000000
16.848480707000,-0.071000000000
16.856166644000,-0.078000000000
16.863852581000,-0.061000000000
16.871538518000,-0.024000000000
16.879224455000,0.000000000000
16.886910392000,0.031000000000
16.894596329000,0.071000000000
16.902282266000,0.105000000000
16.909968203000,0.139000000000
16.917654140000,0.171000000000
16.925340077000,0.200000000000
16.933026014000,0.237000000000
16.940711951000,0.269000000000
16.948397888000,0.279000000000
16.956083825000,0.267000000000
16.963769762000,0.257000000000
16.971455699000,0.247000000000
16.979141636000,0.210000000000
16.986827573000,0.178000000000
16.994513510000,0.137000000000
17.002199447000,0.044000000000
17.009885384000,-0.068000000000
17.017571321000,-0.164000000000
17.025257258000,-0.244000000000
17.032943195000,-0.296000000000
17.040629132000,-0.338000000000
17.048315069000,-0.364000000000
17.056001006000,-0.364000000000
17.063686943000,-0.355000000000
17.071372880000,-0.364000000000
17.079058817000,-0.360000000000
17.086744754000,-0.325000000000
17.094430691000,-0.306000000000
17.102116628000,-0.303000000000
17.109802565000,-0.284000000000
17.117488502000,-0.276000000000
17.125174439000,-0.281000000000
17.132860376000,-0.271000000000
17.140546313000,-0.264000000000
17.148232250000,-0.262000000000
17.155918187000,-0.247000000000
17.163604124000,-0.242000000000
17.171290061000,-0.249000000000
17.178975998000,-0.249000000000
17.186661935000,-0.249000000000
17.194347872000,-0.235000000000
17.202033809000,-0.230000000000
17.209719746000,-0.244000000000
17.217405683000,-0.242000000000
17.225091620000,-0.242000000000
17.232777557000,-0.240000000000
17.240463494000,-0.225000000000
17.248149431000,-0.220000000000
17.255835368000,-0.213000000000
17.263521305000,-0.198000000000
17.271207242000,-0.188000000000
17.278893179000,-0.171000000000
17.286579116000,-0.161000000000
17.294265078000,-0.181000000000
17.301951363000,-0.218000000000
17.309637648000,-0.218000000000
17.317323933000,-0.203000000000
17.325010218000,-0.203000000000
17.332696503000,-0.191000000000
17.340382788000,-0.181000000000
17.348069073000,-0.198000000000
17.355755358000,-0.198000000000
17.363441643000,-0.186000000000
17.371127928000,-0.208000000000
17.378814213000,-0.286000000000
17.386500498000,-0.237000000000
17.394186783000,0.237000000000
17.401873068000,0.987000000000
17.409559353000,1.406000000000
17.417245638000,1.114000000000
17.424931923000,0.134000000000
17.432618208000,-0.658000000000
17.440304493000,-0.482000000000
17.447990778000,-0.146000000000
17.455677063000,-0.220000000000
17.463363348000,-0.213000000000
17.471049633000,-0.110000000000
17.478735918000,-0.137000000000
17.486422203000,-0.154000000000
17.494108488000,-0.102000000000
17.501794773000,-0.073000000000
17.509481058000,-0.066000000000
17.517167343000,-0.046000000000
17.524853628000,-0.012000000000
17.532539913000,0.017000000000
17.540226198000,0.041000000000
17.547912483000,0.068000000000
17.555598768000,0.097000000000
17.563285053000,0.137000000000
17.570971338000,0.169000000000
17.578657623000,0.213000000000
17.586343908000,0.252000000000
17.594030193000,0.262000000000
17.601716478000,0.267000000000
17.609402763000,0.271000000000
17.617089048000,0.254000000000
17.624775333000,0.242000000000
17.632461618000,0.227000000000
17.640147903000,0.181000000000
17.647834188000,0.117000000000
17.655520473000,0.044000000000
17.663206758000,-0.051000000000
17.670893043000,-0.151000000000
17.678579328000,-0.237000000000
17.686265613000,-0.298000000000
17.693951898000,-0.340000000000
17.701638183000,-0.367000000000
17.709324468000,-0.374000000000
17.717010753000,-0.367000000000
17.724697038000,-0.357000000000
17.732383323000,-0.342000000000
17.740069608000,-0.333000000000
17.747755893000,-0.320000000000
17.755442178000,-0.308000000000
17.763128463000,-0.293000000000
17.770814748000,-0.279000000000
17.778501033000,-0.279000000000
17.786187318000,-0.281000000000
17.793873603000,-0.269000000000
17.801559888000,-0.259000000000
17.809246173000,-0.257000000000
17.816932458000,-0.249000000000
17.824618743000,-0.249000000000
17.832305028000,-0.257000000000
17.839991313000,-0.259000000000
17.847677598000,-0.252000000000
17.855363943000,-0.247000000000
17.863050228000,-0.252000000000
17.870736513000,-0.249000000000
17.878422798000,-0.244000000000
17.886109083000,-0.252000000000
17.893795368000,-0.252000000000
17.901481653000,-0.237000000000
17.909167938000,-0.225000000000
17.916854223000,-0.218000000000
17.924540508000,-0.215000000000
17.932226793000,-0.200000000000
17.939913078000,-0.181000000000
17.947599363000,-0.195000000000
17.955285648000,-0.227000000000
17.962971933000,-0.237000000000
17.970658218000,-0.232000000000
17.978344503000,-0.225000000000
17.986030788000,-0.225000000000
17.993717073000,-0.227000000000
18.001403358000,-0.218000000000
18.009089643000,-0.200000000000
18.016775928000,-0.205000000000
18.024462213000,-0.240000000000
18.032148498000,-0.296000000000
18.039834783000,-0.298000000000
18.047521068000,0.034000000000
18.055207353000,0.776000000000
18.062893638000,1.428000000000
18.070579923000,1.459000000000
18.078266208000,0.602000000000
18.085952493000,-0.509000000000
18.093638778000,-0.651000000000
18.101325063000,-0.230000000000
18.109011348000,-0.218000000000
18.116697633000,-0.301000000000
18.124383918000,-0.208000000000
18.132070203000,-0.186000000000
18.139756488000,-0.213000000000
18.147442773000,-0.178000000000
18.155129058000,-0.144000000000
18.162815343000,-0.129000000000
18.170501628000,-0.105000000000
18.178187913000,-0.083000000000
18.185874198000,-0.061000000000
18.193560483000,-0.034000000000
18.201246768000,-0.004000000000
18.208933053000,0.019000000000
18.216619338000,0.051000000000
18.224305623000,0.093000000000
18.231991908000,0.132000000000
18.239678193000,0.159000000000
18.247364478000,0.183000000000
18.255050763000,0.198000000000
18.262737048000,0.198000000000
18.270423333000,0.193000000000
18.278109618000,0.181000000000
18.285795903000,0.156000000000
18.293482188000,0.127000000000
18.301168473000,0.083000000000
18.308854758000,0.017000000000
18.316541043000,-0.066000000000
18.324227328000,-0.156000000000
18.331913613000,-0.242000000000
18.339599898000,-0.311000000000
18.347286183000,-0.355000000000
18.354972468000,-0.379000000000
18.362658753000,-0.389000000000
18.370345038000,-0.389000000000
18.378031323000,-0.382000000000
18.385717608000,-0.367000000000
18.393403893000,-0.350000000000
18.401090178000,-0.335000000000
18.408776463000,-0.323000000000
18.416462804000,-0.313000000000
18.424149298000,-0.303000000000
18.431835792000,-0.289000000000
18.439522286000,-0.281000000000
18.447208780000,-0.281000000000
18.454895274000,-0.276000000000
18.462581768000,-0.274000000000
18.470268262000,-0.276000000000
18.477954756000,-0.276000000000
18.485641250000,-0.274000000000
18.493327744000,-0.276000000000
18.501014238000,-0.279000000000
18.508700732000,-0.276000000000
18.516387226000,-0.271000000000
18.524073720000,-0.271000000000
18.531760214000,-0.269000000000
18.539446708000,-0.262000000000
18.547133202000,-0.257000000000
18.554819696000,-0.257000000000
18.562506190000,-0.264000000000
18.570192684000,-0.269000000000
18.577879178000,-0.257000000000
18.585565672000,-0.232000000000
18.593252166000,-0.215000000000
18.600938660000,-0.213000000000
18.608625154000,-0.200000000000
18.616311648000,-0.183000000000
18.623998142000,-0.188000000000
18.631684636000,-0.218000000000
18.639371130000,-0.237000000000
18.647057624000,-0.230000000000
18.654744118000,-0.222000000000
18.662430612000,-0.218000000000
18.670117106000,-0.210000000000
18.677803600000,-0.208000000000
18.685490094000,-0.203000000000
18.693176588000,-0.205000000000
18.700863082000,-0.227000000000
18.708549576000,-0.281000000000
18.716236070000,-0.320000000000
18.723922564000,-0.107000000000
18.731609058000,0.553000000000
18.739295552000,1.359000000000
18.746982046000,1.734000000000
18.754668540000,1.094000000000
18.762355034000,-0.269000000000
18.770041528000,-0.786000000000
18.777728022000,-0.286000000000
18.785414516000,-0.127000000000
18.793101010000,-0.318000000000
18.800787504000,-0.257000000000
18.808473998000,-0.173000000000
18.816160492000,-0.218000000000
18.823846986000,-0.200000000000
18.831533480000,-0.144000000000
18.839219974000,-0.139000000000
18.846906468000,-0.129000000000
18.854592962000,-0.093000000000
18.862279456000,-0.068000000000
18.869965950000,-0.046000000000
18.877652444000,-0.014000000000
18.885338938000,0.012000000000
18.893025432000,0.044000000000
18.900711926000,0.080000000000
18.908398420000,0.117000000000
18.916084914000,0.149000000000
18.923771408000,0.181000000000
18.931457902000,0.203000000000
18.939144396000,0.213000000000
18.946830890000,0.210000000000
18.954517384000,0.200000000000
18.962203878000,0.186000000000
18.969890372000,0.166000000000
18.977576926000,0.129000000000
18.985263420000,0.073000000000
18.992949914000,-0.012000000000
19.000636408000,-0.110000000000
19.008322902000,-0.198000000000
19.016009396000,-0.279000000000
19.023695890000,-0.340000000000
19.031382384000,-0.372000000000
19.039068878000,-0.384000000000
19.046755372000,-0.389000000000
19.054441866000,-0.382000000000
19.062128360000,-0.369000000000
19.069814854000,-0.357000000000
19.077501348000,-0.345000000000
19.085187842000,-0.330000000000
19.092874336000,-0.315000000000
19.100560830000,-0.306000000000
19.108247324000,-0.298000000000
19.115933818000,-0.286000000000
19.123620312000,-0.279000000000
19.131306806000,-0.276000000000
19.138993300000,-0.271000000000
19.146679794000,-0.269000000000
19.154366288000,-0.269000000000
19.162052782000,-0.269000000000
19.169739276000,-0.267000000000
19.177425770000,-0.267000000000
19.185112264000,-0.267000000000
19.192798758000,-0.262000000000
19.200485252000,-0.257000000000
19.208171746000,-0.259000000000
19.215858240000,-0.254000000000
19.223544734000,-0.249000000000
19.231231228000,-0.249000000000
19.238917722000,-0.254000000000
19.246604216000,-0.252000000000
19.254290710000,-0.237000000000
19.261977204000,-0.213000000000
19.269663698000,-0.198000000000
19.277350192000,-0.191000000000
19.285036686000,-0.183000000000
19.292723180000,-0.178000000000
19.300409674000,-0.191000000000
19.308096168000,-0.218000000000
19.315782662000,-0.230000000000
19.323469156000,-0.218000000000
19.331155650000,-0.213000000000
19.338842144000,-0.210000000000
19.346528638000,-0.203000000000
19.354215132000,-0.198000000000
19.361901626000,-0.195000000000
19.369588120000,-0.195000000000
19.377274614000,-0.210000000000
19.384961108000,-0.262000000000
19.392647602000,-0.311000000000
19.400334096000,-0.117000000000
19.408020590000,0.524000000000
19.415707084000,1.366000000000
19.423393578000,1.827000000000
19.431080072000,1.202000000000
19.438766566000,-0.244000000000
19.446453060000,-0.805000000000
19.454139554000,-0.264000000000
19.461826048000,-0.097000000000
19.469512542000,-0.315000000000
19.477199036000,-0.257000000000
19.484885530000,-0.161000000000
19.492572024000,-0.210000000000
19.500258518000,-0.198000000000
19.507945012000,-0.142000000000
19.515631506000,-0.132000000000
19.523318000000,-0.120000000000
19.531004494000,-0.083000000000
19.538691044000,-0.058000000000
19.546377329000,-0.036000000000
19.554063614000,-0.004000000000
19.561749899000,0.024000000000
19.569436184000,0.056000000000
19.577122469000,0.090000000000
19.584808754000,0.127000000000
19.592495039000,0.161000000000
19.600181324000,0.193000000000
19.607867609000,0.218000000000
19.615553894000,0.227000000000
19.623240179000,0.230000000000
19.630926464000,0.225000000000
19.638612749000,0.213000000000
19.646299034000,0.193000000000
19.653985319000,0.159000000000
19.661671604000,0.097000000000
19.669357889000,0.012000000000
19.677044174000,-0.085000000000
19.684730459000,-0.178000000000
19.692416744000,-0.262000000000
19.700103029000,-0.323000000000
19.707789314000,-0.360000000000
19.715475599000,-0.377000000000
19.723161884000,-0.379000000000
19.730848169000,-0.372000000000
19.738534454000,-0.360000000000
19.746220739000,-0.347000000000
19.753907024000,-0.333000000000
19.761593309000,-0.320000000000
19.769279594000,-0.308000000000
19.776965879000,-0.296000000000
19.784652164000,-0.286000000000
19.792338449000,-0.279000000000
19.800024734000,-0.274000000000
19.807711019000,-0.269000000000
19.815397304000,-0.267000000000
19.823083589000,-0.264000000000
19.830769874000,-0.264000000000
19.838456159000,-0.262000000000
19.846142444000,-0.259000000000
19.853828729000,-0.259000000000
19.861515014000,-0.259000000000
19.869201299000,-0.257000000000
19.876887584000,-0.249000000000
19.884573869000,-0.247000000000
19.892260154000,-0.244000000000
19.899946439000,-0.240000000000
19.907632724000,-0.235000000000
19.915319009000,-0.235000000000
19.923005294000,-0.235000000000
19.930691579000,-0.235000000000
19.938377864000,-0.222000000000
19.946064149000,-0.195000000000
19.953750434000,-0.173000000000
19.961436719000,-0.169000000000
19.969123004000,-0.166000000000
19.976809289000,-0.161000000000
19.984495574000,-0.176000000000
19.992181859000,-0.210000000000
19.999868144000,-0.225000000000
20.007554429000,-0.213000000000
20.015240714000,-0.205000000000
20.022926999000,-0.205000000000
20.030613284000,-0.200000000000
20.038299569000,-0.193000000000
20.045985854000,-0.191000000000
20.053672139000,-0.188000000000
20.061358424000,-0.198000000000
20.069044709000,-0.240000000000
20.076730994000,-0.315000000000
20.084417279000,-0.271000000000
20.092103564000,0.186000000000
20.099789905000,1.023000000000
20.107476190000,1.783000000000
20.115162475000,1.699000000000
20.122848760000,0.379000000000
20.130535045000,-0.776000000000
20.138221330000,-0.521000000000
20.145907615000,-0.073000000000
20.153593900000,-0.252000000000
20.161280185000,-0.313000000000
20.168966470000,-0.173000000000
20.176652755000,-0.191000000000
20.184339040000,-0.218000000000
20.192025325000,-0.156000000000
20.199711610000,-0.132000000000
20.207397895000,-0.132000000000
20.215084180000,-0.097000000000
20.222770465000,-0.066000000000
20.230456750000,-0.048000000000
20.238143035000,-0.022000000000
20.245829320000,0.012000000000
20.253515605000,0.044000000000
20.261201890000,0.078000000000
20.268888175000,0.115000000000
20.276574460000,0.149000000000
20.284260745000,0.183000000000
20.291947030000,0.210000000000
20.299633315000,0.227000000000
20.307319600000,0.232000000000
20.315005885000,0.230000000000
20.322692170000,0.220000000000
20.330378455000,0.205000000000
20.338064740000,0.181000000000
20.345751025000,0.139000000000
20.353437310000,0.066000000000
20.361123595000,-0.024000000000
20.368809880000,-0.120000000000
20.376496165000,-0.210000000000
20.384182450000,-0.284000000000
20.391868735000,-0.333000000000
20.399555020000,-0.360000000000
20.407241305000,-0.369000000000
20.414927590000,-0.367000000000
20.422613875000,-0.357000000000
20.430300160000,-0.345000000000
20.437986445000,-0.330000000000
20.445672730000,-0.318000000000
20.453359015000,-0.303000000000
20.461045300000,-0.293000000000
20.468731585000,-0.289000000000
20.476417870000,-0.281000000000
20.484104155000,-0.279000000000
20.491790440000,-0.276000000000
20.499476725000,-0.274000000000
20.507163010000,-0.274000000000
20.514849295000,-0.274000000000
20.522535580000,-0.274000000000
20.530221865000,-0.269000000000
20.537908150000,-0.267000000000
20.545594435000,-0.264000000000
20.553280720000,-0.262000000000
20.560967005000,-0.259000000000
20.568653290000,-0.254000000000
20.576339575000,-0.252000000000
20.584025860000,-0.247000000000
20.591712145000,-0.242000000000
20.599398430000,-0.237000000000
20.607084715000,-0.235000000000
20.614771000000,-0.235000000000
20.622457285000,-0.235000000000
20.630143570000,-0.222000000000
20.637829855000,-0.195000000000
20.645516140000,-0.173000000000
20.653202425000,-0.164000000000
20.660888766000,-0.161000000000
20.668575051000,-0.156000000000
20.676261336000,-0.171000000000
20.683947621000,-0.205000000000
20.691633906000,-0.218000000000
20.699320191000,-0.205000000000
20.707006476000,-0.198000000000
20.714692761000,-0.198000000000
20.722379046000,-0.193000000000
20.730065331000,-0.188000000000
20.737751616000,-0.183000000000
20.745437901000,-0.178000000000
20.753124186000,-0.191000000000
20.760810471000,-0.225000000000
20.768496756000,-0.298000000000
20.776183041000,-0.264000000000
20.783869326000,0.173000000000
20.791555611000,1.006000000000
20.799241896000,1.778000000000
20.806928181000,1.704000000000
20.814614466000,0.389000000000
20.822300751000,-0.766000000000
20.829987036000,-0.521000000000
20.837673321000,-0.080000000000
20.845359606000,-0.242000000000
20.853045891000,-0.293000000000
20.860732176000,-0.161000000000
20.868418461000,-0.181000000000
20.876104746000,-0.203000000000
20.883791031000,-0.144000000000
20.891477316000,-0.120000000000
20.899163601000,-0.117000000000
20.906849886000,-0.085000000000
20.914536171000,-0.056000000000
20.922222456000,-0.039000000000
20.929908741000,-0.009000000000
20.937595026000,0.024000000000
20.945281311000,0.051000000000
20.952967596000,0.083000000000
20.960653881000,0.120000000000
20.968340166000,0.151000000000
20.976026451000,0.178000000000
20.983712736000,0.205000000000
20.991399021000,0.220000000000
20.999085306000,0.225000000000
21.006771591000,0.222000000000
21.014457876000,0.213000000000
21.022144161000,0.198000000000
21.029830446000,0.176000000000
21.037516731000,0.134000000000
21.045203016000,0.071000000000
21.052889301000,-0.014000000000
21.060575586000,-0.105000000000
21.068261871000,-0.193000000000
21.075948156000,-0.267000000000
21.083634441000,-0.315000000000
21.091320726000,-0.342000000000
21.099007011000,-0.352000000000
21.106693296000,-0.347000000000
21.114379581000,-0.338000000000
21.122065866000,-0.325000000000
21.129752151000,-0.313000000000
21.137438436000,-0.301000000000
21.145124721000,-0.291000000000
21.152811006000,-0.284000000000
21.160497291000,-0.279000000000
21.168183576000,-0.276000000000
21.175869861000,-0.271000000000
21.183556146000,-0.269000000000
21.191242431000,-0.267000000000
21.198928716000,-0.264000000000
21.206615001000,-0.262000000000
21.214301286000,-0.262000000000
21.221987631000,-0.259000000000
21.229673916000,-0.257000000000
21.237360201000,-0.254000000000
21.245046486000,-0.252000000000
21.252732771000,-0.249000000000
21.260419056000,-0.247000000000
21.268105341000,-0.242000000000
21.275791626000,-0.240000000000
21.283477911000,-0.237000000000
21.291164196000,-0.232000000000
21.298850481000,-0.225000000000
21.306536766000,-0.225000000000
21.314223051000,-0.227000000000
21.321909336000,-0.222000000000
21.329595621000,-0.210000000000
21.337281906000,-0.183000000000
21.344968191000,-0.161000000000
21.352654476000,-0.154000000000
21.360340761000,-0.149000000000
21.368027046000,-0.146000000000
21.375713331000,-0.164000000000
21.383399616000,-0.198000000000
21.391085901000,-0.208000000000
21.398772186000,-0.195000000000
21.406458471000,-0.188000000000
21.414144756000,-0.191000000000
21.421831041000,-0.186000000000
21.429517326000,-0.178000000000
21.437203611000,-0.176000000000
21.444889896000,-0.176000000000
21.452576181000,-0.191000000000
21.460262466000,-0.242000000000
21.467948751000,-0.306000000000
21.475635036000,-0.164000000000
21.483321321000,0.431000000000
21.491007606000,1.298000000000
21.498693891000,1.864000000000
21.506380176000,1.337000000000
21.514066461000,-0.139000000000
21.521752746000,-0.810000000000
21.529439031000,-0.313000000000
21.537125316000,-0.107000000000
21.544811601000,-0.298000000000
21.552497886000,-0.242000000000
21.560184171000,-0.151000000000
21.567870456000,-0.198000000000
21.575556741000,-0.183000000000
21.583243026000,-0.129000000000
21.590929311000,-0.122000000000
21.598615596000,-0.110000000000
21.606301881000,-0.073000000000
21.613988166000,-0.051000000000
21.621674451000,-0.031000000000
21.629360736000,-0.002000000000
21.637047021000,0.029000000000
21.644733306000,0.058000000000
21.652419591000,0.088000000000
21.660105876000,0.120000000000
21.667792161000,0.151000000000
21.675478446000,0.178000000000
21.683164731000,0.198000000000
21.690851016000,0.208000000000
21.698537301000,0.208000000000
21.706223586000,0.203000000000
21.713909871000,0.191000000000
21.721596156000,0.173000000000
21.729282441000,0.146000000000
21.736968726000,0.105000000000
21.744655011000,0.039000000000
21.752341296000,-0.044000000000
21.760027581000,-0.129000000000
21.767713866000,-0.210000000000
21.775400151000,-0.276000000000
21.783086492000,-0.318000000000
21.790772777000,-0.340000000000
21.798459062000,-0.345000000000
21.806145347000,-0.340000000000
21.813831632000,-0.330000000000
21.821517917000,-0.318000000000
21.829204202000,-0.308000000000
21.836890487000,-0.296000000000
21.844576772000,-0.289000000000
21.852263057000,-0.284000000000
21.859949342000,-0.276000000000
21.867635627000,-0.271000000000
21.875321912000,-0.269000000000
21.883008197000,-0.267000000000
21.890694482000,-0.264000000000
21.898380767000,-0.264000000000
21.906067052000,-0.264000000000
21.913753337000,-0.262000000000
21.921439622000,-0.259000000000
21.929125907000,-0.259000000000
21.936812192000,-0.257000000000
21.944498477000,-0.252000000000
21.952184762000,-0.249000000000
21.959871047000,-0.247000000000
21.967557332000,-0.242000000000
21.975243617000,-0.237000000000
21.982929902000,-0.235000000000
21.990616187000,-0.230000000000
21.998302472000,-0.225000000000
22.005988757000,-0.222000000000
22.013675042000,-0.225000000000
22.021361327000,-0.220000000000
22.029047612000,-0.200000000000
22.036733897000,-0.178000000000
22.044420182000,-0.164000000000
22.052106467000,-0.156000000000
22.059792752000,-0.151000000000
22.067479037000,-0.156000000000
22.075165322000,-0.186000000000
22.082851607000,-0.210000000000
22.090537892000,-0.210000000000
22.098224177000,-0.198000000000
22.105910462000,-0.193000000000
22.113596747000,-0.193000000000
22.121283032000,-0.186000000000
22.128969317000,-0.181000000000
22.136655602000,-0.178000000000
22.144341887000,-0.186000000000
22.152028172000,-0.218000000000
22.159714457000,-0.284000000000
22.167400742000,-0.271000000000
22.175087027000,0.093000000000
22.182773312000,0.879000000000
22.190459597000,1.680000000000
22.198145882000,1.756000000000
22.205832167000,0.582000000000
22.213518452000,-0.688000000000
22.221204737000,-0.605000000000
22.228891022000,-0.117000000000
22.236577307000,-0.220000000000
22.244263592000,-0.301000000000
22.251949877000,-0.173000000000
22.259636162000,-0.176000000000
22.267322447000,-0.208000000000
22.275008732000,-0.151000000000
22.282695017000,-0.122000000000
22.290381302000,-0.122000000000
22.298067587000,-0.093000000000
22.305753872000,-0.063000000000
22.313440157000,-0.046000000000
22.321126442000,-0.019000000000
22.328812727000,0.009000000000
22.336499012000,0.039000000000
22.344185353000,0.068000000000
22.351871917000,0.102000000000
22.359558481000,0.132000000000
22.367245045000,0.159000000000
22.374931609000,0.183000000000
22.382618173000,0.195000000000
22.390304737000,0.200000000000
22.397991301000,0.193000000000
22.405677865000,0.183000000000
22.413364429000,0.166000000000
22.421050993000,0.146000000000
22.428737557000,0.115000000000
22.436424121000,0.061000000000
22.444110685000,-0.012000000000
22.451797249000,-0.095000000000
22.459483813000,-0.178000000000
22.467170377000,-0.252000000000
22.474856941000,-0.303000000000
22.482543505000,-0.335000000000
22.490230069000,-0.347000000000
22.497916633000,-0.350000000000
22.505603197000,-0.340000000000
22.513289761000,-0.328000000000
22.520976325000,-0.315000000000
22.528662889000,-0.306000000000
22.536349453000,-0.296000000000
22.544036017000,-0.291000000000
22.551722581000,-0.284000000000
22.559409145000,-0.276000000000
22.567095709000,-0.271000000000
22.574782273000,-0.269000000000
22.582468837000,-0.267000000000
22.590155401000,-0.264000000000
22.597841965000,-0.262000000000
22.605528529000,-0.262000000000
22.613215093000,-0.259000000000
22.620901657000,-0.257000000000
22.628588221000,-0.254000000000
22.636274785000,-0.254000000000
22.643961349000,-0.252000000000
22.651647913000,-0.249000000000
22.659334477000,-0.244000000000
22.667021041000,-0.240000000000
22.674707605000,-0.237000000000
22.682394169000,-0.232000000000
22.690080733000,-0.227000000000
22.697767297000,-0.227000000000
22.705453861000,-0.227000000000
22.713140425000,-0.220000000000
22.720826989000,-0.200000000000
22.728513553000,-0.176000000000
22.736200117000,-0.161000000000
22.743886681000,-0.156000000000
22.751573245000,-0.151000000000
22.759259809000,-0.161000000000
22.766946373000,-0.193000000000
22.774632937000,-0.215000000000
22.782319501000,-0.205000000000
22.790006065000,-0.193000000000
22.797692629000,-0.193000000000
22.805379193000,-0.191000000000
22.813065757000,-0.186000000000
22.820752321000,-0.181000000000
22.828438885000,-0.181000000000
22.836125449000,-0.191000000000
22.843812013000,-0.230000000000
22.851498577000,-0.291000000000
22.859185141000,-0.193000000000
22.866871705000,0.342000000000
22.874558269000,1.197000000000
22.882244833000,1.834000000000
22.889931397000,1.469000000000
22.897617961000,0.041000000000
22.905304562000,-0.810000000000
22.912990987000,-0.396000000000
22.920677412000,-0.105000000000
22.928363837000,-0.286000000000
22.936050262000,-0.259000000000
22.943736687000,-0.159000000000
22.951423112000,-0.198000000000
22.959109537000,-0.193000000000
22.966795962000,-0.139000000000
22.974482387000,-0.129000000000
22.982168812000,-0.117000000000
22.989855237000,-0.078000000000
22.997541662000,-0.051000000000
23.005228087000,-0.031000000000
23.012914512000,-0.002000000000
23.020600937000,0.026000000000
23.028287362000,0.051000000000
23.035973787000,0.080000000000
23.043660212000,0.112000000000
23.051346637000,0.146000000000
23.059033062000,0.176000000000
23.066719487000,0.195000000000
23.074405912000,0.203000000000
23.082092337000,0.203000000000
23.089778762000,0.198000000000
23.097465187000,0.191000000000
23.105151612000,0.181000000000
23.112838037000,0.154000000000
23.120524462000,0.110000000000
23.128210887000,0.046000000000
23.135897312000,-0.034000000000
23.143583737000,-0.117000000000
23.151270162000,-0.193000000000
23.158956587000,-0.259000000000
23.166643012000,-0.306000000000
23.174329437000,-0.333000000000
23.182015862000,-0.350000000000
23.189702287000,-0.347000000000
23.197388712000,-0.325000000000
23.205075137000,-0.315000000000
23.212761562000,-0.315000000000
23.220447987000,-0.306000000000
23.228134412000,-0.289000000000
23.235820837000,-0.274000000000
23.243507262000,-0.264000000000
23.251193687000,-0.262000000000
23.258880112000,-0.262000000000
23.266566537000,-0.259000000000
23.274252962000,-0.257000000000
23.281939387000,-0.252000000000
23.289625812000,-0.247000000000
23.297312237000,-0.249000000000
23.304998662000,-0.247000000000
23.312685087000,-0.240000000000
23.320371512000,-0.237000000000
23.328057937000,-0.242000000000
23.335744362000,-0.242000000000
23.343430787000,-0.237000000000
23.351117212000,-0.232000000000
23.358803637000,-0.230000000000
23.366490062000,-0.227000000000
23.374176487000,-0.227000000000
23.381862912000,-0.230000000000
23.389549337000,-0.220000000000
23.397235762000,-0.191000000000
23.404922187000,-0.161000000000
23.412608612000,-0.151000000000
23.420295037000,-0.154000000000
23.427981462000,-0.154000000000
23.435667887000,-0.169000000000
23.443354312000,-0.205000000000
23.451040737000,-0.225000000000
23.458727162000,-0.210000000000
23.466413593000,-0.198000000000
23.474099878000,-0.198000000000
23.481786163000,-0.188000000000
23.489472448000,-0.181000000000
23.497158733000,-0.183000000000
23.504845018000,-0.188000000000
23.512531303000,-0.198000000000
23.520217588000,-0.242000000000
23.527903873000,-0.301000000000
23.535590158000,-0.154000000000
23.543276443000,0.475000000000
23.550962728000,1.342000000000
23.558649013000,1.812000000000
23.566335298000,1.200000000000
23.574021583000,-0.215000000000
23.581707868000,-0.786000000000
23.589394153000,-0.311000000000
23.597080438000,-0.164000000000
23.604766723000,-0.318000000000
23.612453008000,-0.210000000000
23.620139293000,-0.134000000000
23.627825578000,-0.195000000000
23.635511863000,-0.173000000000
23.643198148000,-0.120000000000
23.650884433000,-0.115000000000
23.658570718000,-0.090000000000
23.666257003000,-0.053000000000
23.673943288000,-0.044000000000
23.681629573000,-0.014000000000
23.689315858000,0.031000000000
23.697002143000,0.048000000000
23.704688428000,0.068000000000
23.712374713000,0.112000000000
23.720060998000,0.149000000000
23.727747283000,0.173000000000
23.735433568000,0.198000000000
23.743119853000,0.213000000000
23.750806138000,0.218000000000
23.758492423000,0.220000000000
23.766178708000,0.213000000000
23.773864993000,0.195000000000
23.781551278000,0.171000000000
23.789237563000,0.146000000000
23.796923848000,0.105000000000
23.804610133000,0.031000000000
23.812296418000,-0.066000000000
23.819982703000,-0.146000000000
23.827668988000,-0.222000000000
23.835355273000,-0.289000000000
23.843041558000,-0.318000000000
23.850727843000,-0.333000000000
23.858414128000,-0.347000000000
23.866100413000,-0.342000000000
23.873786698000,-0.342000000000
23.881472983000,-0.338000000000
23.889159268000,-0.311000000000
23.896845553000,-0.296000000000
23.904531838000,-0.296000000000
23.912218123000,-0.284000000000
23.919904408000,-0.271000000000
23.927590693000,-0.262000000000
23.935276978000,-0.247000000000
23.942963263000,-0.249000000000
23.950649548000,-0.247000000000
23.958335833000,-0.237000000000
23.966022118000,-0.240000000000
23.973708403000,-0.252000000000
23.981394688000,-0.249000000000
23.989080973000,-0.235000000000
23.996767258000,-0.230000000000
24.004453543000,-0.230000000000
24.012139828000,-0.220000000000
24.019826113000,-0.220000000000
24.027512454000,-0.240000000000
24.035198739000,-0.247000000000
24.042885024000,-0.225000000000
24.050571309000,-0.198000000000
24.058257594000,-0.186000000000
24.065943879000,-0.178000000000
24.073630164000,-0.161000000000
24.081316449000,-0.156000000000
24.089002734000,-0.183000000000
24.096689019000,-0.218000000000
24.104375304000,-0.227000000000
24.112061589000,-0.213000000000
24.119747874000,-0.193000000000
24.127434159000,-0.186000000000
24.135120444000,-0.188000000000
24.142806729000,-0.188000000000
24.150493014000,-0.181000000000
24.158179299000,-0.188000000000
24.165865584000,-0.220000000000
24.173551869000,-0.274000000000
24.181238154000,-0.262000000000
24.188924439000,0.107000000000
24.196610724000,0.908000000000
24.204297009000,1.577000000000
24.211983294000,1.467000000000
24.219669579000,0.409000000000
24.227355864000,-0.634000000000
24.235042149000,-0.568000000000
24.242728434000,-0.169000000000
24.250414719000,-0.232000000000
24.258101004000,-0.249000000000
24.265787289000,-0.129000000000
24.273473574000,-0.144000000000
24.281159859000,-0.159000000000
24.288846144000,-0.100000000000
24.296532429000,-0.088000000000
24.304218714000,-0.090000000000
24.311904999000,-0.048000000000
24.319591284000,-0.022000000000
24.327277569000,-0.007000000000
24.334963854000,0.034000000000
24.342650139000,0.073000000000
24.350336424000,0.105000000000
24.358022709000,0.142000000000
24.365708994000,0.154000000000
24.373395279000,0.181000000000
24.381081564000,0.244000000000
24.388767849000,0.259000000000
24.396454134000,0.240000000000
24.404140419000,0.254000000000
24.411826704000,0.252000000000
24.419512989000,0.222000000000
24.427199274000,0.218000000000
24.434885559000,0.193000000000
24.442571844000,0.127000000000
24.450258129000,0.044000000000
24.457944414000,-0.036000000000
24.465630699000,-0.120000000000
24.473316984000,-0.208000000000
24.481003269000,-0.276000000000
24.488689554000,-0.320000000000
24.496375839000,-0.342000000000
24.504062124000,-0.357000000000
24.511748409000,-0.355000000000
24.519434694000,-0.340000000000
24.527120979000,-0.328000000000
24.534807264000,-0.320000000000
24.542493549000,-0.311000000000
24.550179834000,-0.303000000000
24.557866119000,-0.293000000000
24.565552404000,-0.281000000000
24.573238689000,-0.269000000000
24.580924974000,-0.264000000000
24.588611319000,-0.264000000000
24.596297604000,-0.259000000000
24.603983889000,-0.254000000000
24.611670174000,-0.257000000000
24.619356459000,-0.257000000000
24.627042744000,-0.244000000000
24.634729029000,-0.244000000000
24.642415314000,-0.257000000000
24.650101599000,-0.249000000000
24.657787884000,-0.240000000000
24.665474169000,-0.249000000000
24.673160454000,-0.257000000000
24.680846739000,-0.249000000000
24.688533024000,-0.240000000000
24.696219309000,-0.227000000000
24.703905594000,-0.210000000000
24.711591879000,-0.208000000000
24.719278164000,-0.198000000000
24.726964449000,-0.186000000000
24.734650734000,-0.205000000000
24.742337019000,-0.235000000000
24.750023304000,-0.240000000000
24.757709589000,-0.232000000000
24.765395874000,-0.227000000000
24.773082159000,-0.225000000000
24.780768444000,-0.220000000000
24.788454729000,-0.213000000000
24.796141014000,-0.215000000000
24.803827299000,-0.232000000000
24.811513584000,-0.269000000000
24.819199869000,-0.313000000000
24.826886154000,-0.149000000000
24.834572439000,0.489000000000
24.842258724000,1.305000000000
24.849945009000,1.628000000000
24.857631294000,0.940000000000
24.865317579000,-0.345000000000
24.873003864000,-0.778000000000
24.880690149000,-0.323000000000
24.888376434000,-0.198000000000
24.896062719000,-0.323000000000
24.903749004000,-0.225000000000
24.911435289000,-0.169000000000
24.919121574000,-0.210000000000
24.926807859000,-0.181000000000
24.934494144000,-0.137000000000
24.942180429000,-0.134000000000
24.949866714000,-0.110000000000
24.957552999000,-0.073000000000
24.965239284000,-0.053000000000
24.972925569000,-0.031000000000
24.980611854000,-0.004000000000
24.988298139000,0.022000000000
24.995984424000,0.058000000000
25.003670709000,0.095000000000
25.011356994000,0.127000000000
25.019043279000,0.154000000000
25.026729564000,0.181000000000
25.034415849000,0.200000000000
25.042102134000,0.205000000000
25.049788419000,0.198000000000
25.057474704000,0.176000000000
25.065160989000,0.151000000000
25.072847274000,0.127000000000
25.080533559000,0.093000000000
25.088219844000,0.036000000000
25.095906129000,-0.044000000000
25.103592414000,-0.132000000000
25.111278699000,-0.220000000000
25.118964984000,-0.293000000000
25.126651269000,-0.342000000000
25.134337554000,-0.372000000000
25.142023839000,-0.382000000000
25.149710180000,-0.382000000000
25.157396465000,-0.379000000000
25.165082750000,-0.369000000000
25.172769035000,-0.350000000000
25.180455320000,-0.333000000000
25.188141605000,-0.325000000000
25.195827890000,-0.315000000000
25.203514175000,-0.301000000000
25.211200460000,-0.293000000000
25.218886745000,-0.291000000000
25.226573030000,-0.284000000000
25.234259315000,-0.279000000000
25.241945600000,-0.279000000000
25.249631885000,-0.279000000000
25.257318170000,-0.274000000000
25.265004455000,-0.271000000000
25.272690740000,-0.271000000000
25.280377025000,-0.269000000000
25.288063310000,-0.267000000000
25.295749595000,-0.264000000000
25.303435880000,-0.264000000000
25.311122165000,-0.264000000000
25.318808450000,-0.267000000000
25.326494735000,-0.269000000000
25.334181020000,-0.259000000000
25.341867305000,-0.242000000000
25.349553590000,-0.227000000000
25.357239875000,-0.220000000000
25.364926160000,-0.208000000000
25.372612445000,-0.193000000000
25.380298730000,-0.198000000000
25.387985015000,-0.227000000000
25.395671300000,-0.244000000000
25.403357585000,-0.235000000000
25.411043870000,-0.222000000000
25.418730155000,-0.220000000000
25.426416440000,-0.215000000000
25.434102725000,-0.210000000000
25.441789010000,-0.205000000000
25.449475295000,-0.213000000000
25.457161580000,-0.240000000000
25.464847865000,-0.306000000000
25.472534150000,-0.286000000000
25.480220435000,0.117000000000
25.487906720000,0.943000000000
25.495593005000,1.741000000000
25.503279290000,1.771000000000
25.510965575000,0.556000000000
25.518651860000,-0.717000000000
25.526338145000,-0.612000000000
25.534024430000,-0.117000000000
25.541710715000,-0.244000000000
25.549397000000,-0.340000000000
25.557083285000,-0.205000000000
25.564769570000,-0.205000000000
25.572455855000,-0.240000000000
25.580142140000,-0.186000000000
25.587828425000,-0.151000000000
25.595514710000,-0.149000000000
25.603200995000,-0.120000000000
25.610887280000,-0.085000000000
25.618573565000,-0.066000000000
25.626259850000,-0.039000000000
25.633946135000,-0.004000000000
25.641632420000,0.026000000000
25.649318705000,0.061000000000
25.657004990000,0.097000000000
25.664691275000,0.132000000000
25.672377560000,0.166000000000
25.680063845000,0.195000000000
25.687750130000,0.210000000000
25.695436415000,0.215000000000
25.703122700000,0.210000000000
25.710809041000,0.198000000000
25.718495326000,0.181000000000
25.726181611000,0.156000000000
25.733867896000,0.107000000000
25.741554181000,0.031000000000
25.749240466000,-0.061000000000
25.756926751000,-0.156000000000
25.764613036000,-0.244000000000
25.772299321000,-0.315000000000
25.779985606000,-0.360000000000
25.787671891000,-0.382000000000
25.795358176000,-0.391000000000
25.803044461000,-0.387000000000
25.810730746000,-0.374000000000
25.818417031000,-0.364000000000
25.826103316000,-0.352000000000
25.833789601000,-0.335000000000
25.841475886000,-0.323000000000
25.849162171000,-0.313000000000
25.856848456000,-0.303000000000
25.864534741000,-0.293000000000
25.872221026000,-0.289000000000
25.879907311000,-0.284000000000
25.887593596000,-0.281000000000
25.895279881000,-0.279000000000
25.902966166000,-0.276000000000
25.910652451000,-0.274000000000
25.918338736000,-0.274000000000
25.926025021000,-0.271000000000
25.933711306000,-0.271000000000
25.941397591000,-0.269000000000
25.949083876000,-0.267000000000
25.956770161000,-0.262000000000
25.964456446000,-0.262000000000
25.972142731000,-0.264000000000
25.979829016000,-0.264000000000
25.987515301000,-0.254000000000
25.995201586000,-0.235000000000
26.002887871000,-0.213000000000
26.010574156000,-0.198000000000
26.018260441000,-0.191000000000
26.025946726000,-0.188000000000
26.033633011000,-0.198000000000
26.041319296000,-0.225000000000
26.049005581000,-0.242000000000
26.056691866000,-0.232000000000
26.064378151000,-0.222000000000
26.072064436000,-0.222000000000
26.079750721000,-0.218000000000
26.087437006000,-0.210000000000
26.095123291000,-0.208000000000
26.102809576000,-0.210000000000
26.110495861000,-0.230000000000
26.118182146000,-0.291000000000
26.125868431000,-0.335000000000
26.133554716000,-0.090000000000
26.141241001000,0.627000000000
26.148927286000,1.533000000000
26.156613571000,1.969000000000
26.164299856000,1.158000000000
26.171986141000,-0.384000000000
26.179672426000,-0.801000000000
26.187358711000,-0.230000000000
26.195044996000,-0.154000000000
26.202731281000,-0.355000000000
26.210417566000,-0.257000000000
26.218103851000,-0.188000000000
26.225790136000,-0.240000000000
26.233476421000,-0.208000000000
26.241162706000,-0.154000000000
26.248848991000,-0.151000000000
26.256535276000,-0.132000000000
26.264221561000,-0.093000000000
26.271907902000,-0.071000000000
26.279594187000,-0.046000000000
26.287280472000,-0.009000000000
26.294966757000,0.024000000000
26.302653042000,0.056000000000
26.310339327000,0.093000000000
26.318025612000,0.132000000000
26.325711897000,0.166000000000
26.333398182000,0.195000000000
26.341084467000,0.220000000000
26.348770752000,0.230000000000
26.356457037000,0.230000000000
26.364143322000,0.222000000000
26.371829607000,0.210000000000
26.379515892000,0.186000000000
26.387202177000,0.144000000000
26.394888462000,0.078000000000
26.402574747000,-0.014000000000
26.410261032000,-0.115000000000
26.417947317000,-0.210000000000
26.425633602000,-0.291000000000
26.433319887000,-0.347000000000
26.441006172000,-0.379000000000
26.448692457000,-0.391000000000
26.456378742000,-0.394000000000
26.464065027000,-0.387000000000
26.471751312000,-0.372000000000
26.479437597000,-0.360000000000
26.487123882000,-0.345000000000
26.494810167000,-0.333000000000
26.502496452000,-0.318000000000
26.510182737000,-0.308000000000
26.517869022000,-0.301000000000
26.525555307000,-0.293000000000
26.533241592000,-0.289000000000
26.540927877000,-0.286000000000
26.548614162000,-0.284000000000
26.556300447000,-0.281000000000
26.563986732000,-0.279000000000
26.571673017000,-0.276000000000
26.579359302000,-0.274000000000
26.587045587000,-0.274000000000
26.594731872000,-0.271000000000
26.602418157000,-0.269000000000
26.610104442000,-0.267000000000
26.617790727000,-0.264000000000
26.625477012000,-0.259000000000
26.633163297000,-0.257000000000
26.640849582000,-0.254000000000
26.648535867000,-0.254000000000
26.656222152000,-0.252000000000
26.663908437000,-0.232000000000
26.671594722000,-0.205000000000
26.679281007000,-0.188000000000
26.686967292000,-0.183000000000
26.694653577000,-0.178000000000
26.702339862000,-0.183000000000
26.710026147000,-0.210000000000
26.717712432000,-0.237000000000
26.725398717000,-0.235000000000
26.733085002000,-0.220000000000
26.740771287000,-0.218000000000
26.748457572000,-0.215000000000
26.756143857000,-0.208000000000
26.763830142000,-0.203000000000
26.771516427000,-0.200000000000
26.779202712000,-0.208000000000
26.786888997000,-0.242000000000
26.794575282000,-0.318000000000
26.802261567000,-0.306000000000
26.809947852000,0.097000000000
26.817634137000,0.930000000000
26.825320422000,1.773000000000
26.833006763000,1.851000000000
26.840693466000,0.609000000000
26.848380169000,-0.720000000000
26.856066872000,-0.624000000000
26.863753575000,-0.117000000000
26.871440278000,-0.247000000000
26.879126981000,-0.342000000000
26.886813684000,-0.203000000000
26.894500387000,-0.200000000000
26.902187090000,-0.237000000000
26.909873793000,-0.178000000000
26.917560496000,-0.146000000000
26.925247199000,-0.146000000000
26.932933902000,-0.115000000000
26.940620605000,-0.080000000000
26.948307308000,-0.061000000000
26.955994011000,-0.034000000000
26.963680714000,0.002000000000
26.971367417000,0.034000000000
26.979054120000,0.068000000000
26.986740823000,0.107000000000
26.994427526000,0.146000000000
27.002114229000,0.178000000000
27.009800932000,0.210000000000
27.017487635000,0.230000000000
27.025174338000,0.237000000000
27.032861041000,0.235000000000
27.040547744000,0.225000000000
27.048234447000,0.210000000000
27.055921150000,0.186000000000
27.063607853000,0.139000000000
27.071294556000,0.066000000000
27.078981259000,-0.029000000000
27.086667962000,-0.127000000000
27.094354665000,-0.220000000000
27.102041368000,-0.296000000000
27.109728071000,-0.347000000000
27.117414774000,-0.374000000000
27.125101477000,-0.382000000000
27.132788180000,-0.382000000000
27.140474883000,-0.369000000000
27.148161586000,-0.355000000000
27.155848289000,-0.340000000000
27.163534992000,-0.328000000000
27.171221695000,-0.313000000000
27.178908398000,-0.301000000000
27.186595101000,-0.293000000000
27.194281804000,-0.286000000000
27.201968507000,-0.279000000000
27.209655210000,-0.276000000000
27.217341913000,-0.274000000000
27.225028616000,-0.274000000000
27.232715319000,-0.271000000000
27.240402022000,-0.267000000000
27.248088725000,-0.264000000000
27.255775428000,-0.262000000000
27.263462131000,-0.259000000000
27.271148834000,-0.257000000000
27.278835537000,-0.257000000000
27.286522240000,-0.252000000000
27.294208943000,-0.249000000000
27.301895646000,-0.244000000000
27.309582349000,-0.242000000000
27.317269052000,-0.237000000000
27.324955755000,-0.240000000000
27.332642458000,-0.237000000000
27.340329161000,-0.230000000000
27.348015864000,-0.213000000000
27.355702567000,-0.188000000000
27.363389270000,-0.169000000000
27.371075973000,-0.164000000000
27.378762676000,-0.161000000000
27.386449379000,-0.164000000000
27.394136146000,-0.193000000000
27.401822431000,-0.220000000000
27.409508716000,-0.218000000000
27.417195001000,-0.205000000000
27.424881286000,-0.203000000000
27.432567571000,-0.198000000000
27.440253856000,-0.193000000000
27.447940141000,-0.188000000000
27.455626426000,-0.186000000000
27.463312711000,-0.191000000000
27.470998996000,-0.222000000000
27.478685281000,-0.293000000000
27.486371566000,-0.306000000000
27.494057851000,0.036000000000
27.501744136000,0.825000000000
27.509430421000,1.692000000000
27.517116706000,1.895000000000
27.524802991000,0.788000000000
27.532489276000,-0.624000000000
27.540175561000,-0.673000000000
27.547861846000,-0.134000000000
27.555548131000,-0.208000000000
27.563234416000,-0.330000000000
27.570920701000,-0.200000000000
27.578606986000,-0.183000000000
27.586293271000,-0.225000000000
27.593979556000,-0.173000000000
27.601665841000,-0.139000000000
27.609352126000,-0.139000000000
27.617038411000,-0.112000000000
27.624724696000,-0.075000000000
27.632410981000,-0.056000000000
27.640097266000,-0.026000000000
27.647783551000,0.009000000000
27.655469836000,0.039000000000
27.663156121000,0.071000000000
27.670842406000,0.110000000000
27.678528691000,0.151000000000
27.686214976000,0.186000000000
27.693901261000,0.215000000000
27.701587546000,0.232000000000
27.709273831000,0.244000000000
27.716960116000,0.242000000000
27.724646401000,0.232000000000
27.732332686000,0.220000000000
27.740018971000,0.198000000000
27.747705256000,0.154000000000
27.755391541000,0.088000000000
27.763077826000,0.000000000000
27.770764111000,-0.097000000000
27.778450396000,-0.188000000000
27.786136681000,-0.267000000000
27.793822966000,-0.323000000000
27.801509251000,-0.352000000000
27.809195536000,-0.362000000000
27.816881821000,-0.364000000000
27.824568106000,-0.362000000000
27.832254391000,-0.352000000000
27.839940676000,-0.330000000000
27.847626961000,-0.313000000000
27.855313246000,-0.306000000000
27.862999531000,-0.291000000000
27.870685816000,-0.274000000000
27.878372101000,-0.269000000000
27.886058386000,-0.271000000000
27.893744671000,-0.267000000000
27.901430956000,-0.267000000000
27.909117241000,-0.269000000000
27.916803526000,-0.264000000000
27.924489811000,-0.257000000000
27.932176096000,-0.257000000000
27.939862381000,-0.257000000000
27.947548666000,-0.257000000000
27.955235007000,-0.254000000000
27.962921292000,-0.242000000000
27.970607577000,-0.237000000000
27.978293862000,-0.240000000000
27.985980147000,-0.240000000000
27.993666432000,-0.237000000000
28.001352717000,-0.235000000000
28.009039002000,-0.230000000000
28.016725287000,-0.230000000000
28.024411572000,-0.230000000000
28.032097857000,-0.208000000000
28.039784142000,-0.178000000000
28.047470427000,-0.169000000000
28.055156712000,-0.164000000000
28.062842997000,-0.149000000000
28.070529282000,-0.144000000000
28.078215567000,-0.171000000000
28.085901852000,-0.210000000000
28.093588137000,-0.218000000000
28.101274422000,-0.203000000000
28.108960707000,-0.195000000000
28.116646992000,-0.193000000000
28.124333277000,-0.181000000000
28.132019562000,-0.181000000000
28.139705847000,-0.186000000000
28.147392132000,-0.183000000000
28.155078417000,-0.198000000000
28.162764702000,-0.247000000000
28.170450987000,-0.298000000000
28.178137272000,-0.127000000000
28.185823557000,0.524000000000
28.193509842000,1.435000000000
28.201196127000,1.937000000000
28.208882412000,1.259000000000
28.216568697000,-0.237000000000
28.224254982000,-0.778000000000
28.231941267000,-0.274000000000
28.239627552000,-0.149000000000
28.247313837000,-0.315000000000
28.255000122000,-0.208000000000
28.262686407000,-0.139000000000
28.270372692000,-0.198000000000
28.278058977000,-0.169000000000
28.285745262000,-0.112000000000
28.293431547000,-0.107000000000
28.301117832000,-0.090000000000
28.308804117000,-0.058000000000
28.316490402000,-0.034000000000
28.324176687000,-0.002000000000
28.331862972000,0.029000000000
28.339549257000,0.061000000000
28.347235542000,0.095000000000
28.354921827000,0.137000000000
28.362608112000,0.178000000000
28.370294397000,0.215000000000
28.377980682000,0.240000000000
28.385666967000,0.254000000000
28.393353252000,0.269000000000
28.401039537000,0.279000000000
28.408725822000,0.269000000000
28.416412107000,0.247000000000
28.424098392000,0.227000000000
28.431784677000,0.191000000000
28.439470962000,0.127000000000
28.447157247000,0.039000000000
28.454843532000,-0.051000000000
28.462529817000,-0.144000000000
28.470216102000,-0.240000000000
28.477902387000,-0.303000000000
28.485588672000,-0.330000000000
28.493274957000,-0.355000000000
28.500961242000,-0.374000000000
28.508647527000,-0.364000000000
28.516333868000,-0.347000000000
28.524020153000,-0.328000000000
28.531706438000,-0.311000000000
28.539392723000,-0.308000000000
28.547079008000,-0.306000000000
28.554765293000,-0.296000000000
28.562451578000,-0.279000000000
28.570137863000,-0.259000000000
28.577824148000,-0.262000000000
28.585510433000,-0.271000000000
28.593196718000,-0.267000000000
28.600883003000,-0.259000000000
28.608569288000,-0.264000000000
28.616255573000,-0.257000000000
28.623941858000,-0.244000000000
28.631628143000,-0.249000000000
28.639314428000,-0.262000000000
28.647000713000,-0.257000000000
28.654686998000,-0.247000000000
28.662373283000,-0.244000000000
28.670059568000,-0.242000000000
28.677745853000,-0.240000000000
28.685432138000,-0.242000000000
28.693118423000,-0.235000000000
28.700804708000,-0.225000000000
28.708490993000,-0.210000000000
28.716177278000,-0.188000000000
28.723863563000,-0.176000000000
28.731549848000,-0.173000000000
28.739236133000,-0.161000000000
28.746922418000,-0.169000000000
28.754608703000,-0.210000000000
28.762294988000,-0.232000000000
28.769981273000,-0.218000000000
28.777667558000,-0.208000000000
28.785353843000,-0.210000000000
28.793040128000,-0.203000000000
28.800726413000,-0.198000000000
28.808412698000,-0.198000000000
28.816098983000,-0.200000000000
28.823785268000,-0.213000000000
28.831471553000,-0.249000000000
28.839157838000,-0.318000000000
28.846844123000,-0.269000000000
28.854530408000,0.218000000000
28.862216693000,1.092000000000
28.869902978000,1.790000000000
28.877589263000,1.579000000000
28.885275548000,0.247000000000
28.892961833000,-0.793000000000
28.900648118000,-0.511000000000
28.908334403000,-0.144000000000
28.916020688000,-0.306000000000
28.923706973000,-0.298000000000
28.931393258000,-0.173000000000
28.939079543000,-0.213000000000
28.946765828000,-0.218000000000
28.954452113000,-0.151000000000
28.962138398000,-0.137000000000
28.969824683000,-0.134000000000
28.977510968000,-0.100000000000
28.985197253000,-0.071000000000
28.992883538000,-0.048000000000
29.000569823000,-0.017000000000
29.008256108000,0.019000000000
29.015942393000,0.051000000000
29.023628678000,0.085000000000
29.031314963000,0.120000000000
29.039001248000,0.156000000000
29.046687533000,0.191000000000
29.054373818000,0.215000000000
29.062060103000,0.225000000000
29.069746388000,0.227000000000
29.077432729000,0.215000000000
29.085119014000,0.198000000000
29.092805299000,0.178000000000
29.100491584000,0.146000000000
29.108177869000,0.093000000000
29.115864154000,0.014000000000
29.123550439000,-0.080000000000
29.131236724000,-0.178000000000
29.138923009000,-0.267000000000
29.146609294000,-0.335000000000
29.154295579000,-0.377000000000
29.161981864000,-0.394000000000
29.169668149000,-0.399000000000
29.177354434000,-0.399000000000
29.185040719000,-0.389000000000
29.192727004000,-0.374000000000
29.200413289000,-0.360000000000
29.208099574000,-0.347000000000
29.215785859000,-0.335000000000
29.223472144000,-0.323000000000
29.231158429000,-0.315000000000
29.238844714000,-0.308000000000
29.246530999000,-0.303000000000
29.254217284000,-0.298000000000
29.261903569000,-0.296000000000
29.269589854000,-0.291000000000
29.277276139000,-0.289000000000
29.284962424000,-0.286000000000
29.292648709000,-0.286000000000
29.300334994000,-0.286000000000
29.308021279000,-0.286000000000
29.315707564000,-0.284000000000
29.323393849000,-0.281000000000
29.331080134000,-0.279000000000
