time,LSB
0.000000000000,-0.049000000000
0.007687191000,-0.061000000000
0.015374382000,-0.089000000000
0.023061573000,-0.118000000000
0.030748764000,-0.126000000000
0.038435955000,-0.113000000000
0.046123146000,-0.106000000000
0.053810337000,-0.101000000000
0.061497528000,-0.123000000000
0.069184719000,-0.153000000000
0.076871910000,-0.131000000000
0.084559101000,-0.098000000000
0.092246292000,-0.101000000000
0.099933483000,-0.096000000000
0.107620674000,-0.089000000000
0.115307865000,-0.086000000000
0.122995056000,-0.086000000000
0.130682247000,-0.091000000000
0.138369438000,-0.094000000000
0.146056629000,-0.089000000000
0.153743820000,-0.086000000000
0.161431011000,-0.086000000000
0.169118202000,-0.084000000000
0.176805393000,-0.084000000000
0.184492584000,-0.091000000000
0.192179775000,-0.096000000000
0.199866966000,-0.098000000000
0.207554157000,-0.101000000000
0.215241348000,-0.091000000000
0.222928539000,-0.079000000000
0.230615730000,-0.079000000000
0.238302921000,-0.084000000000
0.245990112000,-0.079000000000
0.253677303000,-0.076000000000
0.261364494000,-0.076000000000
0.269051685000,-0.069000000000
0.276738876000,-0.064000000000
0.284426067000,-0.069000000000
0.292113258000,-0.076000000000
0.299800449000,-0.084000000000
0.307487640000,-0.079000000000
0.315174831000,-0.074000000000
0.322862022000,-0.079000000000
0.330549213000,-0.079000000000
0.338236404000,-0.064000000000
0.345923595000,-0.049000000000
0.353610827000,-0.039000000000
0.361297948000,-0.032000000000
0.368985069000,-0.034000000000
0.376672190000,-0.056000000000
0.384359311000,-0.066000000000
0.392046432000,-0.061000000000
0.399733553000,-0.069000000000
0.407420674000,-0.069000000000
0.415107795000,-0.056000000000
0.422794916000,-0.056000000000
0.430482037000,-0.059000000000
0.438169158000,-0.054000000000
0.445856279000,0.019000000000
0.453543400000,0.306000000000
0.461230521000,0.591000000000
0.468917642000,0.363000000000
0.476604763000,-0.215000000000
0.484291884000,-0.457000000000
0.491979005000,-0.309000000000
0.499666126000,-0.205000000000
0.507353247000,-0.178000000000
0.515040368000,-0.079000000000
0.522727489000,-0.024000000000
0.530414610000,-0.051000000000
0.538101731000,-0.051000000000
0.545788852000,-0.022000000000
0.553475973000,-0.012000000000
0.561163094000,0.007000000000
0.568850215000,0.014000000000
0.576537336000,-0.014000000000
0.584224457000,-0.014000000000
0.591911578000,0.014000000000
0.599598699000,0.012000000000
0.607285820000,0.012000000000
0.614972941000,0.027000000000
0.622660062000,0.027000000000
0.630347183000,0.029000000000
0.638034304000,0.049000000000
0.645721425000,0.061000000000
0.653408546000,0.064000000000
0.661095667000,0.081000000000
0.668782788000,0.098000000000
0.676469909000,0.091000000000
0.684157030000,0.086000000000
0.691844151000,0.101000000000
0.699531272000,0.096000000000
0.707218393000,0.069000000000
0.714905514000,0.066000000000
0.722592635000,0.071000000000
0.730279756000,0.056000000000
0.737966877000,0.027000000000
0.745653998000,0.007000000000
0.753341119000,-0.014000000000
0.761028240000,-0.066000000000
0.768715361000,-0.106000000000
0.776402482000,-0.101000000000
0.784089603000,-0.094000000000
0.791776724000,-0.108000000000
0.799463845000,-0.118000000000
0.807150966000,-0.111000000000
0.814838087000,-0.113000000000
0.822525208000,-0.111000000000
0.830212329000,-0.089000000000
0.837899450000,-0.071000000000
0.845586571000,-0.081000000000
0.853273692000,-0.094000000000
0.860960813000,-0.084000000000
0.868647934000,-0.071000000000
0.876335055000,-0.071000000000
0.884022176000,-0.081000000000
0.891709297000,-0.091000000000
0.899396418000,-0.081000000000
0.907083539000,-0.071000000000
0.914770724000,-0.079000000000
0.922457845000,-0.086000000000
0.930144966000,-0.081000000000
0.937832087000,-0.081000000000
0.945519208000,-0.086000000000
0.953206329000,-0.091000000000
0.960893450000,-0.091000000000
0.968580571000,-0.089000000000
0.976267692000,-0.086000000000
0.983954813000,-0.086000000000
0.991641934000,-0.084000000000
0.999329055000,-0.076000000000
1.007016176000,-0.076000000000
1.014703297000,-0.089000000000
1.022390418000,-0.086000000000
1.030077539000,-0.076000000000
1.037764660000,-0.064000000000
1.045451781000,-0.047000000000
1.053138902000,-0.039000000000
1.060826023000,-0.056000000000
1.068513144000,-0.074000000000
1.076200265000,-0.074000000000
1.083887386000,-0.064000000000
1.091574507000,-0.066000000000
1.099261628000,-0.071000000000
1.106948749000,-0.064000000000
1.114635870000,-0.066000000000
1.122322991000,-0.074000000000
1.130010112000,-0.042000000000
1.137697233000,0.131000000000
1.145384354000,0.467000000000
1.153071475000,0.573000000000
1.160758596000,0.101000000000
1.168445717000,-0.447000000000
1.176132838000,-0.477000000000
1.183819959000,-0.277000000000
1.191507080000,-0.239000000000
1.199194201000,-0.195000000000
1.206881322000,-0.061000000000
1.214568443000,-0.007000000000
1.222255564000,-0.022000000000
1.229942685000,-0.027000000000
1.237629806000,-0.019000000000
1.245316927000,0.002000000000
1.253004048000,0.029000000000
1.260691169000,0.027000000000
1.268378290000,0.012000000000
1.276065411000,0.012000000000
1.283752532000,0.027000000000
1.291439653000,0.044000000000
1.299126774000,0.049000000000
1.306813895000,0.037000000000
1.314501016000,0.039000000000
1.322188137000,0.066000000000
1.329875258000,0.089000000000
1.337562379000,0.086000000000
1.345249500000,0.084000000000
1.352936621000,0.103000000000
1.360623742000,0.123000000000
1.368310863000,0.126000000000
1.375997984000,0.136000000000
1.383685105000,0.136000000000
1.391372226000,0.121000000000
1.399059347000,0.106000000000
1.406746468000,0.089000000000
1.414433589000,0.071000000000
1.422120710000,0.061000000000
1.429807831000,0.039000000000
1.437494952000,0.002000000000
1.445182073000,-0.039000000000
1.452869194000,-0.076000000000
1.460556315000,-0.103000000000
1.468243436000,-0.108000000000
1.475930621000,-0.108000000000
1.483617742000,-0.111000000000
1.491304863000,-0.106000000000
1.498991984000,-0.101000000000
1.506679105000,-0.091000000000
1.514366226000,-0.074000000000
1.522053347000,-0.081000000000
1.529740468000,-0.098000000000
1.537427589000,-0.084000000000
1.545114710000,-0.066000000000
1.552801831000,-0.074000000000
1.560488952000,-0.081000000000
1.568176073000,-0.069000000000
1.575863194000,-0.059000000000
1.583550315000,-0.071000000000
1.591237436000,-0.079000000000
1.598924557000,-0.079000000000
1.606611678000,-0.089000000000
1.614298799000,-0.094000000000
1.621985920000,-0.074000000000
1.629673041000,-0.064000000000
1.637360162000,-0.086000000000
1.645047283000,-0.096000000000
1.652734404000,-0.081000000000
1.660421525000,-0.066000000000
1.668108646000,-0.069000000000
1.675795767000,-0.076000000000
1.683482888000,-0.076000000000
1.691170009000,-0.076000000000
1.698857130000,-0.086000000000
1.706544251000,-0.096000000000
1.714231372000,-0.098000000000
1.721918493000,-0.084000000000
1.729605614000,-0.064000000000
1.737292735000,-0.061000000000
1.744979856000,-0.056000000000
1.752666977000,-0.027000000000
1.760354098000,-0.029000000000
1.768041219000,-0.064000000000
1.775728340000,-0.064000000000
1.783415461000,-0.049000000000
1.791102582000,-0.069000000000
1.798789703000,-0.089000000000
1.806476824000,-0.074000000000
1.814163945000,-0.054000000000
1.821851066000,-0.059000000000
1.829538187000,-0.076000000000
1.837225308000,-0.034000000000
1.844912429000,0.210000000000
1.852599550000,0.573000000000
1.860286671000,0.573000000000
1.867973792000,0.061000000000
1.875660913000,-0.385000000000
1.883348034000,-0.380000000000
1.891035155000,-0.217000000000
1.898722276000,-0.163000000000
1.906409397000,-0.108000000000
1.914096518000,-0.039000000000
1.921783639000,-0.037000000000
1.929470760000,-0.054000000000
1.937157881000,-0.059000000000
1.944845002000,-0.059000000000
1.952532123000,-0.037000000000
1.960219244000,-0.022000000000
1.967906365000,-0.019000000000
1.975593486000,-0.009000000000
1.983280607000,-0.012000000000
1.990967728000,-0.017000000000
1.998654849000,-0.007000000000
2.006341970000,-0.004000000000
2.014029091000,-0.007000000000
2.021716212000,0.007000000000
2.029403333000,0.022000000000
2.037090518000,0.024000000000
2.044777918000,0.027000000000
2.052465318000,0.049000000000
2.060152718000,0.071000000000
2.067840118000,0.074000000000
2.075527518000,0.071000000000
2.083214918000,0.071000000000
2.090902318000,0.076000000000
2.098589718000,0.076000000000
2.106277118000,0.071000000000
2.113964518000,0.074000000000
2.121651918000,0.059000000000
2.129339318000,0.024000000000
2.137026718000,0.000000000000
2.144714118000,-0.027000000000
2.152401518000,-0.066000000000
2.160088918000,-0.079000000000
2.167776318000,-0.074000000000
2.175463718000,-0.096000000000
2.183151118000,-0.126000000000
2.190838518000,-0.118000000000
2.198525918000,-0.094000000000
2.206213318000,-0.101000000000
2.213900718000,-0.111000000000
2.221588118000,-0.101000000000
2.229275518000,-0.086000000000
2.236962918000,-0.081000000000
2.244650318000,-0.084000000000
2.252337718000,-0.084000000000
2.260025118000,-0.084000000000
2.267712518000,-0.084000000000
2.275399918000,-0.076000000000
2.283087318000,-0.069000000000
2.290774718000,-0.071000000000
2.298462118000,-0.084000000000
2.306149518000,-0.091000000000
2.313836918000,-0.089000000000
2.321524318000,-0.081000000000
2.329211718000,-0.081000000000
2.336899118000,-0.086000000000
2.344586518000,-0.084000000000
2.352273918000,-0.089000000000
2.359961318000,-0.098000000000
2.367648718000,-0.084000000000
2.375336118000,-0.066000000000
2.383023518000,-0.076000000000
2.390710918000,-0.081000000000
2.398398318000,-0.074000000000
2.406085718000,-0.091000000000
2.413773118000,-0.106000000000
2.421460518000,-0.096000000000
2.429147918000,-0.086000000000
2.436835318000,-0.076000000000
2.444522718000,-0.054000000000
2.452210118000,-0.051000000000
2.459897518000,-0.056000000000
2.467584918000,-0.044000000000
2.475272318000,-0.044000000000
2.482959718000,-0.066000000000
2.490647118000,-0.069000000000
2.498334518000,-0.061000000000
2.506021918000,-0.064000000000
2.513709318000,-0.069000000000
2.521396718000,-0.064000000000
2.529084118000,-0.059000000000
2.536771518000,-0.074000000000
2.544458918000,-0.064000000000
2.552146318000,0.079000000000
2.559833718000,0.400000000000
2.567521118000,0.596000000000
2.575208518000,0.286000000000
2.582895918000,-0.259000000000
2.590583318000,-0.442000000000
2.598270763000,-0.282000000000
2.605957954000,-0.188000000000
2.613645145000,-0.165000000000
2.621332336000,-0.074000000000
2.629019527000,-0.029000000000
2.636706718000,-0.059000000000
2.644393909000,-0.049000000000
2.652081100000,-0.024000000000
2.659768291000,-0.034000000000
2.667455482000,-0.027000000000
2.675142673000,-0.004000000000
2.682829864000,-0.009000000000
2.690517055000,-0.009000000000
2.698204246000,0.017000000000
2.705891437000,0.029000000000
2.713578628000,0.014000000000
2.721265819000,0.007000000000
2.728953010000,0.017000000000
2.736640201000,0.029000000000
2.744327392000,0.042000000000
2.752014583000,0.056000000000
2.759701774000,0.076000000000
2.767388965000,0.089000000000
2.775076156000,0.084000000000
2.782763347000,0.094000000000
2.790450538000,0.108000000000
2.798137729000,0.103000000000
2.805824920000,0.096000000000
2.813512111000,0.081000000000
2.821199302000,0.071000000000
2.828886493000,0.066000000000
2.836573684000,0.047000000000
2.844260875000,0.019000000000
2.851948066000,0.000000000000
2.859635257000,-0.027000000000
2.867322448000,-0.064000000000
2.875009639000,-0.098000000000
2.882696830000,-0.106000000000
2.890384021000,-0.101000000000
2.898071212000,-0.103000000000
2.905758403000,-0.106000000000
2.913445594000,-0.101000000000
2.921132785000,-0.103000000000
2.928819976000,-0.103000000000
2.936507167000,-0.091000000000
2.944194358000,-0.084000000000
2.951881549000,-0.091000000000
2.959568740000,-0.089000000000
2.967255931000,-0.084000000000
2.974943122000,-0.084000000000
2.982630313000,-0.074000000000
2.990317504000,-0.079000000000
2.998004695000,-0.094000000000
3.005691886000,-0.094000000000
3.013379077000,-0.089000000000
3.021066268000,-0.091000000000
3.028753459000,-0.089000000000
3.036440650000,-0.081000000000
3.044127841000,-0.081000000000
3.051815032000,-0.076000000000
3.059502223000,-0.076000000000
3.067189414000,-0.103000000000
3.074876605000,-0.113000000000
3.082563796000,-0.091000000000
3.090250987000,-0.091000000000
3.097938178000,-0.089000000000
3.105625369000,-0.074000000000
3.113312560000,-0.089000000000
3.120999751000,-0.108000000000
3.128686942000,-0.098000000000
3.136374133000,-0.089000000000
3.144061324000,-0.091000000000
3.151748515000,-0.079000000000
3.159435747000,-0.064000000000
3.167122938000,-0.056000000000
3.174810129000,-0.051000000000
3.182497320000,-0.049000000000
3.190184511000,-0.061000000000
3.197871702000,-0.074000000000
3.205558893000,-0.071000000000
3.213246084000,-0.074000000000
3.220933275000,-0.076000000000
3.228620466000,-0.074000000000
3.236307657000,-0.076000000000
3.243994848000,-0.079000000000
3.251682039000,-0.079000000000
3.259369230000,-0.029000000000
3.267056421000,0.222000000000
3.274743612000,0.546000000000
3.282430803000,0.430000000000
3.290117994000,-0.136000000000
3.297805185000,-0.479000000000
3.305492376000,-0.378000000000
3.313179567000,-0.247000000000
3.320866758000,-0.220000000000
3.328553949000,-0.128000000000
3.336241140000,-0.042000000000
3.343928331000,-0.039000000000
3.351615522000,-0.042000000000
3.359302713000,-0.029000000000
3.366989904000,-0.024000000000
3.374677095000,-0.027000000000
3.382364286000,-0.022000000000
3.390051477000,-0.009000000000
3.397738668000,0.000000000000
3.405425859000,0.007000000000
3.413113050000,0.017000000000
3.420800241000,0.017000000000
3.428487432000,0.022000000000
3.436174623000,0.027000000000
3.443861814000,0.024000000000
3.451549005000,0.034000000000
3.459236196000,0.061000000000
3.466923387000,0.071000000000
3.474610578000,0.074000000000
3.482297769000,0.096000000000
3.489984960000,0.111000000000
3.497672151000,0.111000000000
3.505359342000,0.108000000000
3.513046533000,0.108000000000
3.520733724000,0.101000000000
3.528420915000,0.089000000000
3.536108106000,0.071000000000
3.543795297000,0.056000000000
3.551482488000,0.037000000000
3.559169679000,-0.002000000000
3.566856870000,-0.044000000000
3.574544061000,-0.071000000000
3.582231252000,-0.101000000000
3.589918443000,-0.123000000000
3.597605634000,-0.116000000000
3.605292825000,-0.113000000000
3.612980016000,-0.133000000000
3.620667207000,-0.123000000000
3.628354398000,-0.098000000000
3.636041589000,-0.121000000000
3.643728780000,-0.131000000000
3.651415971000,-0.098000000000
3.659103162000,-0.089000000000
3.666790353000,-0.094000000000
3.674477544000,-0.084000000000
3.682164735000,-0.089000000000
3.689851926000,-0.096000000000
3.697539117000,-0.081000000000
3.705226308000,-0.089000000000
3.712913499000,-0.113000000000
3.720600731000,-0.103000000000
3.728287852000,-0.084000000000
3.735974973000,-0.089000000000
3.743662094000,-0.101000000000
3.751349215000,-0.111000000000
3.759036336000,-0.108000000000
3.766723457000,-0.111000000000
3.774410578000,-0.113000000000
3.782097699000,-0.103000000000
3.789784820000,-0.096000000000
3.797471941000,-0.091000000000
3.805159062000,-0.091000000000
3.812846183000,-0.106000000000
3.820533304000,-0.111000000000
3.828220425000,-0.091000000000
3.835907546000,-0.089000000000
3.843594667000,-0.101000000000
3.851281788000,-0.074000000000
3.858968909000,-0.037000000000
3.866656030000,-0.056000000000
3.874343151000,-0.096000000000
3.882030272000,-0.089000000000
3.889717393000,-0.071000000000
3.897404514000,-0.076000000000
3.905091635000,-0.074000000000
3.912778756000,-0.074000000000
3.920465877000,-0.074000000000
3.928152998000,-0.066000000000
3.935840119000,-0.054000000000
3.943527240000,0.076000000000
3.951214361000,0.413000000000
3.958901482000,0.583000000000
3.966588603000,0.190000000000
3.974275724000,-0.376000000000
3.981962845000,-0.489000000000
3.989649966000,-0.291000000000
3.997337087000,-0.220000000000
4.005024208000,-0.188000000000
4.012711329000,-0.051000000000
4.020398450000,-0.012000000000
4.028085571000,-0.066000000000
4.035772692000,-0.039000000000
4.043459813000,0.012000000000
4.051146934000,0.000000000000
4.058834055000,0.000000000000
4.066521176000,0.017000000000
4.074208297000,-0.004000000000
4.081895418000,-0.004000000000
4.089582539000,0.017000000000
4.097269660000,0.022000000000
4.104956781000,0.029000000000
4.112643902000,0.042000000000
4.120331023000,0.042000000000
4.128018144000,0.047000000000
4.135705265000,0.066000000000
4.143392386000,0.084000000000
4.151079507000,0.089000000000
4.158766628000,0.094000000000
4.166453749000,0.101000000000
4.174140870000,0.116000000000
4.181827991000,0.133000000000
4.189515112000,0.133000000000
4.197202233000,0.113000000000
4.204889354000,0.094000000000
4.212576475000,0.098000000000
4.220263596000,0.101000000000
4.227950717000,0.051000000000
4.235637838000,0.009000000000
4.243324959000,-0.002000000000
4.251012080000,-0.037000000000
4.258699201000,-0.079000000000
4.266386322000,-0.096000000000
4.274073443000,-0.116000000000
4.281760628000,-0.118000000000
4.289447749000,-0.108000000000
4.297134870000,-0.103000000000
4.304821991000,-0.098000000000
4.312509112000,-0.096000000000
4.320196233000,-0.103000000000
4.327883354000,-0.106000000000
4.335570475000,-0.096000000000
4.343257596000,-0.081000000000
4.350944717000,-0.074000000000
4.358631838000,-0.081000000000
4.366318959000,-0.094000000000
4.374006080000,-0.084000000000
4.381693201000,-0.076000000000
4.389380322000,-0.081000000000
4.397067443000,-0.081000000000
4.404754564000,-0.084000000000
4.412441685000,-0.091000000000
4.420128806000,-0.094000000000
4.427815927000,-0.094000000000
4.435503048000,-0.098000000000
4.443190169000,-0.094000000000
4.450877290000,-0.089000000000
4.458564411000,-0.089000000000
4.466251532000,-0.076000000000
4.473938653000,-0.074000000000
4.481625774000,-0.094000000000
4.489312895000,-0.096000000000
4.497000016000,-0.084000000000
4.504687137000,-0.086000000000
4.512374258000,-0.076000000000
4.520061379000,-0.079000000000
4.527748500000,-0.098000000000
4.535435621000,-0.081000000000
4.543122742000,-0.049000000000
4.550809863000,-0.049000000000
4.558496984000,-0.042000000000
4.566184105000,-0.037000000000
4.573871226000,-0.061000000000
4.581558347000,-0.074000000000
4.589245468000,-0.061000000000
4.596932589000,-0.051000000000
4.604619710000,-0.054000000000
4.612306831000,-0.071000000000
4.619993952000,-0.066000000000
4.627681073000,-0.054000000000
4.635368194000,-0.084000000000
4.643055315000,-0.042000000000
4.650742436000,0.257000000000
4.658429557000,0.616000000000
4.666116678000,0.534000000000
4.673803799000,-0.012000000000
4.681490920000,-0.415000000000
4.689178041000,-0.368000000000
4.696865162000,-0.220000000000
4.704552283000,-0.183000000000
4.712239404000,-0.111000000000
4.719926525000,-0.037000000000
4.727613646000,-0.049000000000
4.735300767000,-0.064000000000
4.742987888000,-0.027000000000
4.750675009000,-0.014000000000
4.758362130000,-0.027000000000
4.766049251000,-0.007000000000
4.773736372000,-0.007000000000
4.781423493000,-0.029000000000
4.789110614000,-0.009000000000
4.796797735000,0.019000000000
4.804484856000,0.012000000000
4.812171977000,0.009000000000
4.819859098000,0.034000000000
4.827546219000,0.032000000000
4.835233340000,0.022000000000
4.842920525000,0.049000000000
4.850607646000,0.076000000000
4.858294767000,0.071000000000
4.865981888000,0.066000000000
4.873669009000,0.091000000000
4.881356130000,0.118000000000
4.889043251000,0.111000000000
4.896730372000,0.089000000000
4.904417493000,0.089000000000
4.912104614000,0.103000000000
4.919791735000,0.089000000000
4.927478856000,0.047000000000
4.935165977000,0.019000000000
4.942853098000,0.009000000000
4.950540219000,-0.022000000000
4.958227340000,-0.056000000000
4.965914461000,-0.076000000000
4.973601582000,-0.096000000000
4.981288703000,-0.108000000000
4.988975824000,-0.106000000000
4.996662945000,-0.103000000000
5.004350066000,-0.106000000000
5.012037187000,-0.103000000000
5.019724308000,-0.106000000000
5.027411429000,-0.108000000000
5.035098550000,-0.091000000000
5.042785671000,-0.081000000000
5.050472792000,-0.084000000000
5.058159913000,-0.081000000000
5.065847034000,-0.084000000000
5.073534155000,-0.081000000000
5.081221276000,-0.081000000000
5.088908397000,-0.094000000000
5.096595518000,-0.094000000000
5.104282639000,-0.076000000000
5.111969760000,-0.071000000000
5.119656881000,-0.084000000000
5.127344002000,-0.086000000000
5.135031123000,-0.091000000000
5.142718244000,-0.101000000000
5.150405365000,-0.089000000000
5.158092486000,-0.079000000000
5.165779607000,-0.081000000000
5.173466728000,-0.079000000000
5.181153849000,-0.091000000000
5.188840970000,-0.101000000000
5.196528091000,-0.086000000000
5.204215212000,-0.069000000000
5.211902333000,-0.084000000000
5.219589454000,-0.098000000000
5.227276575000,-0.081000000000
5.234963696000,-0.069000000000
5.242650817000,-0.094000000000
5.250337938000,-0.113000000000
5.258025059000,-0.084000000000
5.265712180000,-0.051000000000
5.273399301000,-0.059000000000
5.281086422000,-0.059000000000
5.288773543000,-0.032000000000
5.296460664000,-0.034000000000
5.304147785000,-0.066000000000
5.311834906000,-0.084000000000
5.319522027000,-0.071000000000
5.327209148000,-0.061000000000
5.334896269000,-0.066000000000
5.342583390000,-0.071000000000
5.350270511000,-0.056000000000
5.357957632000,-0.054000000000
5.365644753000,-0.079000000000
5.373331874000,0.024000000000
5.381018995000,0.368000000000
5.388706116000,0.625000000000
5.396393237000,0.358000000000
5.404080422000,-0.197000000000
5.411767822000,-0.423000000000
5.419455222000,-0.301000000000
5.427142622000,-0.205000000000
5.434830022000,-0.158000000000
5.442517422000,-0.076000000000
5.450204822000,-0.054000000000
5.457892222000,-0.069000000000
5.465579622000,-0.049000000000
5.473267022000,-0.014000000000
5.480954422000,-0.014000000000
5.488641822000,-0.039000000000
5.496329222000,-0.034000000000
5.504016622000,-0.014000000000
5.511704022000,-0.009000000000
5.519391422000,-0.007000000000
5.527078822000,0.000000000000
5.534766222000,0.004000000000
5.542453622000,0.019000000000
5.550141022000,0.027000000000
5.557828422000,0.024000000000
5.565515822000,0.034000000000
5.573203222000,0.044000000000
5.580890622000,0.047000000000
5.588578022000,0.069000000000
5.596265422000,0.084000000000
5.603952822000,0.076000000000
5.611640222000,0.091000000000
5.619327622000,0.108000000000
5.627015022000,0.089000000000
5.634702422000,0.064000000000
5.642389822000,0.061000000000
5.650077222000,0.061000000000
5.657764622000,0.042000000000
5.665452022000,0.017000000000
5.673139422000,-0.002000000000
5.680826822000,-0.024000000000
5.688514222000,-0.061000000000
5.696201622000,-0.089000000000
5.703889022000,-0.098000000000
5.711576422000,-0.111000000000
5.719263822000,-0.111000000000
5.726951222000,-0.103000000000
5.734638622000,-0.101000000000
5.742326022000,-0.096000000000
5.750013422000,-0.091000000000
5.757700822000,-0.096000000000
5.765388222000,-0.096000000000
5.773075622000,-0.089000000000
5.780763022000,-0.091000000000
5.788450422000,-0.086000000000
5.796137822000,-0.074000000000
5.803825222000,-0.081000000000
5.811512622000,-0.091000000000
5.819200022000,-0.079000000000
5.826887422000,-0.066000000000
5.834574822000,-0.084000000000
5.842262222000,-0.106000000000
5.849949622000,-0.098000000000
5.857637022000,-0.084000000000
5.865324422000,-0.084000000000
5.873011822000,-0.089000000000
5.880699222000,-0.094000000000
5.888386622000,-0.094000000000
5.896074022000,-0.084000000000
5.903761422000,-0.079000000000
5.911448822000,-0.086000000000
5.919136222000,-0.084000000000
5.926823622000,-0.079000000000
5.934511022000,-0.079000000000
5.942198422000,-0.081000000000
5.949885822000,-0.071000000000
5.957573222000,-0.064000000000
5.965260667000,-0.076000000000
5.972947858000,-0.089000000000
5.980635049000,-0.086000000000
5.988322240000,-0.084000000000
5.996009431000,-0.079000000000
6.003696622000,-0.066000000000
6.011383813000,-0.066000000000
6.019071004000,-0.066000000000
6.026758195000,-0.039000000000
6.034445386000,-0.019000000000
6.042132577000,-0.049000000000
6.049819768000,-0.074000000000
6.057506959000,-0.069000000000
6.065194150000,-0.066000000000
6.072881341000,-0.069000000000
6.080568532000,-0.056000000000
6.088255723000,-0.054000000000
6.095942914000,-0.074000000000
6.103630105000,-0.081000000000
6.111317296000,-0.044000000000
6.119004487000,0.143000000000
6.126691678000,0.494000000000
6.134378869000,0.581000000000
6.142066060000,0.121000000000
6.149753251000,-0.363000000000
6.157440442000,-0.395000000000
6.165127633000,-0.230000000000
6.172814824000,-0.185000000000
6.180502015000,-0.148000000000
6.188189206000,-0.059000000000
6.195876397000,-0.042000000000
6.203563588000,-0.056000000000
6.211250779000,-0.042000000000
6.218937970000,-0.022000000000
6.226625161000,-0.007000000000
6.234312352000,-0.014000000000
6.241999543000,-0.027000000000
6.249686734000,-0.014000000000
6.257373925000,-0.009000000000
6.265061116000,-0.014000000000
6.272748307000,0.009000000000
6.280435498000,0.027000000000
6.288122689000,0.017000000000
6.295809880000,0.017000000000
6.303497071000,0.027000000000
6.311184262000,0.034000000000
6.318871453000,0.051000000000
6.326558644000,0.064000000000
6.334245835000,0.066000000000
6.341933026000,0.086000000000
6.349620217000,0.108000000000
6.357307408000,0.089000000000
6.364994599000,0.069000000000
6.372681790000,0.076000000000
6.380368981000,0.076000000000
6.388056172000,0.061000000000
6.395743363000,0.049000000000
6.403430554000,0.032000000000
6.411117745000,0.017000000000
6.418804936000,0.000000000000
6.426492127000,-0.032000000000
6.434179318000,-0.074000000000
6.441866509000,-0.091000000000
6.449553700000,-0.096000000000
6.457240891000,-0.111000000000
6.464928082000,-0.103000000000
6.472615273000,-0.089000000000
6.480302464000,-0.096000000000
6.487989655000,-0.098000000000
6.495676846000,-0.079000000000
6.503364037000,-0.079000000000
6.511051228000,-0.096000000000
6.518738419000,-0.086000000000
6.526425651000,-0.066000000000
6.534112842000,-0.076000000000
6.541800033000,-0.084000000000
6.549487224000,-0.071000000000
6.557174415000,-0.076000000000
6.564861606000,-0.086000000000
6.572548797000,-0.089000000000
6.580235988000,-0.089000000000
6.587923179000,-0.094000000000
6.595610370000,-0.089000000000
6.603297561000,-0.084000000000
6.610984752000,-0.089000000000
6.618671943000,-0.086000000000
6.626359134000,-0.086000000000
6.634046325000,-0.101000000000
6.641733516000,-0.106000000000
6.649420707000,-0.094000000000
6.657107898000,-0.084000000000
6.664795089000,-0.079000000000
6.672482280000,-0.076000000000
6.680169471000,-0.081000000000
6.687856662000,-0.084000000000
6.695543853000,-0.084000000000
6.703231044000,-0.079000000000
6.710918235000,-0.079000000000
6.718605426000,-0.084000000000
6.726292617000,-0.094000000000
6.733979808000,-0.089000000000
6.741666999000,-0.066000000000
6.749354190000,-0.051000000000
6.757041381000,-0.064000000000
6.764728572000,-0.061000000000
6.772415763000,-0.042000000000
6.780102954000,-0.047000000000
6.787790145000,-0.064000000000
6.795477336000,-0.066000000000
6.803164527000,-0.066000000000
6.810851718000,-0.061000000000
6.818538909000,-0.061000000000
6.826226100000,-0.076000000000
6.833913291000,-0.079000000000
6.841600482000,-0.076000000000
6.849287673000,-0.051000000000
6.856974864000,0.128000000000
6.864662055000,0.475000000000
6.872349246000,0.549000000000
6.880036437000,0.098000000000
6.887723628000,-0.368000000000
6.895410819000,-0.400000000000
6.903098010000,-0.249000000000
6.910785201000,-0.195000000000
6.918472392000,-0.141000000000
6.926159583000,-0.059000000000
6.933846774000,-0.051000000000
6.941533965000,-0.061000000000
6.949221156000,-0.027000000000
6.956908347000,-0.014000000000
6.964595538000,-0.029000000000
6.972282729000,-0.009000000000
6.979969920000,0.007000000000
6.987657111000,-0.024000000000
6.995344302000,-0.037000000000
7.003031493000,-0.007000000000
7.010718684000,0.009000000000
7.018405875000,0.024000000000
7.026093066000,0.027000000000
7.033780257000,-0.002000000000
7.041467448000,0.004000000000
7.049154639000,0.049000000000
7.056841830000,0.059000000000
7.064529021000,0.047000000000
7.072216212000,0.064000000000
7.079903403000,0.086000000000
7.087590635000,0.086000000000
7.095277756000,0.089000000000
7.102964877000,0.086000000000
7.110651998000,0.069000000000
7.118339119000,0.064000000000
7.126026240000,0.066000000000
7.133713361000,0.042000000000
7.141400482000,0.007000000000
7.149087603000,-0.007000000000
7.156774724000,-0.029000000000
7.164461845000,-0.064000000000
7.172148966000,-0.091000000000
7.179836087000,-0.113000000000
7.187523208000,-0.123000000000
7.195210329000,-0.111000000000
7.202897450000,-0.113000000000
7.210584571000,-0.131000000000
7.218271692000,-0.133000000000
7.225958813000,-0.123000000000
7.233645934000,-0.118000000000
7.241333055000,-0.113000000000
7.249020176000,-0.103000000000
7.256707297000,-0.098000000000
7.264394418000,-0.103000000000
7.272081539000,-0.108000000000
7.279768660000,-0.113000000000
7.287455781000,-0.121000000000
7.295142902000,-0.113000000000
7.302830023000,-0.103000000000
7.310517144000,-0.106000000000
7.318204265000,-0.113000000000
7.325891386000,-0.118000000000
7.333578507000,-0.113000000000
7.341265628000,-0.103000000000
7.348952749000,-0.108000000000
7.356639870000,-0.118000000000
7.364326991000,-0.103000000000
7.372014112000,-0.094000000000
7.379701233000,-0.113000000000
7.387388354000,-0.123000000000
7.395075475000,-0.106000000000
7.402762596000,-0.101000000000
7.410449717000,-0.116000000000
7.418136838000,-0.116000000000
7.425823959000,-0.103000000000
7.433511080000,-0.111000000000
7.441198201000,-0.116000000000
7.448885322000,-0.101000000000
7.456572443000,-0.089000000000
7.464259564000,-0.071000000000
7.471946685000,-0.054000000000
7.479633806000,-0.079000000000
7.487320927000,-0.113000000000
7.495008048000,-0.103000000000
7.502695169000,-0.086000000000
7.510382290000,-0.098000000000
7.518069411000,-0.108000000000
7.525756532000,-0.096000000000
7.533443653000,-0.086000000000
7.541130774000,-0.096000000000
7.548817895000,-0.042000000000
7.556505016000,0.195000000000
7.564192137000,0.499000000000
7.571879258000,0.390000000000
7.579566379000,-0.185000000000
7.587253500000,-0.544000000000
7.594940621000,-0.420000000000
7.602627742000,-0.269000000000
7.610314863000,-0.254000000000
7.618001984000,-0.188000000000
7.625689105000,-0.089000000000
7.633376226000,-0.064000000000
7.641063347000,-0.066000000000
7.648750532000,-0.047000000000
7.656437653000,-0.029000000000
7.664124774000,-0.024000000000
7.671811895000,-0.024000000000
7.679499016000,-0.029000000000
7.687186137000,-0.017000000000
7.694873258000,-0.004000000000
7.702560379000,-0.014000000000
7.710247500000,-0.014000000000
7.717934621000,-0.007000000000
7.725621742000,0.004000000000
7.733308863000,0.024000000000
7.740995984000,0.037000000000
7.748683105000,0.049000000000
7.756370226000,0.056000000000
7.764057347000,0.056000000000
7.771744468000,0.076000000000
7.779431589000,0.098000000000
7.787118710000,0.103000000000
7.794805831000,0.101000000000
7.802492952000,0.089000000000
7.810180073000,0.081000000000
7.817867194000,0.079000000000
7.825554315000,0.059000000000
7.833241436000,0.044000000000
7.840928557000,0.019000000000
7.848615678000,-0.034000000000
7.856302799000,-0.076000000000
7.863989920000,-0.096000000000
7.871677041000,-0.116000000000
7.879364162000,-0.126000000000
7.887051283000,-0.131000000000
7.894738404000,-0.145000000000
7.902425525000,-0.150000000000
7.910112646000,-0.138000000000
7.917799767000,-0.138000000000
7.925486888000,-0.131000000000
7.933174009000,-0.116000000000
7.940861130000,-0.121000000000
7.948548251000,-0.121000000000
7.956235372000,-0.111000000000
7.963922493000,-0.103000000000
7.971609614000,-0.103000000000
7.979296735000,-0.106000000000
7.986983856000,-0.116000000000
7.994670977000,-0.118000000000
8.002358098000,-0.111000000000
8.010045219000,-0.098000000000
8.017732340000,-0.101000000000
8.025419461000,-0.121000000000
8.033106582000,-0.121000000000
8.040793703000,-0.113000000000
8.048480824000,-0.123000000000
8.056167945000,-0.121000000000
8.063855066000,-0.108000000000
8.071542187000,-0.108000000000
8.079229308000,-0.108000000000
8.086916429000,-0.108000000000
8.094603550000,-0.121000000000
8.102290671000,-0.131000000000
8.109977792000,-0.116000000000
8.117664913000,-0.096000000000
8.125352034000,-0.094000000000
8.133039155000,-0.086000000000
8.140726276000,-0.056000000000
8.148413397000,-0.051000000000
8.156100518000,-0.096000000000
8.163787639000,-0.121000000000
8.171474760000,-0.098000000000
8.179161881000,-0.089000000000
8.186849002000,-0.096000000000
8.194536123000,-0.091000000000
8.202223244000,-0.084000000000
8.209910429000,-0.094000000000
8.217597550000,-0.096000000000
8.225284671000,0.009000000000
8.232971792000,0.309000000000
8.240658913000,0.534000000000
8.248346034000,0.235000000000
8.256033155000,-0.351000000000
8.263720276000,-0.536000000000
8.271407397000,-0.351000000000
8.279094518000,-0.269000000000
8.286781639000,-0.254000000000
8.294468760000,-0.128000000000
8.302155881000,-0.044000000000
8.309843002000,-0.064000000000
8.317530123000,-0.059000000000
8.325217244000,-0.027000000000
8.332904365000,-0.024000000000
8.340591486000,-0.019000000000
8.348278607000,-0.014000000000
8.355965728000,-0.034000000000
8.363652849000,-0.034000000000
8.371339970000,-0.004000000000
8.379027091000,0.007000000000
8.386714212000,0.012000000000
8.394401333000,0.017000000000
8.402088454000,0.022000000000
8.409775575000,0.034000000000
8.417462696000,0.047000000000
8.425149817000,0.049000000000
8.432836938000,0.064000000000
8.440524059000,0.081000000000
8.448211180000,0.094000000000
8.455898301000,0.108000000000
8.463585422000,0.113000000000
8.471272543000,0.103000000000
8.478959664000,0.094000000000
8.486646785000,0.086000000000
8.494333906000,0.074000000000
8.502021027000,0.061000000000
8.509708148000,0.054000000000
8.517395269000,0.027000000000
8.525082390000,-0.024000000000
8.532769511000,-0.064000000000
8.540456632000,-0.091000000000
8.548143753000,-0.118000000000
8.555830874000,-0.133000000000
8.563517995000,-0.131000000000
8.571205116000,-0.131000000000
8.578892237000,-0.131000000000
8.586579358000,-0.121000000000
8.594266479000,-0.118000000000
8.601953600000,-0.121000000000
8.609640721000,-0.121000000000
8.617327842000,-0.123000000000
8.625014963000,-0.116000000000
8.632702084000,-0.111000000000
8.640389205000,-0.113000000000
8.648076326000,-0.113000000000
8.655763447000,-0.106000000000
8.663450568000,-0.101000000000
8.671137689000,-0.096000000000
8.678824810000,-0.101000000000
8.686511931000,-0.113000000000
8.694199052000,-0.123000000000
8.701886173000,-0.118000000000
8.709573294000,-0.113000000000
8.717260415000,-0.113000000000
8.724947536000,-0.108000000000
8.732634657000,-0.111000000000
8.740321778000,-0.121000000000
8.748008899000,-0.118000000000
8.755696020000,-0.106000000000
8.763383141000,-0.103000000000
8.771070326000,-0.123000000000
8.778757447000,-0.136000000000
8.786444568000,-0.123000000000
8.794131689000,-0.111000000000
8.801818810000,-0.108000000000
8.809505931000,-0.098000000000
8.817193052000,-0.086000000000
8.824880173000,-0.069000000000
8.832567294000,-0.059000000000
8.840254415000,-0.086000000000
8.847941536000,-0.111000000000
8.855628657000,-0.101000000000
8.863315778000,-0.103000000000
8.871002899000,-0.113000000000
8.878690020000,-0.106000000000
8.886377141000,-0.098000000000
8.894064262000,-0.089000000000
8.901751383000,-0.086000000000
8.909438504000,-0.066000000000
8.917125625000,0.136000000000
8.924812746000,0.487000000000
8.932499867000,0.494000000000
8.940186988000,-0.012000000000
8.947874109000,-0.440000000000
8.955561230000,-0.415000000000
8.963248351000,-0.262000000000
8.970935472000,-0.217000000000
8.978622593000,-0.158000000000
8.986309714000,-0.081000000000
8.993996835000,-0.069000000000
9.001683956000,-0.074000000000
9.009371077000,-0.064000000000
9.017058198000,-0.056000000000
9.024745319000,-0.047000000000
9.032432440000,-0.034000000000
9.040119561000,-0.029000000000
9.047806682000,-0.032000000000
9.055493803000,-0.032000000000
9.063180924000,-0.014000000000
9.070868045000,-0.002000000000
9.078555166000,-0.012000000000
9.086242287000,-0.007000000000
9.093929408000,0.017000000000
9.101616529000,0.029000000000
9.109303650000,0.024000000000
9.116990771000,0.029000000000
9.124677892000,0.056000000000
9.132365013000,0.071000000000
9.140052134000,0.079000000000
9.147739255000,0.094000000000
9.155426376000,0.091000000000
9.163113497000,0.071000000000
9.170800618000,0.076000000000
9.178487739000,0.081000000000
9.186174860000,0.059000000000
9.193861981000,0.037000000000
9.201549102000,0.017000000000
9.209236223000,-0.014000000000
9.216923344000,-0.042000000000
9.224610465000,-0.074000000000
9.232297586000,-0.111000000000
9.239984707000,-0.128000000000
9.247671828000,-0.128000000000
9.255358949000,-0.131000000000
9.263046070000,-0.123000000000
9.270733191000,-0.123000000000
9.278420312000,-0.138000000000
9.286107433000,-0.138000000000
9.293794554000,-0.121000000000
9.301481675000,-0.108000000000
9.309168796000,-0.103000000000
9.316855917000,-0.101000000000
9.324543038000,-0.103000000000
9.332230223000,-0.103000000000
9.339917344000,-0.101000000000
9.347604465000,-0.098000000000
9.355291586000,-0.098000000000
9.362978707000,-0.103000000000
9.370665828000,-0.103000000000
9.378352949000,-0.103000000000
9.386040070000,-0.106000000000
9.393727191000,-0.113000000000
9.401414312000,-0.113000000000
9.409101433000,-0.106000000000
9.416788554000,-0.108000000000
9.424475675000,-0.108000000000
9.432162796000,-0.101000000000
9.439849917000,-0.101000000000
9.447537038000,-0.118000000000
9.455224159000,-0.128000000000
9.462911280000,-0.116000000000
9.470598401000,-0.098000000000
9.478285522000,-0.098000000000
9.485972643000,-0.096000000000
9.493659764000,-0.074000000000
9.501346885000,-0.056000000000
9.509034006000,-0.061000000000
9.516721127000,-0.071000000000
9.524408248000,-0.076000000000
9.532095369000,-0.081000000000
9.539782490000,-0.089000000000
9.547469611000,-0.091000000000
9.555156732000,-0.091000000000
9.562843853000,-0.086000000000
9.570530974000,-0.084000000000
9.578218095000,-0.091000000000
9.585905216000,-0.042000000000
9.593592337000,0.197000000000
9.601279458000,0.526000000000
9.608966579000,0.477000000000
9.616653700000,-0.037000000000
9.624340821000,-0.435000000000
9.632027942000,-0.383000000000
9.639715063000,-0.227000000000
9.647402184000,-0.202000000000
9.655089305000,-0.150000000000
9.662776426000,-0.064000000000
9.670463547000,-0.054000000000
9.678150668000,-0.061000000000
9.685837789000,-0.047000000000
9.693524910000,-0.044000000000
9.701212031000,-0.039000000000
9.708899152000,-0.024000000000
9.716586273000,-0.022000000000
9.724273394000,-0.029000000000
9.731960515000,-0.022000000000
9.739647636000,-0.012000000000
9.747334757000,-0.009000000000
9.755021878000,0.000000000000
9.762708999000,0.017000000000
9.770396120000,0.027000000000
9.778083241000,0.027000000000
9.785770362000,0.042000000000
9.793457483000,0.074000000000
9.801144604000,0.076000000000
9.808831725000,0.061000000000
9.816518846000,0.079000000000
9.824205967000,0.106000000000
9.831893088000,0.106000000000
9.839580209000,0.101000000000
9.847267330000,0.096000000000
9.854954451000,0.081000000000
9.862641572000,0.059000000000
9.870328693000,0.044000000000
9.878015814000,0.022000000000
9.885702935000,-0.014000000000
9.893390120000,-0.044000000000
9.901077241000,-0.066000000000
9.908764362000,-0.106000000000
9.916451483000,-0.143000000000
9.924138604000,-0.145000000000
9.931825725000,-0.128000000000
9.939512846000,-0.128000000000
9.947199967000,-0.123000000000
9.954887088000,-0.106000000000
9.962574209000,-0.111000000000
9.970261330000,-0.133000000000
9.977948451000,-0.126000000000
9.985635572000,-0.103000000000
9.993322693000,-0.101000000000
10.001009814000,-0.096000000000
10.008696935000,-0.091000000000
10.016384056000,-0.094000000000
10.024071177000,-0.089000000000
10.031758298000,-0.101000000000
10.039445419000,-0.111000000000
10.047132540000,-0.096000000000
10.054819661000,-0.094000000000
10.062506782000,-0.103000000000
10.070193903000,-0.091000000000
10.077881024000,-0.071000000000
10.085568145000,-0.076000000000
10.093255266000,-0.081000000000
10.100942387000,-0.081000000000
10.108629508000,-0.084000000000
10.116316629000,-0.081000000000
10.124003750000,-0.076000000000
10.131690871000,-0.086000000000
10.139377992000,-0.081000000000
10.147065113000,-0.064000000000
10.154752234000,-0.071000000000
10.162439355000,-0.069000000000
10.170126476000,-0.044000000000
10.177813597000,-0.047000000000
10.185500718000,-0.061000000000
10.193187839000,-0.061000000000
10.200874960000,-0.061000000000
10.208562081000,-0.074000000000
10.216249202000,-0.081000000000
10.223936323000,-0.074000000000
10.231623444000,-0.074000000000
10.239310565000,-0.071000000000
10.246997686000,-0.066000000000
10.254684807000,-0.029000000000
10.262371928000,0.190000000000
10.270059049000,0.502000000000
10.277746170000,0.408000000000
10.285433291000,-0.123000000000
10.293120412000,-0.465000000000
10.300807533000,-0.398000000000
10.308494654000,-0.274000000000
10.316181775000,-0.227000000000
10.323868896000,-0.123000000000
10.331556017000,-0.039000000000
10.339243138000,-0.059000000000
10.346930259000,-0.061000000000
10.354617380000,-0.029000000000
10.362304501000,-0.042000000000
10.369991622000,-0.039000000000
10.377678743000,-0.017000000000
10.385365864000,-0.017000000000
10.393052985000,-0.009000000000
10.400740106000,0.007000000000
10.408427227000,0.000000000000
10.416114348000,-0.004000000000
10.423801469000,0.017000000000
10.431488590000,0.017000000000
10.439175711000,0.009000000000
10.446862832000,0.032000000000
10.454550017000,0.059000000000
10.462237208000,0.066000000000
10.469924399000,0.069000000000
10.477611590000,0.089000000000
10.485298781000,0.113000000000
10.492985972000,0.113000000000
10.500673163000,0.113000000000
10.508360354000,0.118000000000
10.516047545000,0.101000000000
10.523734736000,0.076000000000
10.531421927000,0.074000000000
10.539109118000,0.059000000000
10.546796309000,0.019000000000
10.554483500000,-0.012000000000
10.562170691000,-0.034000000000
10.569857882000,-0.066000000000
10.577545073000,-0.103000000000
10.585232264000,-0.113000000000
10.592919455000,-0.096000000000
10.600606646000,-0.081000000000
10.608293837000,-0.086000000000
10.615981028000,-0.108000000000
10.623668219000,-0.155000000000
10.631355410000,-0.185000000000
10.639042601000,-0.150000000000
10.646729792000,-0.106000000000
10.654416983000,-0.094000000000
10.662104174000,-0.096000000000
10.669791365000,-0.098000000000
10.677478556000,-0.091000000000
10.685165747000,-0.079000000000
10.692852938000,-0.086000000000
10.700540129000,-0.089000000000
10.708227320000,-0.069000000000
10.715914511000,-0.071000000000
10.723601702000,-0.094000000000
10.731288893000,-0.091000000000
10.738976084000,-0.074000000000
10.746663275000,-0.074000000000
10.754350466000,-0.069000000000
10.762037657000,-0.064000000000
10.769724848000,-0.086000000000
10.777412039000,-0.094000000000
10.785099230000,-0.074000000000
10.792786421000,-0.074000000000
10.800473612000,-0.081000000000
10.808160803000,-0.064000000000
10.815847994000,-0.042000000000
10.823535185000,-0.049000000000
10.831222376000,-0.054000000000
10.838909567000,-0.037000000000
10.846596758000,-0.034000000000
10.854283949000,-0.044000000000
10.861971140000,-0.042000000000
10.869658331000,-0.047000000000
10.877345522000,-0.051000000000
10.885032713000,-0.039000000000
10.892719904000,-0.047000000000
10.900407095000,-0.069000000000
10.908094286000,-0.061000000000
10.915781477000,-0.059000000000
10.923468668000,0.004000000000
10.931155859000,0.299000000000
10.938843050000,0.640000000000
10.946530241000,0.489000000000
10.954217432000,-0.106000000000
10.961904623000,-0.442000000000
10.969591814000,-0.319000000000
10.977279005000,-0.185000000000
10.984966196000,-0.165000000000
10.992653387000,-0.089000000000
11.000340578000,-0.027000000000
11.008027769000,-0.037000000000
11.015715005000,-0.032000000000
11.023402196000,-0.012000000000
11.031089387000,-0.017000000000
11.038776578000,-0.017000000000
11.046463769000,-0.004000000000
11.054150960000,-0.007000000000
11.061838151000,-0.002000000000
11.069525342000,0.012000000000
11.077212533000,0.014000000000
11.084899724000,0.017000000000
11.092586915000,0.024000000000
11.100274106000,0.019000000000
11.107961297000,0.029000000000
11.115648488000,0.049000000000
11.123335679000,0.061000000000
11.131022870000,0.069000000000
11.138710061000,0.089000000000
11.146397252000,0.103000000000
11.154084443000,0.108000000000
11.161771634000,0.108000000000
11.169458825000,0.106000000000
11.177146016000,0.111000000000
11.184833207000,0.111000000000
11.192520398000,0.089000000000
11.200207589000,0.066000000000
11.207894780000,0.059000000000
11.215581971000,0.034000000000
11.223269162000,-0.004000000000
11.230956353000,-0.027000000000
11.238643544000,-0.056000000000
11.246330735000,-0.096000000000
11.254017926000,-0.108000000000
11.261705117000,-0.101000000000
11.269392308000,-0.103000000000
11.277079499000,-0.101000000000
11.284766690000,-0.086000000000
11.292453881000,-0.096000000000
11.300141072000,-0.116000000000
11.307828263000,-0.113000000000
11.315515454000,-0.096000000000
11.323202645000,-0.081000000000
11.330889836000,-0.071000000000
11.338577027000,-0.066000000000
11.346264218000,-0.079000000000
11.353951409000,-0.091000000000
11.361638600000,-0.071000000000
11.369325791000,-0.056000000000
11.377012982000,-0.069000000000
11.384700173000,-0.081000000000
11.392387364000,-0.076000000000
11.400074555000,-0.074000000000
11.407761746000,-0.081000000000
11.415448937000,-0.081000000000
11.423136128000,-0.071000000000
11.430823319000,-0.071000000000
11.438510510000,-0.076000000000
11.446197701000,-0.071000000000
11.453884892000,-0.064000000000
11.461572083000,-0.064000000000
11.469259274000,-0.069000000000
11.476946465000,-0.079000000000
11.484633656000,-0.084000000000
11.492320847000,-0.079000000000
11.500008038000,-0.076000000000
11.507695229000,-0.071000000000
11.515382420000,-0.064000000000
11.523069611000,-0.051000000000
11.530756802000,-0.032000000000
11.538443993000,-0.029000000000
11.546131184000,-0.054000000000
11.553818375000,-0.064000000000
11.561505566000,-0.059000000000
11.569192757000,-0.056000000000
11.576879989000,-0.049000000000
11.584567180000,-0.054000000000
11.592254371000,-0.071000000000
11.599941562000,-0.081000000000
11.607628753000,-0.079000000000
11.615315944000,0.009000000000
11.623003135000,0.316000000000
11.630690326000,0.628000000000
11.638377517000,0.465000000000
11.646064708000,-0.116000000000
11.653751899000,-0.450000000000
11.661439090000,-0.314000000000
11.669126281000,-0.163000000000
11.676813472000,-0.160000000000
11.684500663000,-0.106000000000
11.692187854000,-0.042000000000
11.699875045000,-0.047000000000
11.707562236000,-0.047000000000
11.715249427000,-0.029000000000
11.722936618000,-0.022000000000
11.730623809000,-0.014000000000
11.738311000000,-0.017000000000
11.745998191000,-0.024000000000
11.753685382000,-0.014000000000
11.761372573000,0.000000000000
11.769059764000,0.000000000000
11.776746955000,0.000000000000
11.784434146000,0.007000000000
11.792121337000,0.027000000000
11.799808528000,0.044000000000
11.807495719000,0.037000000000
11.815182910000,0.029000000000
11.822870101000,0.047000000000
11.830557292000,0.061000000000
11.838244483000,0.064000000000
11.845931674000,0.074000000000
11.853618865000,0.084000000000
11.861306056000,0.089000000000
11.868993247000,0.086000000000
11.876680438000,0.071000000000
11.884367629000,0.064000000000
11.892054820000,0.069000000000
11.899742011000,0.049000000000
11.907429202000,0.012000000000
11.915116393000,-0.009000000000
11.922803584000,-0.032000000000
11.930490775000,-0.064000000000
11.938177966000,-0.086000000000
11.945865157000,-0.096000000000
11.953552348000,-0.103000000000
11.961239539000,-0.111000000000
11.968926730000,-0.108000000000
11.976613921000,-0.098000000000
11.984301112000,-0.089000000000
11.991988303000,-0.094000000000
11.999675494000,-0.096000000000
12.007362685000,-0.084000000000
12.015049876000,-0.079000000000
12.022737067000,-0.086000000000
12.030424258000,-0.076000000000
12.038111449000,-0.064000000000
12.045798640000,-0.069000000000
12.053485831000,-0.076000000000
12.061173022000,-0.074000000000
12.068860213000,-0.071000000000
12.076547404000,-0.079000000000
12.084234595000,-0.079000000000
12.091921786000,-0.071000000000
12.099608977000,-0.074000000000
12.107296168000,-0.074000000000
12.114983359000,-0.069000000000
12.122670550000,-0.076000000000
12.130357741000,-0.074000000000
12.138044973000,-0.074000000000
12.145732164000,-0.079000000000
12.153419355000,-0.066000000000
12.161106546000,-0.061000000000
12.168793737000,-0.079000000000
12.176480928000,-0.079000000000
12.184168119000,-0.071000000000
12.191855310000,-0.069000000000
12.199542501000,-0.066000000000
12.207229692000,-0.066000000000
12.214916883000,-0.071000000000
12.222604074000,-0.074000000000
12.230291265000,-0.074000000000
12.237978456000,-0.069000000000
12.245665647000,-0.061000000000
12.253352838000,-0.039000000000
12.261040029000,-0.017000000000
12.268727220000,-0.027000000000
12.276414411000,-0.054000000000
12.284101602000,-0.059000000000
12.291788793000,-0.064000000000
12.299475984000,-0.079000000000
12.307163175000,-0.069000000000
12.314850366000,-0.056000000000
12.322537557000,-0.069000000000
12.330224748000,-0.074000000000
12.337911939000,-0.061000000000
12.345599130000,0.044000000000
12.353286321000,0.361000000000
12.360973512000,0.625000000000
12.368660703000,0.356000000000
12.376347894000,-0.230000000000
12.384035085000,-0.437000000000
12.391722276000,-0.264000000000
12.399409467000,-0.180000000000
12.407096658000,-0.160000000000
12.414783849000,-0.061000000000
12.422471040000,-0.029000000000
12.430158231000,-0.066000000000
12.437845422000,-0.059000000000
12.445532613000,-0.032000000000
12.453219804000,-0.027000000000
12.460906995000,-0.022000000000
12.468594186000,-0.017000000000
12.476281377000,-0.017000000000
12.483968568000,-0.022000000000
12.491655759000,-0.027000000000
12.499342950000,-0.014000000000
12.507030141000,0.000000000000
12.514717332000,0.002000000000
12.522404523000,0.017000000000
12.530091714000,0.037000000000
12.537778905000,0.042000000000
12.545466096000,0.039000000000
12.553153287000,0.054000000000
12.560840478000,0.069000000000
12.568527669000,0.071000000000
12.576214860000,0.061000000000
12.583902051000,0.064000000000
12.591589242000,0.076000000000
12.599276433000,0.071000000000
12.606963624000,0.056000000000
12.614650815000,0.051000000000
12.622338006000,0.047000000000
12.630025197000,0.024000000000
12.637712388000,0.004000000000
12.645399579000,-0.009000000000
12.653086770000,-0.039000000000
12.660773961000,-0.069000000000
12.668461152000,-0.086000000000
12.676148343000,-0.096000000000
12.683835534000,-0.103000000000
12.691522725000,-0.103000000000
12.699209957000,-0.098000000000
12.706897218000,-0.091000000000
12.714584479000,-0.086000000000
12.722271740000,-0.084000000000
12.729959001000,-0.086000000000
12.737646262000,-0.091000000000
12.745333523000,-0.079000000000
12.753020784000,-0.069000000000
12.760708045000,-0.086000000000
12.768395306000,-0.094000000000
12.776082567000,-0.079000000000
12.783769828000,-0.076000000000
12.791457089000,-0.076000000000
12.799144350000,-0.076000000000
12.806831611000,-0.084000000000
12.814518872000,-0.089000000000
12.822206133000,-0.081000000000
12.829893394000,-0.076000000000
12.837580655000,-0.081000000000
12.845267916000,-0.086000000000
12.852955177000,-0.076000000000
12.860642438000,-0.061000000000
12.868329699000,-0.076000000000
12.876016960000,-0.101000000000
12.883704221000,-0.086000000000
12.891391482000,-0.064000000000
12.899078743000,-0.081000000000
12.906766004000,-0.096000000000
12.914453265000,-0.091000000000
12.922140526000,-0.084000000000
12.929827787000,-0.076000000000
12.937515048000,-0.061000000000
12.945202309000,-0.059000000000
12.952889570000,-0.059000000000
12.960576831000,-0.037000000000
12.968264092000,-0.032000000000
12.975951353000,-0.066000000000
12.983638614000,-0.076000000000
12.991325875000,-0.059000000000
12.999013136000,-0.064000000000
13.006700397000,-0.071000000000
13.014387658000,-0.064000000000
13.022074919000,-0.059000000000
13.029762180000,-0.074000000000
13.037449441000,-0.079000000000
13.045136702000,-0.012000000000
13.052823963000,0.239000000000
13.060511224000,0.554000000000
13.068198485000,0.457000000000
13.075885746000,-0.086000000000
13.083573007000,-0.435000000000
13.091260268000,-0.346000000000
13.098947529000,-0.232000000000
13.106634790000,-0.207000000000
13.114322051000,-0.106000000000
13.122009312000,-0.029000000000
13.129696573000,-0.056000000000
13.137383834000,-0.056000000000
13.145071095000,-0.027000000000
13.152758356000,-0.029000000000
13.160445617000,-0.037000000000
13.168132878000,-0.022000000000
13.175820139000,-0.009000000000
13.183507400000,-0.009000000000
13.191194661000,-0.007000000000
13.198881922000,-0.007000000000
13.206569183000,-0.007000000000
13.214256444000,0.004000000000
13.221943705000,0.024000000000
13.229630966000,0.034000000000
13.237318227000,0.042000000000
13.245005488000,0.056000000000
13.252692749000,0.059000000000
13.260380024000,0.056000000000
13.268067145000,0.071000000000
13.275754266000,0.094000000000
13.283441387000,0.096000000000
13.291128508000,0.089000000000
13.298815629000,0.079000000000
13.306502750000,0.074000000000
13.314189871000,0.066000000000
13.321876992000,0.056000000000
13.329564113000,0.044000000000
13.337251234000,0.027000000000
13.344938355000,0.002000000000
13.352625476000,-0.027000000000
13.360312597000,-0.059000000000
13.367999718000,-0.084000000000
13.375686839000,-0.098000000000
13.383373960000,-0.101000000000
13.391061081000,-0.098000000000
13.398748202000,-0.096000000000
13.406435323000,-0.098000000000
13.414122444000,-0.094000000000
13.421809565000,-0.089000000000
13.429496686000,-0.089000000000
13.437183807000,-0.084000000000
13.444870928000,-0.076000000000
13.452558049000,-0.086000000000
13.460245170000,-0.091000000000
13.467932291000,-0.079000000000
13.475619412000,-0.071000000000
13.483306533000,-0.081000000000
13.490993654000,-0.089000000000
13.498680775000,-0.086000000000
13.506367896000,-0.081000000000
13.514055017000,-0.086000000000
13.521742138000,-0.098000000000
13.529429259000,-0.096000000000
13.537116380000,-0.081000000000
13.544803501000,-0.076000000000
13.552490622000,-0.084000000000
13.560177743000,-0.084000000000
13.567864864000,-0.081000000000
13.575551985000,-0.086000000000
13.583239106000,-0.089000000000
13.590926227000,-0.089000000000
13.598613348000,-0.091000000000
13.606300469000,-0.091000000000
13.613987590000,-0.079000000000
13.621674711000,-0.069000000000
13.629361832000,-0.051000000000
13.637048953000,-0.037000000000
13.644736074000,-0.054000000000
13.652423195000,-0.079000000000
13.660110316000,-0.076000000000
13.667797437000,-0.069000000000
13.675484558000,-0.071000000000
13.683171679000,-0.066000000000
13.690858800000,-0.064000000000
13.698545921000,-0.064000000000
13.706233042000,-0.066000000000
13.713920163000,-0.071000000000
13.721607284000,-0.004000000000
13.729294405000,0.272000000000
13.736981526000,0.578000000000
13.744668647000,0.435000000000
13.752355768000,-0.118000000000
13.760042889000,-0.437000000000
13.767730010000,-0.341000000000
13.775417131000,-0.222000000000
13.783104252000,-0.190000000000
13.790791373000,-0.108000000000
13.798478494000,-0.054000000000
13.806165615000,-0.064000000000
13.813852736000,-0.056000000000
13.821539921000,-0.037000000000
13.829227112000,-0.037000000000
13.836914303000,-0.029000000000
13.844601494000,-0.017000000000
13.852288685000,-0.012000000000
13.859975876000,-0.017000000000
13.867663067000,-0.017000000000
13.875350258000,-0.007000000000
13.883037449000,-0.002000000000
13.890724640000,0.002000000000
13.898411831000,0.014000000000
13.906099022000,0.027000000000
13.913786213000,0.032000000000
13.921473404000,0.042000000000
13.929160595000,0.056000000000
13.936847786000,0.066000000000
13.944534977000,0.071000000000
13.952222168000,0.086000000000
13.959909359000,0.091000000000
13.967596550000,0.079000000000
13.975283741000,0.076000000000
13.982970932000,0.089000000000
13.990658123000,0.069000000000
13.998345314000,0.044000000000
14.006032505000,0.037000000000
14.013719696000,0.019000000000
14.021406887000,-0.012000000000
14.029094078000,-0.037000000000
14.036781269000,-0.066000000000
14.044468460000,-0.094000000000
14.052155651000,-0.108000000000
14.059842842000,-0.108000000000
14.067530033000,-0.103000000000
14.075217224000,-0.108000000000
14.082904415000,-0.113000000000
14.090591606000,-0.101000000000
14.098278797000,-0.089000000000
14.105965988000,-0.096000000000
14.113653179000,-0.101000000000
14.121340370000,-0.094000000000
14.129027561000,-0.084000000000
14.136714752000,-0.084000000000
14.144401943000,-0.094000000000
14.152089134000,-0.091000000000
14.159776325000,-0.089000000000
14.167463516000,-0.094000000000
14.175150707000,-0.089000000000
14.182837898000,-0.089000000000
14.190525089000,-0.096000000000
14.198212280000,-0.098000000000
14.205899471000,-0.098000000000
14.213586662000,-0.096000000000
14.221273853000,-0.094000000000
14.228961044000,-0.091000000000
14.236648235000,-0.094000000000
14.244335426000,-0.098000000000
14.252022617000,-0.103000000000
14.259709808000,-0.098000000000
14.267396999000,-0.096000000000
14.275084190000,-0.089000000000
14.282771381000,-0.076000000000
14.290458572000,-0.059000000000
14.298145763000,-0.047000000000
14.305832954000,-0.056000000000
14.313520145000,-0.074000000000
14.321207336000,-0.089000000000
14.328894527000,-0.091000000000
14.336581718000,-0.086000000000
14.344268909000,-0.076000000000
14.351956100000,-0.074000000000
14.359643291000,-0.084000000000
14.367330482000,-0.086000000000
14.375017673000,-0.081000000000
14.382704909000,0.009000000000
14.390392100000,0.309000000000
14.398079291000,0.593000000000
14.405766482000,0.395000000000
14.413453673000,-0.160000000000
14.421140864000,-0.430000000000
14.428828055000,-0.314000000000
14.436515246000,-0.220000000000
14.444202437000,-0.200000000000
14.451889628000,-0.108000000000
14.459576819000,-0.054000000000
14.467264010000,-0.076000000000
14.474951201000,-0.074000000000
14.482638392000,-0.037000000000
14.490325583000,-0.032000000000
14.498012774000,-0.032000000000
14.505699965000,-0.014000000000
14.513387156000,-0.007000000000
14.521074347000,-0.014000000000
14.528761538000,-0.002000000000
14.536448729000,0.004000000000
14.544135920000,-0.007000000000
14.551823111000,-0.002000000000
14.559510302000,0.024000000000
14.567197493000,0.032000000000
14.574884684000,0.034000000000
14.582571875000,0.049000000000
14.590259066000,0.064000000000
14.597946257000,0.076000000000
14.605633448000,0.084000000000
14.613320639000,0.094000000000
14.621007830000,0.094000000000
14.628695021000,0.086000000000
14.636382212000,0.086000000000
14.644069403000,0.084000000000
14.651756594000,0.069000000000
14.659443785000,0.059000000000
14.667130976000,0.047000000000
14.674818167000,0.024000000000
14.682505358000,-0.004000000000
14.690192549000,-0.034000000000
14.697879740000,-0.064000000000
14.705566931000,-0.086000000000
14.713254122000,-0.106000000000
14.720941313000,-0.113000000000
14.728628504000,-0.103000000000
14.736315695000,-0.101000000000
14.744002886000,-0.101000000000
14.751690077000,-0.096000000000
14.759377268000,-0.086000000000
14.767064459000,-0.069000000000
14.774751650000,-0.056000000000
14.782438841000,-0.081000000000
14.790126032000,-0.106000000000
14.797813223000,-0.096000000000
14.805500414000,-0.079000000000
14.813187605000,-0.081000000000
14.820874796000,-0.084000000000
14.828561987000,-0.081000000000
14.836249178000,-0.081000000000
14.843936369000,-0.079000000000
14.851623560000,-0.081000000000
14.859310751000,-0.091000000000
14.866997942000,-0.094000000000
14.874685133000,-0.086000000000
14.882372324000,-0.091000000000
14.890059515000,-0.096000000000
14.897746706000,-0.098000000000
14.905433897000,-0.103000000000
14.913121088000,-0.098000000000
14.920808279000,-0.089000000000
14.928495470000,-0.084000000000
14.936182661000,-0.069000000000
14.943869893000,-0.049000000000
14.951556875000,-0.051000000000
14.959243857000,-0.076000000000
14.966930839000,-0.091000000000
14.974617821000,-0.081000000000
14.982304803000,-0.074000000000
14.989991785000,-0.076000000000
14.997678767000,-0.074000000000
15.005365749000,-0.074000000000
15.013052731000,-0.086000000000
15.020739713000,-0.086000000000
15.028426695000,0.034000000000
15.036113677000,0.371000000000
15.043800659000,0.613000000000
15.051487641000,0.316000000000
15.059174623000,-0.235000000000
15.066861605000,-0.415000000000
15.074548587000,-0.282000000000
15.082235569000,-0.225000000000
15.089922551000,-0.188000000000
15.097609533000,-0.084000000000
15.105296515000,-0.059000000000
15.112983497000,-0.084000000000
15.120670479000,-0.056000000000
15.128357461000,-0.042000000000
15.136044443000,-0.061000000000
15.143731425000,-0.047000000000
15.151418407000,-0.019000000000
15.159105389000,-0.029000000000
15.166792371000,-0.037000000000
15.174479353000,-0.017000000000
15.182166335000,-0.002000000000
15.189853317000,-0.007000000000
15.197540299000,-0.004000000000
15.205227281000,0.012000000000
15.212914263000,0.024000000000
15.220601245000,0.027000000000
15.228288227000,0.042000000000
15.235975209000,0.059000000000
15.243662191000,0.056000000000
15.251349173000,0.059000000000
15.259036155000,0.086000000000
15.266723137000,0.091000000000
15.274410119000,0.066000000000
15.282097101000,0.064000000000
15.289784083000,0.081000000000
15.297471065000,0.069000000000
15.305158047000,0.042000000000
15.312845029000,0.029000000000
15.320532011000,0.009000000000
15.328218993000,-0.022000000000
15.335905975000,-0.049000000000
15.343592957000,-0.084000000000
15.351279939000,-0.113000000000
15.358966921000,-0.111000000000
15.366653903000,-0.101000000000
15.374340885000,-0.108000000000
15.382027867000,-0.111000000000
15.389714849000,-0.106000000000
15.397401831000,-0.101000000000
15.405088813000,-0.094000000000
15.412775795000,-0.091000000000
15.420462777000,-0.086000000000
15.428149759000,-0.079000000000
15.435836741000,-0.074000000000
15.443523723000,-0.074000000000
15.451210705000,-0.081000000000
15.458897687000,-0.086000000000
15.466584669000,-0.084000000000
15.474271651000,-0.084000000000
15.481958633000,-0.091000000000
15.489645615000,-0.091000000000
15.497332597000,-0.089000000000
15.505019616000,-0.089000000000
15.512706737000,-0.091000000000
15.520393858000,-0.094000000000
15.528080979000,-0.103000000000
15.535768100000,-0.111000000000
15.543455221000,-0.094000000000
15.551142342000,-0.071000000000
15.558829463000,-0.069000000000
15.566516584000,-0.061000000000
15.574203705000,-0.049000000000
15.581890826000,-0.061000000000
15.589577947000,-0.079000000000
15.597265068000,-0.081000000000
15.604952189000,-0.079000000000
15.612639310000,-0.076000000000
15.620326431000,-0.069000000000
15.628013552000,-0.074000000000
15.635700673000,-0.081000000000
15.643387794000,-0.081000000000
15.651074915000,-0.049000000000
15.658762036000,0.128000000000
15.666449157000,0.475000000000
15.674136278000,0.578000000000
15.681823399000,0.153000000000
15.689510520000,-0.326000000000
15.697197641000,-0.385000000000
15.704884762000,-0.249000000000
15.712571883000,-0.202000000000
15.720259004000,-0.153000000000
15.727946125000,-0.064000000000
15.735633246000,-0.047000000000
15.743320367000,-0.064000000000
15.751007488000,-0.044000000000
15.758694609000,-0.032000000000
15.766381730000,-0.034000000000
15.774068851000,-0.027000000000
15.781755972000,-0.019000000000
15.789443093000,-0.022000000000
15.797130214000,-0.017000000000
15.804817335000,-0.007000000000
15.812504456000,0.004000000000
15.820191577000,0.009000000000
15.827878698000,0.014000000000
15.835565819000,0.024000000000
15.843252940000,0.034000000000
15.850940061000,0.037000000000
15.858627182000,0.054000000000
15.866314303000,0.076000000000
15.874001424000,0.086000000000
15.881688545000,0.096000000000
15.889375666000,0.096000000000
15.897062787000,0.089000000000
15.904749908000,0.089000000000
15.912437029000,0.091000000000
15.920124150000,0.081000000000
15.927811271000,0.071000000000
15.935498392000,0.059000000000
15.943185513000,0.037000000000
15.950872634000,0.002000000000
15.958559755000,-0.032000000000
15.966246876000,-0.059000000000
15.973933997000,-0.079000000000
15.981621118000,-0.096000000000
15.989308239000,-0.116000000000
15.996995360000,-0.116000000000
16.004682481000,-0.101000000000
16.012369602000,-0.098000000000
16.020056723000,-0.098000000000
16.027743844000,-0.091000000000
16.035430965000,-0.084000000000
16.043118086000,-0.076000000000
16.050805207000,-0.074000000000
16.058492328000,-0.081000000000
16.066179513000,-0.081000000000
16.073866634000,-0.074000000000
16.081553755000,-0.081000000000
16.089240876000,-0.086000000000
16.096927997000,-0.086000000000
16.104615118000,-0.084000000000
16.112302239000,-0.086000000000
16.119989360000,-0.084000000000
16.127676481000,-0.084000000000
16.135363602000,-0.094000000000
16.143050723000,-0.094000000000
16.150737844000,-0.084000000000
16.158424965000,-0.089000000000
16.166112086000,-0.084000000000
16.173799207000,-0.059000000000
16.181486328000,-0.049000000000
16.189173449000,-0.059000000000
16.196860570000,-0.079000000000
16.204547691000,-0.089000000000
16.212234812000,-0.086000000000
16.219921933000,-0.084000000000
16.227609054000,-0.084000000000
16.235296175000,-0.079000000000
16.242983296000,-0.074000000000
16.250670417000,-0.084000000000
16.258357538000,-0.056000000000
16.266044659000,0.148000000000
16.273731780000,0.524000000000
16.281418901000,0.608000000000
16.289106022000,0.116000000000
16.296793143000,-0.398000000000
16.304480264000,-0.432000000000
16.312167385000,-0.269000000000
16.319854506000,-0.227000000000
16.327541627000,-0.183000000000
16.335228748000,-0.081000000000
16.342915869000,-0.056000000000
16.350602990000,-0.076000000000
16.358290111000,-0.047000000000
16.365977232000,-0.022000000000
16.373664353000,-0.039000000000
16.381351474000,-0.039000000000
16.389038595000,-0.014000000000
16.396725716000,-0.007000000000
16.404412837000,-0.007000000000
16.412099958000,0.007000000000
16.419787079000,0.007000000000
16.427474200000,0.002000000000
16.435161321000,0.012000000000
16.442848442000,0.039000000000
16.450535563000,0.056000000000
16.458222684000,0.056000000000
16.465909805000,0.076000000000
16.473596926000,0.096000000000
16.481284047000,0.094000000000
16.488971168000,0.106000000000
16.496658289000,0.126000000000
16.504345410000,0.111000000000
16.512032531000,0.108000000000
16.519719652000,0.113000000000
16.527406773000,0.098000000000
16.535093894000,0.079000000000
16.542781015000,0.064000000000
16.550468136000,0.039000000000
16.558155257000,0.000000000000
16.565842378000,-0.039000000000
16.573529499000,-0.069000000000
16.581216620000,-0.094000000000
16.588903741000,-0.113000000000
16.596590862000,-0.128000000000
16.604277983000,-0.131000000000
16.611965104000,-0.121000000000
16.619652225000,-0.113000000000
16.627339410000,-0.106000000000
16.635026531000,-0.101000000000
16.642713652000,-0.098000000000
16.650400773000,-0.094000000000
16.658087894000,-0.081000000000
16.665775015000,-0.076000000000
16.673462136000,-0.076000000000
16.681149257000,-0.074000000000
16.688836378000,-0.071000000000
16.696523499000,-0.079000000000
16.704210620000,-0.089000000000
16.711897741000,-0.094000000000
16.719584862000,-0.089000000000
16.727271983000,-0.086000000000
16.734959104000,-0.101000000000
16.742646225000,-0.108000000000
16.750333346000,-0.098000000000
16.758020467000,-0.098000000000
16.765707588000,-0.096000000000
16.773394709000,-0.074000000000
16.781081830000,-0.049000000000
16.788768951000,-0.059000000000
16.796456072000,-0.084000000000
16.804143193000,-0.084000000000
16.811830314000,-0.079000000000
16.819517435000,-0.086000000000
16.827204556000,-0.089000000000
16.834891677000,-0.076000000000
16.842578798000,-0.069000000000
16.850265919000,-0.086000000000
16.857953040000,-0.091000000000
16.865640161000,0.037000000000
16.873327282000,0.385000000000
16.881014403000,0.640000000000
16.888701524000,0.343000000000
16.896388645000,-0.235000000000
16.904075766000,-0.452000000000
16.911762887000,-0.309000000000
16.919450008000,-0.215000000000
16.927137129000,-0.190000000000
16.934824250000,-0.103000000000
16.942511371000,-0.049000000000
16.950198492000,-0.061000000000
16.957885613000,-0.059000000000
16.965572734000,-0.042000000000
16.973259855000,-0.039000000000
16.980946976000,-0.034000000000
16.988634097000,-0.014000000000
16.996321218000,-0.007000000000
17.004008339000,-0.017000000000
17.011695460000,-0.012000000000
17.019382581000,0.002000000000
17.027069702000,0.012000000000
17.034756823000,0.019000000000
17.042443944000,0.017000000000
17.050131065000,0.019000000000
17.057818186000,0.042000000000
17.065505307000,0.061000000000
17.073192428000,0.074000000000
17.080879549000,0.081000000000
17.088566670000,0.096000000000
17.096253791000,0.101000000000
17.103940912000,0.098000000000
17.111628033000,0.091000000000
17.119315154000,0.094000000000
17.127002275000,0.096000000000
17.134689396000,0.089000000000
17.142376517000,0.069000000000
17.150063638000,0.044000000000
17.157750759000,0.007000000000
17.165437880000,-0.027000000000
17.173125001000,-0.061000000000
17.180812122000,-0.091000000000
17.188499307000,-0.111000000000
17.196186428000,-0.121000000000
17.203873549000,-0.123000000000
17.211560670000,-0.121000000000
17.219247791000,-0.113000000000
17.226934912000,-0.108000000000
17.234622033000,-0.106000000000
17.242309154000,-0.108000000000
17.249996275000,-0.103000000000
17.257683396000,-0.086000000000
17.265370517000,-0.081000000000
17.273057638000,-0.096000000000
17.280744759000,-0.096000000000
17.288431880000,-0.081000000000
17.296119001000,-0.079000000000
17.303806122000,-0.079000000000
17.311493243000,-0.079000000000
17.319180364000,-0.091000000000
17.326867485000,-0.096000000000
17.334554606000,-0.094000000000
17.342241727000,-0.108000000000
17.349928848000,-0.111000000000
17.357615969000,-0.101000000000
17.365303090000,-0.101000000000
17.372990211000,-0.098000000000
17.380677332000,-0.098000000000
17.388364453000,-0.089000000000
17.396051574000,-0.056000000000
17.403738695000,-0.054000000000
17.411425816000,-0.089000000000
17.419112937000,-0.098000000000
17.426800058000,-0.091000000000
17.434487179000,-0.094000000000
17.442174300000,-0.089000000000
17.449861421000,-0.081000000000
17.457548542000,-0.079000000000
17.465235663000,-0.081000000000
17.472922784000,-0.089000000000
17.480609905000,-0.024000000000
17.488297026000,0.272000000000
17.495984147000,0.623000000000
17.503671268000,0.517000000000
17.511358389000,-0.056000000000
17.519045510000,-0.432000000000
17.526732631000,-0.346000000000
17.534419752000,-0.220000000000
17.542106873000,-0.205000000000
17.549793994000,-0.131000000000
17.557481115000,-0.054000000000
17.565168236000,-0.069000000000
17.572855357000,-0.081000000000
17.580542478000,-0.059000000000
17.588229599000,-0.042000000000
17.595916720000,-0.039000000000
17.603603841000,-0.034000000000
17.611290962000,-0.024000000000
17.618978083000,-0.019000000000
17.626665204000,-0.019000000000
17.634352325000,-0.007000000000
17.642039446000,0.000000000000
17.649726567000,-0.004000000000
17.657413688000,0.002000000000
17.665100809000,0.022000000000
17.672787930000,0.029000000000
17.680475051000,0.037000000000
17.688162172000,0.064000000000
17.695849293000,0.079000000000
17.703536414000,0.071000000000
17.711223535000,0.074000000000
17.718910656000,0.091000000000
17.726597777000,0.098000000000
17.734284898000,0.096000000000
17.741972019000,0.091000000000
17.749659208000,0.086000000000
17.757346469000,0.074000000000
17.765033730000,0.049000000000
17.772720991000,0.002000000000
17.780408252000,-0.042000000000
17.788095513000,-0.064000000000
17.795782774000,-0.089000000000
17.803470035000,-0.108000000000
17.811157296000,-0.116000000000
17.818844557000,-0.123000000000
17.826531818000,-0.126000000000
17.834219079000,-0.121000000000
17.841906340000,-0.126000000000
17.849593601000,-0.133000000000
17.857280862000,-0.126000000000
17.864968123000,-0.111000000000
17.872655384000,-0.098000000000
17.880342645000,-0.096000000000
17.888029906000,-0.096000000000
17.895717167000,-0.091000000000
17.903404428000,-0.086000000000
17.911091689000,-0.091000000000
17.918778950000,-0.101000000000
17.926466211000,-0.101000000000
17.934153472000,-0.096000000000
17.941840733000,-0.098000000000
17.949527994000,-0.101000000000
17.957215255000,-0.096000000000
17.964902516000,-0.091000000000
17.972589777000,-0.089000000000
17.980277038000,-0.094000000000
17.987964299000,-0.101000000000
17.995651560000,-0.111000000000
18.003338821000,-0.113000000000
18.011026082000,-0.101000000000
18.018713343000,-0.098000000000
18.026400604000,-0.091000000000
18.034087865000,-0.079000000000
18.041775126000,-0.081000000000
18.049462387000,-0.066000000000
18.057149648000,-0.049000000000
18.064836909000,-0.064000000000
18.072524170000,-0.081000000000
18.080211431000,-0.081000000000
18.087898692000,-0.084000000000
18.095585953000,-0.086000000000
18.103273214000,-0.079000000000
18.110960475000,-0.074000000000
18.118647736000,-0.081000000000
18.126334997000,-0.098000000000
18.134022258000,-0.079000000000
18.141709519000,0.116000000000
18.149396780000,0.497000000000
18.157084041000,0.633000000000
18.164771302000,0.212000000000
18.172458563000,-0.311000000000
18.180145824000,-0.403000000000
18.187833085000,-0.242000000000
18.195520346000,-0.185000000000
18.203207607000,-0.153000000000
18.210894868000,-0.076000000000
18.218582129000,-0.059000000000
18.226269390000,-0.069000000000
18.233956651000,-0.051000000000
18.241643912000,-0.034000000000
18.249331173000,-0.034000000000
18.257018434000,-0.034000000000
18.264705695000,-0.034000000000
18.272392956000,-0.029000000000
18.280080217000,-0.017000000000
18.287767478000,-0.012000000000
18.295454739000,-0.007000000000
18.303142000000,0.002000000000
18.310829279000,0.009000000000
18.318516470000,0.014000000000
18.326203661000,0.027000000000
18.333890852000,0.044000000000
18.341578043000,0.056000000000
18.349265234000,0.054000000000
18.356952425000,0.051000000000
18.364639616000,0.059000000000
18.372326807000,0.071000000000
18.380013998000,0.089000000000
18.387701189000,0.096000000000
18.395388380000,0.091000000000
18.403075571000,0.074000000000
18.410762762000,0.061000000000
18.418449953000,0.051000000000
18.426137144000,0.042000000000
18.433824335000,0.024000000000
18.441511526000,-0.014000000000
18.449198717000,-0.056000000000
18.456885908000,-0.081000000000
18.464573099000,-0.101000000000
18.472260290000,-0.121000000000
18.479947481000,-0.138000000000
18.487634672000,-0.138000000000
18.495321863000,-0.116000000000
18.503009054000,-0.106000000000
18.510696245000,-0.113000000000
18.518383436000,-0.096000000000
18.526070627000,-0.076000000000
18.533757818000,-0.089000000000
18.541445009000,-0.101000000000
18.549132200000,-0.091000000000
18.556819391000,-0.086000000000
18.564506582000,-0.089000000000
18.572193773000,-0.089000000000
18.579880964000,-0.089000000000
18.587568155000,-0.089000000000
18.595255346000,-0.086000000000
18.602942537000,-0.081000000000
18.610629728000,-0.079000000000
18.618316919000,-0.086000000000
18.626004110000,-0.096000000000
18.633691301000,-0.094000000000
18.641378492000,-0.089000000000
18.649065683000,-0.091000000000
18.656752874000,-0.096000000000
18.664440065000,-0.091000000000
18.672127256000,-0.089000000000
18.679814447000,-0.103000000000
18.687501638000,-0.108000000000
18.695188829000,-0.094000000000
18.702876020000,-0.076000000000
18.710563211000,-0.064000000000
18.718250402000,-0.069000000000
18.725937593000,-0.089000000000
18.733624784000,-0.096000000000
18.741311975000,-0.089000000000
18.748999166000,-0.084000000000
18.756686357000,-0.079000000000
18.764373548000,-0.081000000000
18.772060739000,-0.081000000000
18.779747930000,-0.039000000000
18.787435121000,-0.007000000000
18.795122312000,-0.049000000000
18.802809503000,-0.084000000000
18.810496694000,-0.071000000000
18.818183885000,-0.069000000000
18.825871076000,-0.069000000000
18.833558267000,-0.061000000000
18.841245458000,-0.061000000000
18.848932649000,-0.071000000000
18.856619840000,-0.081000000000
18.864307031000,-0.069000000000
18.871994263000,0.108000000000
18.879681454000,0.479000000000
18.887368645000,0.613000000000
18.895055836000,0.185000000000
18.902743027000,-0.321000000000
18.910430218000,-0.398000000000
18.918117409000,-0.249000000000
18.925804600000,-0.197000000000
18.933491791000,-0.145000000000
18.941178982000,-0.056000000000
18.948866173000,-0.056000000000
18.956553364000,-0.071000000000
18.964240555000,-0.034000000000
18.971927746000,-0.024000000000
18.979614937000,-0.039000000000
18.987302128000,-0.029000000000
18.994989319000,-0.014000000000
19.002676510000,-0.022000000000
19.010363701000,-0.019000000000
19.018050892000,-0.012000000000
19.025738083000,-0.004000000000
19.033425274000,0.004000000000
19.041112465000,0.012000000000
19.048799656000,0.012000000000
19.056486847000,0.024000000000
19.064174038000,0.042000000000
19.071861229000,0.051000000000
19.079548420000,0.056000000000
19.087235611000,0.059000000000
19.094922802000,0.069000000000
19.102609993000,0.081000000000
19.110297184000,0.086000000000
19.117984375000,0.079000000000
19.125671566000,0.056000000000
19.133358757000,0.059000000000
19.141045948000,0.079000000000
19.148733139000,0.069000000000
19.156420330000,0.032000000000
19.164107521000,0.007000000000
19.171794712000,-0.009000000000
19.179481903000,-0.049000000000
19.187169094000,-0.096000000000
19.194856285000,-0.113000000000
19.202543476000,-0.113000000000
19.210230667000,-0.106000000000
19.217917858000,-0.101000000000
19.225605049000,-0.094000000000
19.233292240000,-0.101000000000
19.240979431000,-0.116000000000
19.248666622000,-0.118000000000
19.256353813000,-0.113000000000
19.264041004000,-0.116000000000
19.271728195000,-0.106000000000
19.279415386000,-0.076000000000
19.287102577000,-0.056000000000
19.294789768000,-0.064000000000
19.302476959000,-0.089000000000
19.310164150000,-0.108000000000
19.317851341000,-0.108000000000
19.325538532000,-0.081000000000
19.333225723000,-0.064000000000
19.340912914000,-0.084000000000
19.348600105000,-0.101000000000
19.356287296000,-0.098000000000
19.363974487000,-0.103000000000
19.371661678000,-0.098000000000
19.379348869000,-0.089000000000
19.387036060000,-0.089000000000
19.394723251000,-0.091000000000
19.402410442000,-0.089000000000
19.410097633000,-0.084000000000
19.417784824000,-0.081000000000
19.425472015000,-0.084000000000
19.433159247000,-0.084000000000
19.440846438000,-0.086000000000
19.448533629000,-0.086000000000
19.456220820000,-0.084000000000
19.463908011000,-0.076000000000
19.471595202000,-0.069000000000
19.479282393000,-0.069000000000
19.486969584000,-0.084000000000
19.494656775000,-0.086000000000
19.502343966000,-0.071000000000
19.510031157000,-0.071000000000
19.517718348000,-0.089000000000
19.525405539000,-0.081000000000
19.533092730000,-0.069000000000
19.540779921000,-0.069000000000
19.548467112000,-0.056000000000
19.556154303000,-0.044000000000
19.563841494000,-0.047000000000
19.571528685000,-0.042000000000
19.579215876000,-0.034000000000
19.586903067000,-0.047000000000
19.594590258000,-0.064000000000
19.602277449000,-0.071000000000
19.609964640000,-0.076000000000
19.617651831000,-0.071000000000
19.625339022000,-0.056000000000
19.633026213000,-0.049000000000
19.640713404000,-0.056000000000
19.648400595000,-0.069000000000
19.656087786000,-0.009000000000
19.663774977000,0.247000000000
19.671462168000,0.571000000000
19.679149359000,0.504000000000
19.686836550000,-0.019000000000
19.694523741000,-0.403000000000
19.702210932000,-0.336000000000
19.709898123000,-0.192000000000
19.717585314000,-0.183000000000
19.725272505000,-0.126000000000
19.732959696000,-0.047000000000
19.740646887000,-0.049000000000
19.748334078000,-0.051000000000
19.756021269000,-0.034000000000
19.763708460000,-0.034000000000
19.771395651000,-0.022000000000
19.779082842000,-0.014000000000
19.786770033000,-0.014000000000
19.794457224000,-0.004000000000
19.802144415000,0.002000000000
19.809831606000,-0.002000000000
19.817518797000,-0.002000000000
19.825205988000,0.009000000000
19.832893179000,0.014000000000
19.840580370000,0.009000000000
19.848267561000,0.019000000000
19.855954752000,0.042000000000
19.863641943000,0.054000000000
19.871329134000,0.056000000000
19.879016325000,0.074000000000
19.886703516000,0.094000000000
19.894390707000,0.096000000000
19.902077898000,0.084000000000
19.909765089000,0.074000000000
19.917452280000,0.089000000000
19.925139471000,0.094000000000
19.932826662000,0.056000000000
19.940513853000,0.044000000000
19.948201044000,0.056000000000
19.955888235000,0.019000000000
19.963575426000,-0.032000000000
19.971262617000,-0.047000000000
19.978949808000,-0.061000000000
19.986636999000,-0.098000000000
19.994324231000,-0.128000000000
20.002011422000,-0.131000000000
20.009698613000,-0.118000000000
20.017385804000,-0.116000000000
20.025072995000,-0.123000000000
20.032760186000,-0.118000000000
20.040447377000,-0.103000000000
20.048134568000,-0.098000000000
20.055821759000,-0.101000000000
20.063508950000,-0.103000000000
20.071196141000,-0.101000000000
20.078883332000,-0.084000000000
20.086570523000,-0.086000000000
20.094257714000,-0.103000000000
20.101944905000,-0.094000000000
20.109632096000,-0.084000000000
20.117319287000,-0.094000000000
20.125006478000,-0.103000000000
20.132693669000,-0.103000000000
20.140380860000,-0.091000000000
20.148068051000,-0.081000000000
20.155755242000,-0.094000000000
20.163442433000,-0.118000000000
20.171129624000,-0.116000000000
20.178816815000,-0.094000000000
20.186504006000,-0.086000000000
20.194191197000,-0.081000000000
20.201878388000,-0.091000000000
20.209565579000,-0.116000000000
20.217252770000,-0.101000000000
20.224939961000,-0.064000000000
20.232627152000,-0.081000000000
20.240314343000,-0.108000000000
20.248001534000,-0.091000000000
20.255688725000,-0.089000000000
20.263375916000,-0.116000000000
20.271063107000,-0.101000000000
20.278750298000,-0.054000000000
20.286437489000,-0.066000000000
20.294124680000,-0.091000000000
20.301811871000,-0.066000000000
20.309499062000,-0.066000000000
20.317186253000,-0.096000000000
20.324873444000,-0.096000000000
20.332560635000,-0.086000000000
20.340247826000,-0.086000000000
20.347935017000,-0.074000000000
20.355622208000,-0.064000000000
20.363309399000,-0.059000000000
20.370996590000,-0.049000000000
20.378683781000,-0.054000000000
20.386370972000,-0.069000000000
20.394058163000,-0.066000000000
20.401745354000,-0.054000000000
20.409432545000,-0.054000000000
20.417119736000,-0.069000000000
20.424806927000,-0.074000000000
20.432494118000,-0.069000000000
20.440181309000,-0.069000000000
20.447868500000,-0.074000000000
20.455555691000,-0.081000000000
20.463242882000,-0.084000000000
20.470930073000,-0.034000000000
20.478617264000,0.173000000000
20.486304455000,0.519000000000
20.493991646000,0.581000000000
20.501678837000,0.089000000000
20.509366028000,-0.415000000000
20.517053219000,-0.427000000000
20.524740410000,-0.274000000000
20.532427601000,-0.269000000000
20.540114792000,-0.212000000000
20.547801983000,-0.051000000000
20.555489215000,-0.019000000000
20.563175988000,-0.081000000000
20.570862761000,-0.064000000000
20.578549534000,0.000000000000
20.586236307000,0.007000000000
20.593923080000,-0.024000000000
20.601609853000,-0.032000000000
20.609296626000,-0.019000000000
20.616983399000,-0.007000000000
20.624670172000,0.007000000000
20.632356945000,-0.002000000000
20.640043718000,-0.012000000000
20.647730491000,0.024000000000
20.655417264000,0.049000000000
20.663104037000,0.019000000000
20.670790810000,0.024000000000
20.678477583000,0.069000000000
20.686164356000,0.084000000000
20.693851129000,0.089000000000
20.701537902000,0.101000000000
20.709224675000,0.103000000000
20.716911448000,0.094000000000
20.724598221000,0.096000000000
20.732284994000,0.121000000000
20.739971767000,0.126000000000
20.747658540000,0.091000000000
20.755345313000,0.079000000000
20.763032086000,0.079000000000
20.770718859000,0.029000000000
20.778405632000,-0.024000000000
20.786092405000,-0.056000000000
20.793779178000,-0.091000000000
20.801465951000,-0.101000000000
20.809152724000,-0.101000000000
20.816839497000,-0.121000000000
20.824526270000,-0.131000000000
20.832213043000,-0.123000000000
20.839899816000,-0.111000000000
20.847586589000,-0.113000000000
20.855273362000,-0.128000000000
20.862960135000,-0.133000000000
20.870646908000,-0.108000000000
20.878333681000,-0.074000000000
20.886020454000,-0.074000000000
20.893707227000,-0.108000000000
20.901394000000,-0.101000000000
20.909080773000,-0.056000000000
20.916767546000,-0.059000000000
20.924454319000,-0.101000000000
20.932141092000,-0.101000000000
20.939827865000,-0.071000000000
20.947514638000,-0.084000000000
20.955201411000,-0.118000000000
20.962888184000,-0.111000000000
20.970574957000,-0.071000000000
20.978261730000,-0.069000000000
20.985948503000,-0.094000000000
20.993635276000,-0.101000000000
21.001322049000,-0.098000000000
21.009008822000,-0.084000000000
21.016695595000,-0.089000000000
21.024382368000,-0.141000000000
21.032069141000,-0.148000000000
21.039755914000,-0.084000000000
21.047442687000,-0.051000000000
21.055129460000,-0.071000000000
21.062816233000,-0.074000000000
21.070503006000,-0.064000000000
21.078189779000,-0.076000000000
21.085876552000,-0.084000000000
21.093563325000,-0.086000000000
21.101250098000,-0.096000000000
21.108936871000,-0.074000000000
21.116623681000,-0.064000000000
21.124311151000,-0.086000000000
21.131998621000,-0.081000000000
21.139686091000,-0.071000000000
21.147373561000,-0.089000000000
21.155061031000,-0.071000000000
21.162748501000,-0.034000000000
21.170435971000,-0.039000000000
21.178123441000,-0.042000000000
21.185810911000,-0.027000000000
21.193498381000,-0.049000000000
21.201185851000,-0.076000000000
21.208873321000,-0.064000000000
21.216560791000,-0.061000000000
21.224248261000,-0.064000000000
21.231935731000,-0.051000000000
21.239623201000,-0.066000000000
21.247310671000,-0.081000000000
21.254998141000,-0.066000000000
21.262685611000,0.012000000000
21.270373081000,0.301000000000
21.278060551000,0.640000000000
21.285748021000,0.482000000000
21.293435491000,-0.113000000000
21.301122961000,-0.450000000000
21.308810431000,-0.348000000000
21.316497901000,-0.244000000000
21.324185371000,-0.227000000000
21.331872841000,-0.103000000000
21.339560311000,-0.007000000000
21.347247781000,-0.039000000000
21.354935251000,-0.049000000000
21.362622721000,-0.017000000000
21.370310191000,-0.019000000000
21.377997661000,-0.034000000000
21.385685131000,-0.034000000000
21.393372601000,-0.014000000000
21.401060071000,0.014000000000
21.408747541000,0.004000000000
21.416435011000,-0.009000000000
21.424122481000,0.019000000000
21.431809951000,0.042000000000
21.439497421000,0.027000000000
21.447184891000,0.022000000000
21.454872361000,0.037000000000
21.462559831000,0.047000000000
21.470247301000,0.051000000000
21.477934771000,0.074000000000
21.485622241000,0.098000000000
21.493309711000,0.106000000000
21.500997181000,0.126000000000
21.508684651000,0.150000000000
21.516372121000,0.136000000000
21.524059591000,0.098000000000
21.531747061000,0.079000000000
21.539434531000,0.098000000000
21.547122001000,0.101000000000
21.554809471000,0.061000000000
21.562496941000,0.029000000000
21.570184411000,0.000000000000
21.577871881000,-0.054000000000
21.585559351000,-0.089000000000
21.593246821000,-0.094000000000
21.600934291000,-0.116000000000
21.608621761000,-0.136000000000
21.616309231000,-0.116000000000
21.623996701000,-0.113000000000
21.631684171000,-0.128000000000
21.639371641000,-0.118000000000
21.647059111000,-0.113000000000
21.654746581000,-0.113000000000
21.662434051000,-0.094000000000
21.670121521000,-0.081000000000
21.677809009000,-0.086000000000
21.685496130000,-0.094000000000
21.693183251000,-0.089000000000
21.700870372000,-0.064000000000
21.708557493000,-0.059000000000
21.716244614000,-0.091000000000
21.723931735000,-0.098000000000
21.731618856000,-0.081000000000
21.739305977000,-0.079000000000
21.746993098000,-0.079000000000
21.754680219000,-0.071000000000
21.762367340000,-0.091000000000
21.770054461000,-0.111000000000
21.777741582000,-0.081000000000
21.785428703000,-0.049000000000
21.793115824000,-0.076000000000
21.800802945000,-0.103000000000
21.808490066000,-0.084000000000
21.816177187000,-0.071000000000
21.823864308000,-0.071000000000
21.831551429000,-0.076000000000
21.839238550000,-0.094000000000
21.846925671000,-0.096000000000
21.854612792000,-0.064000000000
21.862299913000,-0.054000000000
21.869987034000,-0.074000000000
21.877674155000,-0.086000000000
21.885361276000,-0.079000000000
21.893048397000,-0.066000000000
21.900735518000,-0.081000000000
21.908422639000,-0.089000000000
21.916109760000,-0.047000000000
21.923796881000,-0.029000000000
21.931484002000,-0.069000000000
21.939171123000,-0.066000000000
21.946858244000,-0.034000000000
21.954545365000,-0.059000000000
21.962232486000,-0.091000000000
21.969919607000,-0.079000000000
21.977606728000,-0.069000000000
21.985293849000,-0.081000000000
21.992980970000,-0.061000000000
22.000668091000,-0.022000000000
22.008355212000,-0.032000000000
22.016042333000,-0.054000000000
22.023729454000,-0.034000000000
22.031416575000,-0.009000000000
22.039103696000,-0.032000000000
22.046790817000,-0.076000000000
22.054477938000,-0.056000000000
22.062165059000,-0.022000000000
22.069852180000,-0.049000000000
22.077539301000,-0.069000000000
22.085226422000,-0.054000000000
22.092913543000,-0.074000000000
22.100600664000,-0.086000000000
22.108287785000,0.047000000000
22.115974906000,0.410000000000
22.123662027000,0.705000000000
22.131349148000,0.462000000000
22.139036269000,-0.128000000000
22.146723390000,-0.408000000000
22.154410511000,-0.291000000000
22.162097632000,-0.200000000000
22.169784753000,-0.183000000000
22.177471874000,-0.091000000000
22.185158995000,-0.034000000000
22.192846116000,-0.044000000000
22.200533237000,-0.044000000000
22.208220358000,-0.034000000000
22.215907479000,-0.029000000000
22.223594600000,-0.027000000000
22.231281721000,-0.042000000000
22.238968906000,-0.037000000000
22.246656027000,-0.004000000000
22.254343148000,0.012000000000
22.262030269000,0.004000000000
22.269717390000,0.009000000000
22.277404511000,0.017000000000
22.285091632000,0.004000000000
22.292778753000,0.007000000000
22.300465874000,0.019000000000
22.308152995000,0.042000000000
22.315840116000,0.064000000000
22.323527237000,0.064000000000
22.331214358000,0.074000000000
22.338901479000,0.096000000000
22.346588600000,0.091000000000
22.354275721000,0.074000000000
22.361962842000,0.101000000000
22.369649963000,0.131000000000
22.377337084000,0.108000000000
22.385024205000,0.084000000000
22.392711326000,0.079000000000
22.400398447000,0.064000000000
22.408085568000,0.022000000000
22.415772689000,-0.019000000000
22.423459810000,-0.051000000000
22.431146931000,-0.071000000000
22.438834052000,-0.089000000000
22.446521173000,-0.101000000000
22.454208294000,-0.111000000000
22.461895415000,-0.118000000000
22.469582536000,-0.118000000000
22.477269657000,-0.118000000000
22.484956778000,-0.116000000000
22.492643899000,-0.106000000000
22.500331020000,-0.106000000000
22.508018141000,-0.103000000000
22.515705262000,-0.086000000000
22.523392383000,-0.086000000000
22.531079504000,-0.103000000000
22.538766625000,-0.103000000000
22.546453746000,-0.089000000000
22.554140867000,-0.069000000000
22.561827988000,-0.064000000000
22.569515109000,-0.076000000000
22.577202230000,-0.079000000000
22.584889351000,-0.076000000000
22.592576472000,-0.086000000000
22.600263593000,-0.096000000000
22.607950714000,-0.094000000000
22.615637835000,-0.071000000000
22.623324956000,-0.069000000000
22.631012077000,-0.111000000000
22.638699198000,-0.108000000000
22.646386319000,-0.061000000000
22.654073440000,-0.076000000000
22.661760561000,-0.103000000000
22.669447682000,-0.079000000000
22.677134803000,-0.059000000000
22.684821924000,-0.071000000000
22.692509045000,-0.079000000000
22.700196166000,-0.084000000000
22.707883287000,-0.091000000000
22.715570408000,-0.074000000000
22.723257529000,-0.044000000000
22.730944650000,-0.059000000000
22.738631771000,-0.079000000000
22.746318892000,-0.056000000000
22.754006013000,-0.049000000000
22.761693134000,-0.076000000000
22.769380255000,-0.086000000000
22.777067376000,-0.056000000000
22.784754497000,-0.047000000000
22.792441618000,-0.064000000000
22.800128803000,-0.059000000000
22.807815924000,-0.051000000000
22.815503045000,-0.064000000000
22.823190166000,-0.061000000000
22.830877287000,-0.047000000000
22.838564408000,-0.056000000000
22.846251529000,-0.076000000000
22.853938650000,-0.081000000000
22.861625771000,-0.056000000000
22.869312892000,-0.044000000000
22.877000013000,-0.051000000000
22.884687134000,-0.037000000000
22.892374255000,-0.017000000000
22.900061376000,-0.014000000000
22.907748497000,-0.034000000000
22.915435618000,-0.059000000000
22.923122739000,-0.059000000000
22.930809860000,-0.056000000000
22.938496981000,-0.064000000000
22.946184102000,-0.054000000000
22.953871223000,-0.032000000000
22.961558344000,-0.037000000000
22.969245465000,-0.064000000000
22.976932586000,-0.074000000000
22.984619707000,0.044000000000
22.992306828000,0.395000000000
22.999993949000,0.677000000000
23.007681070000,0.432000000000
23.015368191000,-0.126000000000
23.023055312000,-0.388000000000
23.030742433000,-0.289000000000
23.038429554000,-0.197000000000
23.046116675000,-0.153000000000
23.053803796000,-0.059000000000
23.061490917000,-0.039000000000
23.069178038000,-0.064000000000
23.076865159000,-0.047000000000
23.084552280000,-0.042000000000
23.092239401000,-0.042000000000
23.099926522000,-0.022000000000
23.107613643000,-0.014000000000
23.115300764000,-0.024000000000
23.122987885000,-0.017000000000
23.130675006000,0.000000000000
23.138362127000,-0.004000000000
23.146049248000,0.000000000000
23.153736369000,0.019000000000
23.161423490000,0.017000000000
23.169110611000,0.009000000000
23.176797732000,0.039000000000
23.184484853000,0.061000000000
23.192171974000,0.054000000000
23.199859095000,0.047000000000
23.207546216000,0.059000000000
23.215233337000,0.086000000000
23.222920458000,0.108000000000
23.230607579000,0.101000000000
23.238294700000,0.091000000000
23.245981821000,0.098000000000
23.253668942000,0.103000000000
23.261356063000,0.096000000000
23.269043184000,0.074000000000
23.276730305000,0.047000000000
23.284417426000,0.019000000000
23.292104547000,-0.004000000000
23.299791668000,-0.027000000000
23.307478789000,-0.054000000000
23.315165910000,-0.086000000000
23.322853031000,-0.106000000000
23.330540152000,-0.108000000000
23.338227273000,-0.113000000000
23.345914394000,-0.131000000000
23.353601515000,-0.126000000000
23.361288700000,-0.086000000000
23.368975821000,-0.084000000000
23.376662942000,-0.116000000000
23.384350063000,-0.111000000000
23.392037184000,-0.098000000000
23.399724305000,-0.101000000000
23.407411426000,-0.084000000000
23.415098547000,-0.074000000000
23.422785668000,-0.081000000000
23.430472789000,-0.071000000000
23.438159910000,-0.069000000000
23.445847031000,-0.091000000000
23.453534152000,-0.094000000000
23.461221273000,-0.084000000000
23.468908394000,-0.103000000000
23.476595515000,-0.108000000000
23.484282636000,-0.079000000000
23.491969757000,-0.066000000000
23.499656878000,-0.089000000000
23.507343999000,-0.094000000000
23.515031120000,-0.084000000000
23.522718241000,-0.089000000000
23.530405362000,-0.098000000000
23.538092483000,-0.074000000000
23.545779604000,-0.064000000000
23.553466725000,-0.096000000000
23.561153846000,-0.101000000000
23.568840967000,-0.081000000000
23.576528088000,-0.079000000000
23.584215209000,-0.064000000000
23.591902330000,-0.054000000000
23.599589451000,-0.069000000000
23.607276572000,-0.076000000000
23.614963693000,-0.074000000000
23.622650814000,-0.089000000000
23.630337935000,-0.096000000000
23.638025056000,-0.074000000000
23.645712177000,-0.054000000000
23.653399298000,-0.056000000000
23.661086419000,-0.064000000000
23.668773540000,-0.061000000000
23.676460661000,-0.054000000000
23.684147782000,-0.066000000000
23.691834903000,-0.076000000000
23.699522024000,-0.061000000000
23.707209145000,-0.051000000000
23.714896266000,-0.054000000000
23.722583387000,-0.051000000000
23.730270508000,-0.059000000000
23.737957629000,-0.066000000000
23.745644750000,-0.064000000000
23.753331871000,-0.069000000000
23.761018992000,-0.066000000000
23.768706113000,-0.039000000000
23.776393234000,-0.029000000000
23.784080355000,-0.037000000000
23.791767476000,-0.019000000000
23.799454597000,-0.009000000000
23.807141718000,-0.037000000000
23.814828839000,-0.059000000000
23.822515960000,-0.064000000000
23.830203081000,-0.069000000000
23.837890202000,-0.059000000000
23.845577323000,-0.044000000000
23.853264444000,-0.047000000000
23.860951565000,-0.054000000000
23.868638686000,-0.061000000000
23.876325807000,-0.009000000000
23.884012928000,0.252000000000
23.891700049000,0.598000000000
23.899387170000,0.544000000000
23.907074291000,0.029000000000
23.914761412000,-0.356000000000
23.922448597000,-0.319000000000
23.930135788000,-0.205000000000
23.937822979000,-0.190000000000
23.945510170000,-0.118000000000
23.953197361000,-0.032000000000
23.960884552000,-0.044000000000
23.968571743000,-0.064000000000
23.976258934000,-0.034000000000
23.983946125000,-0.027000000000
23.991633316000,-0.042000000000
23.999320507000,-0.037000000000
24.007007698000,-0.024000000000
24.014694889000,-0.017000000000
24.022382080000,-0.004000000000
24.030069271000,-0.002000000000
24.037756462000,-0.007000000000
24.045443653000,0.000000000000
24.053130844000,0.014000000000
24.060818035000,0.027000000000
24.068505226000,0.024000000000
24.076192417000,0.024000000000
24.083879608000,0.039000000000
24.091566799000,0.054000000000
24.099253990000,0.056000000000
24.106941181000,0.066000000000
24.114628372000,0.101000000000
24.122315563000,0.118000000000
24.130002754000,0.098000000000
24.137689945000,0.091000000000
24.145377136000,0.106000000000
24.153064327000,0.096000000000
24.160751518000,0.071000000000
24.168438709000,0.061000000000
24.176125900000,0.039000000000
24.183813091000,-0.009000000000
24.191500282000,-0.034000000000
24.199187473000,-0.027000000000
24.206874664000,-0.051000000000
24.214561855000,-0.108000000000
24.222249046000,-0.111000000000
24.229936237000,-0.091000000000
24.237623428000,-0.111000000000
24.245310619000,-0.126000000000
24.252997810000,-0.113000000000
24.260685001000,-0.108000000000
24.268372192000,-0.106000000000
24.276059383000,-0.106000000000
24.283746574000,-0.106000000000
24.291433765000,-0.081000000000
24.299120956000,-0.061000000000
24.306808147000,-0.079000000000
24.314495338000,-0.086000000000
24.322182529000,-0.069000000000
24.329869720000,-0.071000000000
24.337556911000,-0.094000000000
24.345244102000,-0.094000000000
24.352931293000,-0.069000000000
24.360618484000,-0.061000000000
24.368305675000,-0.084000000000
24.375992866000,-0.094000000000
24.383680057000,-0.089000000000
24.391367248000,-0.091000000000
24.399054439000,-0.084000000000
24.406741630000,-0.076000000000
24.414428821000,-0.096000000000
24.422116012000,-0.113000000000
24.429803203000,-0.086000000000
24.437490394000,-0.061000000000
24.445177585000,-0.081000000000
24.452864776000,-0.094000000000
24.460551967000,-0.084000000000
24.468239158000,-0.086000000000
24.475926349000,-0.081000000000
24.483613585000,-0.071000000000
24.491300776000,-0.081000000000
24.498987967000,-0.079000000000
24.506675158000,-0.066000000000
24.514362349000,-0.071000000000
24.522049540000,-0.069000000000
24.529736731000,-0.064000000000
24.537423922000,-0.076000000000
24.545111113000,-0.084000000000
24.552798304000,-0.066000000000
24.560485495000,-0.064000000000
24.568172686000,-0.079000000000
24.575859877000,-0.071000000000
24.583547068000,-0.066000000000
24.591234259000,-0.076000000000
24.598921450000,-0.081000000000
24.606608641000,-0.071000000000
24.614295832000,-0.054000000000
24.621983023000,-0.034000000000
24.629670214000,-0.027000000000
24.637357405000,-0.029000000000
24.645044596000,-0.039000000000
24.652731787000,-0.059000000000
24.660418978000,-0.054000000000
24.668106169000,-0.049000000000
24.675793360000,-0.071000000000
24.683480551000,-0.074000000000
24.691167742000,-0.047000000000
24.698854933000,-0.051000000000
24.706542124000,-0.076000000000
24.714229315000,-0.037000000000
24.721916506000,0.178000000000
24.729603697000,0.531000000000
24.737290888000,0.586000000000
24.744978079000,0.106000000000
24.752665270000,-0.373000000000
24.760352461000,-0.405000000000
24.768039652000,-0.254000000000
24.775726843000,-0.212000000000
24.783414034000,-0.155000000000
24.791101225000,-0.054000000000
24.798788416000,-0.042000000000
24.806475607000,-0.066000000000
24.814162798000,-0.037000000000
24.821849989000,-0.019000000000
24.829537180000,-0.039000000000
24.837224371000,-0.032000000000
24.844911562000,-0.007000000000
24.852598753000,-0.017000000000
24.860285944000,-0.019000000000
24.867973135000,0.000000000000
24.875660326000,0.007000000000
24.883347517000,0.002000000000
24.891034708000,0.004000000000
24.898721899000,0.019000000000
24.906409090000,0.039000000000
24.914096281000,0.047000000000
24.921783472000,0.044000000000
24.929470663000,0.059000000000
24.937157854000,0.079000000000
24.944845045000,0.089000000000
24.952532236000,0.113000000000
24.960219427000,0.143000000000
24.967906618000,0.145000000000
24.975593809000,0.126000000000
24.983281000000,0.108000000000
24.990968191000,0.091000000000
24.998655382000,0.084000000000
25.006342573000,0.076000000000
25.014029764000,0.049000000000
25.021716955000,0.024000000000
25.029404146000,0.000000000000
25.037091337000,-0.056000000000
25.044778569000,-0.101000000000
25.052465760000,-0.113000000000
25.060152951000,-0.133000000000
25.067840142000,-0.148000000000
25.075527333000,-0.141000000000
25.083214524000,-0.133000000000
25.090901715000,-0.126000000000
25.098588906000,-0.113000000000
25.106276097000,-0.111000000000
25.113963288000,-0.116000000000
25.121650479000,-0.106000000000
25.129337670000,-0.096000000000
25.137024861000,-0.101000000000
25.144712052000,-0.103000000000
25.152399243000,-0.096000000000
25.160086434000,-0.098000000000
25.167773625000,-0.096000000000
25.175460816000,-0.076000000000
25.183148007000,-0.069000000000
25.190835198000,-0.084000000000
25.198522389000,-0.096000000000
25.206209580000,-0.091000000000
25.213896771000,-0.091000000000
25.221583962000,-0.106000000000
25.229271153000,-0.108000000000
25.236958344000,-0.101000000000
25.244645535000,-0.103000000000
25.252332726000,-0.098000000000
25.260019917000,-0.076000000000
25.267707108000,-0.069000000000
25.275394299000,-0.084000000000
25.283081490000,-0.089000000000
25.290768681000,-0.086000000000
25.298455872000,-0.091000000000
25.306143063000,-0.086000000000
25.313830254000,-0.079000000000
25.321517445000,-0.081000000000
25.329204636000,-0.079000000000
25.336891827000,-0.074000000000
25.344579018000,-0.066000000000
25.352266209000,-0.064000000000
25.359953400000,-0.066000000000
25.367640591000,-0.071000000000
25.375327782000,-0.084000000000
25.383014973000,-0.098000000000
25.390702164000,-0.096000000000
25.398389355000,-0.066000000000
25.406076546000,-0.039000000000
25.413763737000,-0.042000000000
25.421450928000,-0.051000000000
25.429138119000,-0.034000000000
25.436825310000,-0.029000000000
25.444512501000,-0.051000000000
25.452199692000,-0.059000000000
25.459886883000,-0.056000000000
25.467574074000,-0.076000000000
25.475261265000,-0.086000000000
25.482948456000,-0.061000000000
25.490635647000,-0.044000000000
25.498322838000,-0.064000000000
25.506010029000,-0.074000000000
25.513697220000,0.032000000000
25.521384411000,0.363000000000
25.529071602000,0.658000000000
25.536758793000,0.427000000000
25.544445984000,-0.158000000000
25.552133175000,-0.430000000000
25.559820366000,-0.314000000000
25.567507557000,-0.235000000000
25.575194748000,-0.212000000000
25.582881939000,-0.091000000000
25.590569130000,-0.012000000000
25.598256321000,-0.047000000000
25.605943553000,-0.059000000000
25.613630744000,-0.029000000000
25.621317935000,-0.024000000000
25.629005126000,-0.032000000000
25.636692317000,-0.029000000000
25.644379508000,-0.017000000000
25.652066699000,-0.002000000000
25.659753890000,-0.004000000000
25.667441081000,0.000000000000
25.675128272000,0.019000000000
25.682815463000,0.019000000000
25.690502654000,0.014000000000
25.698189845000,0.024000000000
25.705877036000,0.034000000000
25.713564227000,0.034000000000
25.721251418000,0.049000000000
25.728938609000,0.074000000000
25.736625800000,0.086000000000
25.744312991000,0.089000000000
25.752000182000,0.108000000000
25.759687373000,0.126000000000
25.767374564000,0.126000000000
25.775061755000,0.116000000000
25.782748946000,0.108000000000
25.790436137000,0.106000000000
25.798123328000,0.101000000000
25.805810519000,0.071000000000
25.813497710000,0.022000000000
25.821184901000,-0.022000000000
25.828872092000,-0.051000000000
25.836559283000,-0.069000000000
25.844246474000,-0.089000000000
25.851933665000,-0.106000000000
25.859620856000,-0.113000000000
25.867308047000,-0.123000000000
25.874995238000,-0.131000000000
25.882682429000,-0.121000000000
25.890369620000,-0.113000000000
25.898056811000,-0.113000000000
25.905744002000,-0.108000000000
25.913431193000,-0.103000000000
25.921118384000,-0.098000000000
25.928805575000,-0.096000000000
25.936492766000,-0.089000000000
25.944179957000,-0.089000000000
25.951867148000,-0.096000000000
25.959554339000,-0.089000000000
25.967241530000,-0.076000000000
25.974928721000,-0.076000000000
25.982615912000,-0.079000000000
25.990303103000,-0.084000000000
25.997990294000,-0.084000000000
26.005677485000,-0.086000000000
26.013364676000,-0.094000000000
26.021051867000,-0.091000000000
26.028739058000,-0.089000000000
26.036426249000,-0.098000000000
26.044113440000,-0.103000000000
26.051800631000,-0.096000000000
26.059487822000,-0.091000000000
26.067175013000,-0.084000000000
26.074862204000,-0.071000000000
26.082549395000,-0.071000000000
26.090236586000,-0.081000000000
26.097923777000,-0.079000000000
26.105610968000,-0.081000000000
26.113298159000,-0.091000000000
26.120985350000,-0.091000000000
26.128672541000,-0.079000000000
26.136359732000,-0.069000000000
26.144046923000,-0.076000000000
26.151734114000,-0.076000000000
26.159421305000,-0.074000000000
26.167108537000,-0.089000000000
26.174795728000,-0.086000000000
26.182482919000,-0.054000000000
26.190170110000,-0.042000000000
26.197857301000,-0.051000000000
26.205544492000,-0.049000000000
26.213231683000,-0.037000000000
26.220918874000,-0.047000000000
26.228606065000,-0.071000000000
26.236293256000,-0.071000000000
26.243980447000,-0.066000000000
26.251667638000,-0.076000000000
26.259354829000,-0.074000000000
26.267042020000,-0.069000000000
26.274729211000,-0.066000000000
26.282416402000,-0.071000000000
26.290103593000,-0.064000000000
26.297790784000,0.086000000000
26.305477975000,0.442000000000
26.313165166000,0.625000000000
26.320852357000,0.272000000000
26.328539548000,-0.254000000000
26.336226739000,-0.398000000000
26.343913930000,-0.254000000000
26.351601121000,-0.183000000000
26.359288312000,-0.163000000000
26.366975503000,-0.086000000000
26.374662694000,-0.059000000000
26.382349885000,-0.076000000000
26.390037076000,-0.064000000000
26.397724267000,-0.032000000000
26.405411458000,-0.012000000000
26.413098649000,-0.019000000000
26.420785840000,-0.029000000000
26.428473031000,-0.017000000000
26.436160222000,-0.014000000000
26.443847413000,-0.024000000000
26.451534604000,-0.012000000000
26.459221795000,0.004000000000
26.466908986000,0.000000000000
26.474596177000,0.009000000000
26.482283368000,0.034000000000
26.489970559000,0.044000000000
26.497657750000,0.042000000000
26.505344941000,0.047000000000
26.513032132000,0.064000000000
26.520719323000,0.076000000000
26.528406514000,0.079000000000
26.536093705000,0.089000000000
26.543780896000,0.113000000000
26.551468087000,0.131000000000
26.559155278000,0.121000000000
26.566842469000,0.106000000000
26.574529660000,0.098000000000
26.582216851000,0.079000000000
26.589904042000,0.037000000000
26.597591233000,0.000000000000
26.605278424000,-0.027000000000
26.612965615000,-0.061000000000
26.620652806000,-0.096000000000
26.628339997000,-0.103000000000
26.636027188000,-0.091000000000
26.643714379000,-0.098000000000
26.651401570000,-0.126000000000
26.659088761000,-0.133000000000
26.666775952000,-0.118000000000
26.674463143000,-0.108000000000
26.682150334000,-0.108000000000
26.689837525000,-0.106000000000
26.697524716000,-0.106000000000
26.705211907000,-0.113000000000
26.712899098000,-0.108000000000
26.720586289000,-0.091000000000
26.728273521000,-0.084000000000
26.735960712000,-0.098000000000
26.743647903000,-0.106000000000
26.751335094000,-0.086000000000
26.759022285000,-0.069000000000
26.766709476000,-0.084000000000
26.774396667000,-0.094000000000
26.782083858000,-0.086000000000
26.789771049000,-0.086000000000
26.797458240000,-0.096000000000
26.805145431000,-0.098000000000
26.812832622000,-0.094000000000
26.820519813000,-0.096000000000
26.828207004000,-0.103000000000
26.835894195000,-0.096000000000
26.843581386000,-0.081000000000
26.851268577000,-0.086000000000
26.858955768000,-0.101000000000
26.866642959000,-0.101000000000
26.874330150000,-0.091000000000
26.882017341000,-0.089000000000
26.889704532000,-0.091000000000
26.897391723000,-0.091000000000
26.905078914000,-0.084000000000
26.912766105000,-0.064000000000
26.920453296000,-0.059000000000
26.928140487000,-0.079000000000
26.935827678000,-0.091000000000
26.943514869000,-0.091000000000
26.951202060000,-0.094000000000
26.958889251000,-0.091000000000
26.966576442000,-0.081000000000
26.974263633000,-0.064000000000
26.981950824000,-0.051000000000
26.989638015000,-0.051000000000
26.997325206000,-0.051000000000
27.005012397000,-0.047000000000
27.012699588000,-0.051000000000
27.020386779000,-0.074000000000
27.028073970000,-0.091000000000
27.035761161000,-0.086000000000
27.043448352000,-0.064000000000
27.051135543000,-0.056000000000
27.058822734000,-0.074000000000
27.066509925000,-0.079000000000
27.074197116000,-0.069000000000
27.081884307000,-0.032000000000
27.089571498000,0.160000000000
27.097258689000,0.509000000000
27.104945880000,0.564000000000
27.112633071000,0.103000000000
27.120320262000,-0.353000000000
27.128007453000,-0.390000000000
27.135694644000,-0.249000000000
27.143381835000,-0.210000000000
27.151069026000,-0.155000000000
27.158756217000,-0.064000000000
27.166443408000,-0.054000000000
27.174130599000,-0.064000000000
27.181817790000,-0.039000000000
27.189504981000,-0.037000000000
27.197192172000,-0.047000000000
27.204879363000,-0.042000000000
27.212566554000,-0.032000000000
27.220253745000,-0.032000000000
27.227940936000,-0.029000000000
27.235628127000,-0.027000000000
27.243315318000,-0.024000000000
27.251002509000,-0.007000000000
27.258689700000,0.009000000000
27.266376891000,0.012000000000
27.274064082000,0.022000000000
27.281751273000,0.034000000000
27.289438505000,0.034000000000
27.297125626000,0.037000000000
27.304812747000,0.056000000000
27.312499868000,0.079000000000
27.320186989000,0.084000000000
27.327874110000,0.081000000000
27.335561231000,0.086000000000
27.343248352000,0.101000000000
27.350935473000,0.103000000000
27.358622594000,0.089000000000
27.366309715000,0.076000000000
27.373996836000,0.069000000000
27.381683957000,0.034000000000
27.389371078000,-0.019000000000
27.397058199000,-0.054000000000
27.404745320000,-0.071000000000
27.412432441000,-0.101000000000
27.420119562000,-0.131000000000
27.427806683000,-0.143000000000
27.435493804000,-0.148000000000
27.443180925000,-0.136000000000
27.450868046000,-0.118000000000
27.458555167000,-0.126000000000
27.466242288000,-0.145000000000
27.473929409000,-0.145000000000
27.481616530000,-0.126000000000
27.489303651000,-0.118000000000
27.496990772000,-0.121000000000
27.504677893000,-0.108000000000
27.512365014000,-0.096000000000
27.520052135000,-0.101000000000
27.527739256000,-0.098000000000
27.535426377000,-0.098000000000
27.543113498000,-0.111000000000
27.550800619000,-0.106000000000
27.558487740000,-0.091000000000
27.566174861000,-0.091000000000
27.573861982000,-0.096000000000
27.581549103000,-0.108000000000
27.589236224000,-0.113000000000
27.596923345000,-0.108000000000
27.604610466000,-0.106000000000
27.612297587000,-0.111000000000
27.619984708000,-0.103000000000
27.627671829000,-0.096000000000
27.635358950000,-0.094000000000
27.643046071000,-0.094000000000
27.650733192000,-0.098000000000
27.658420313000,-0.101000000000
27.666107434000,-0.096000000000
27.673794555000,-0.089000000000
27.681481676000,-0.094000000000
27.689168797000,-0.094000000000
27.696855918000,-0.086000000000
27.704543039000,-0.094000000000
27.712230160000,-0.108000000000
27.719917281000,-0.108000000000
27.727604402000,-0.101000000000
27.735291523000,-0.094000000000
27.742978644000,-0.079000000000
27.750665765000,-0.059000000000
27.758352886000,-0.054000000000
27.766040007000,-0.061000000000
27.773727128000,-0.054000000000
27.781414249000,-0.051000000000
27.789101370000,-0.071000000000
27.796788491000,-0.081000000000
27.804475612000,-0.081000000000
27.812162733000,-0.081000000000
27.819849854000,-0.086000000000
27.827536975000,-0.084000000000
27.835224096000,-0.081000000000
27.842911217000,-0.084000000000
27.850598402000,-0.069000000000
27.858285245000,0.066000000000
27.865972088000,0.410000000000
27.873658931000,0.628000000000
27.881345774000,0.269000000000
27.889032617000,-0.326000000000
27.896719460000,-0.482000000000
27.904406303000,-0.311000000000
27.912093146000,-0.249000000000
27.919779989000,-0.225000000000
27.927466832000,-0.106000000000
27.935153675000,-0.051000000000
27.942840518000,-0.069000000000
27.950527361000,-0.054000000000
27.958214204000,-0.039000000000
27.965901047000,-0.049000000000
27.973587890000,-0.042000000000
27.981274733000,-0.019000000000
27.988961576000,-0.012000000000
27.996648419000,-0.014000000000
28.004335262000,-0.017000000000
28.012022105000,-0.007000000000
28.019708948000,0.007000000000
28.027395791000,0.012000000000
28.035082634000,0.004000000000
28.042769477000,0.014000000000
28.050456320000,0.039000000000
28.058143163000,0.049000000000
28.065830006000,0.061000000000
28.073516849000,0.081000000000
28.081203692000,0.094000000000
28.088890535000,0.103000000000
28.096577378000,0.126000000000
28.104264221000,0.138000000000
28.111951064000,0.131000000000
28.119637907000,0.126000000000
28.127324750000,0.121000000000
28.135011593000,0.101000000000
28.142698436000,0.079000000000
28.150385279000,0.059000000000
28.158072122000,0.019000000000
28.165758965000,-0.032000000000
28.173445808000,-0.066000000000
28.181132651000,-0.096000000000
28.188819494000,-0.126000000000
28.196506337000,-0.136000000000
28.204193180000,-0.143000000000
28.211880023000,-0.158000000000
28.219566866000,-0.155000000000
28.227253709000,-0.138000000000
28.234940552000,-0.131000000000
28.242627395000,-0.128000000000
28.250314238000,-0.126000000000
28.258001081000,-0.116000000000
28.265687924000,-0.108000000000
28.273374767000,-0.103000000000
28.281061610000,-0.098000000000
28.288748453000,-0.094000000000
28.296435296000,-0.096000000000
28.304122139000,-0.098000000000
28.311808982000,-0.098000000000
28.319495825000,-0.098000000000
28.327182668000,-0.098000000000
28.334869511000,-0.098000000000
28.342556354000,-0.101000000000
28.350243197000,-0.096000000000
28.357930040000,-0.084000000000
28.365616883000,-0.091000000000
28.373303726000,-0.103000000000
28.380990569000,-0.096000000000
28.388677412000,-0.091000000000
28.396364255000,-0.101000000000
28.404051098000,-0.096000000000
28.411737955000,-0.089000000000
28.419425146000,-0.091000000000
28.427112337000,-0.089000000000
28.434799528000,-0.096000000000
28.442486719000,-0.111000000000
28.450173910000,-0.103000000000
28.457861101000,-0.096000000000
28.465548292000,-0.094000000000
28.473235483000,-0.076000000000
28.480922674000,-0.066000000000
28.488609865000,-0.069000000000
28.496297056000,-0.056000000000
28.503984247000,-0.049000000000
28.511671438000,-0.064000000000
28.519358629000,-0.076000000000
28.527045820000,-0.079000000000
28.534733011000,-0.076000000000
28.542420202000,-0.074000000000
28.550107393000,-0.076000000000
28.557794584000,-0.079000000000
28.565481775000,-0.081000000000
28.573168966000,-0.091000000000
28.580856157000,-0.047000000000
28.588543348000,0.215000000000
28.596230539000,0.598000000000
28.603917730000,0.586000000000
28.611604921000,0.024000000000
28.619292112000,-0.440000000000
28.626979303000,-0.400000000000
28.634666494000,-0.237000000000
28.642353685000,-0.217000000000
28.650040876000,-0.153000000000
28.657728067000,-0.059000000000
28.665415258000,-0.059000000000
28.673102449000,-0.074000000000
28.680789640000,-0.044000000000
28.688476831000,-0.024000000000
28.696164022000,-0.032000000000
28.703851213000,-0.032000000000
28.711538404000,-0.022000000000
28.719225595000,-0.014000000000
28.726912786000,-0.007000000000
28.734599977000,0.002000000000
28.742287168000,-0.004000000000
28.749974359000,-0.012000000000
28.757661550000,0.007000000000
28.765348741000,0.022000000000
28.773035932000,0.024000000000
28.780723123000,0.039000000000
28.788410314000,0.059000000000
28.796097505000,0.071000000000
28.803784696000,0.076000000000
28.811471887000,0.089000000000
28.819159078000,0.108000000000
28.826846269000,0.118000000000
28.834533460000,0.116000000000
28.842220651000,0.118000000000
28.849907842000,0.126000000000
28.857595033000,0.118000000000
28.865282224000,0.091000000000
28.872969415000,0.059000000000
28.880656606000,0.034000000000
28.888343797000,-0.002000000000
28.896030988000,-0.047000000000
28.903718179000,-0.076000000000
28.911405370000,-0.096000000000
28.919092561000,-0.118000000000
28.926779752000,-0.136000000000
28.934466943000,-0.143000000000
28.942154134000,-0.145000000000
28.949841325000,-0.138000000000
28.957528516000,-0.128000000000
28.965215707000,-0.126000000000
28.972902939000,-0.118000000000
28.980590130000,-0.113000000000
28.988277321000,-0.113000000000
28.995964512000,-0.103000000000
29.003651703000,-0.091000000000
29.011338894000,-0.098000000000
29.019026085000,-0.106000000000
29.026713276000,-0.096000000000
29.034400467000,-0.089000000000
29.042087658000,-0.091000000000
29.049774849000,-0.089000000000
29.057462040000,-0.091000000000
29.065149231000,-0.096000000000
29.072836422000,-0.101000000000
29.080523613000,-0.098000000000
29.088210804000,-0.098000000000
29.095897995000,-0.103000000000
29.103585186000,-0.106000000000
29.111272377000,-0.098000000000
29.118959568000,-0.091000000000
29.126646759000,-0.094000000000
29.134333950000,-0.094000000000
29.142021141000,-0.091000000000
29.149708332000,-0.096000000000
29.157395523000,-0.098000000000
29.165082714000,-0.103000000000
29.172769905000,-0.111000000000
29.180457096000,-0.113000000000
29.188144287000,-0.091000000000
29.195831478000,-0.064000000000
29.203518669000,-0.059000000000
29.211205860000,-0.071000000000
29.218893051000,-0.056000000000
29.226580242000,-0.047000000000
29.234267433000,-0.076000000000
29.241954624000,-0.094000000000
29.249641815000,-0.076000000000
29.257329006000,-0.069000000000
29.265016197000,-0.079000000000
29.272703388000,-0.084000000000
29.280390579000,-0.076000000000
29.288077770000,-0.076000000000
29.295764961000,-0.086000000000
29.303452152000,-0.039000000000
29.311139343000,0.225000000000
29.318826534000,0.603000000000
29.326513725000,0.606000000000
29.334200916000,0.081000000000
29.341888107000,-0.380000000000
29.349575298000,-0.383000000000
