time,LSB
0.000000000000,0.613000000000
0.007687539000,0.683000000000
0.015375078000,0.054000000000
0.023062617000,-0.542000000000
0.030750156000,-0.478000000000
0.038437695000,-0.241000000000
0.046125234000,-0.249000000000
0.053812773000,-0.214000000000
0.061500312000,-0.083000000000
0.069187851000,-0.059000000000
0.076875390000,-0.083000000000
0.084562929000,-0.051000000000
0.092250468000,-0.034000000000
0.099938007000,-0.046000000000
0.107625546000,-0.034000000000
0.115313085000,-0.019000000000
0.123000624000,-0.032000000000
0.130688163000,-0.032000000000
0.138375702000,-0.009000000000
0.146063241000,0.004000000000
0.153750780000,0.009000000000
0.161438319000,0.019000000000
0.169125858000,0.022000000000
0.176813397000,0.017000000000
0.184500936000,0.027000000000
0.192188475000,0.049000000000
0.199876014000,0.054000000000
0.207563553000,0.059000000000
0.215251092000,0.083000000000
0.222938631000,0.106000000000
0.230626170000,0.108000000000
0.238313709000,0.115000000000
0.246001248000,0.130000000000
0.253688787000,0.128000000000
0.261376326000,0.110000000000
0.269063865000,0.110000000000
0.276751404000,0.106000000000
0.284438943000,0.078000000000
0.292126482000,0.034000000000
0.299814021000,-0.017000000000
0.307501560000,-0.064000000000
0.315189099000,-0.098000000000
0.322876638000,-0.118000000000
0.330564177000,-0.140000000000
0.338251716000,-0.157000000000
0.345939255000,-0.152000000000
0.353626794000,-0.147000000000
0.361314333000,-0.150000000000
0.369001872000,-0.143000000000
0.376689411000,-0.135000000000
0.384376950000,-0.133000000000
0.392064489000,-0.120000000000
0.399752028000,-0.110000000000
0.407439567000,-0.108000000000
0.415127106000,-0.106000000000
0.422814645000,-0.101000000000
0.430502252000,-0.098000000000
0.438190000000,-0.088000000000
0.445877748000,-0.088000000000
0.453565496000,-0.098000000000
0.461253244000,-0.103000000000
0.468940992000,-0.106000000000
0.476628740000,-0.098000000000
0.484316488000,-0.093000000000
0.492004236000,-0.103000000000
0.499691984000,-0.106000000000
0.507379732000,-0.101000000000
0.515067480000,-0.098000000000
0.522755228000,-0.101000000000
0.530442976000,-0.103000000000
0.538130724000,-0.106000000000
0.545818472000,-0.101000000000
0.553506220000,-0.088000000000
0.561193968000,-0.086000000000
0.568881716000,-0.093000000000
0.576569464000,-0.091000000000
0.584257212000,-0.086000000000
0.591944960000,-0.096000000000
0.599632708000,-0.093000000000
0.607320456000,-0.083000000000
0.615008204000,-0.078000000000
0.622695952000,-0.081000000000
0.630383700000,-0.081000000000
0.638071448000,-0.071000000000
0.645759196000,-0.059000000000
0.653446944000,-0.051000000000
0.661134692000,-0.041000000000
0.668822440000,-0.041000000000
0.676510188000,-0.054000000000
0.684197936000,-0.059000000000
0.691885684000,-0.061000000000
0.699573432000,-0.064000000000
0.707261180000,-0.059000000000
0.714948928000,-0.054000000000
0.722636676000,-0.054000000000
0.730324424000,-0.071000000000
0.738012172000,-0.091000000000
0.745699920000,0.056000000000
0.753387668000,0.495000000000
0.761075416000,0.793000000000
0.768763164000,0.384000000000
0.776450912000,-0.345000000000
0.784138660000,-0.535000000000
0.791826408000,-0.281000000000
0.799514156000,-0.207000000000
0.807201904000,-0.221000000000
0.814889652000,-0.093000000000
0.822577400000,-0.014000000000
0.830265148000,-0.039000000000
0.837952896000,-0.032000000000
0.845640644000,-0.004000000000
0.853328392000,-0.004000000000
0.861016140000,-0.009000000000
0.868703888000,0.002000000000
0.876391636000,0.014000000000
0.884079384000,0.017000000000
0.891767132000,0.022000000000
0.899454880000,0.024000000000
0.907142628000,0.029000000000
0.914830376000,0.039000000000
0.922518124000,0.049000000000
0.930205872000,0.056000000000
0.937893620000,0.061000000000
0.945581368000,0.069000000000
0.953269116000,0.076000000000
0.960956864000,0.088000000000
0.968644612000,0.103000000000
0.976332360000,0.115000000000
0.984020108000,0.130000000000
0.991707928000,0.150000000000
0.999395537000,0.157000000000
1.007083146000,0.150000000000
1.014770755000,0.152000000000
1.022458364000,0.155000000000
1.030145973000,0.140000000000
1.037833582000,0.108000000000
1.045521191000,0.073000000000
1.053208800000,0.029000000000
1.060896409000,-0.022000000000
1.068584018000,-0.061000000000
1.076271627000,-0.083000000000
1.083959236000,-0.103000000000
1.091646845000,-0.123000000000
1.099334454000,-0.130000000000
1.107022063000,-0.128000000000
1.114709672000,-0.125000000000
1.122397281000,-0.128000000000
1.130084890000,-0.123000000000
1.137772499000,-0.115000000000
1.145460108000,-0.106000000000
1.153147717000,-0.093000000000
1.160835326000,-0.088000000000
1.168522935000,-0.086000000000
1.176210544000,-0.081000000000
1.183898153000,-0.076000000000
1.191585762000,-0.081000000000
1.199273371000,-0.088000000000
1.206960980000,-0.086000000000
1.214648589000,-0.083000000000
1.222336198000,-0.086000000000
1.230023807000,-0.086000000000
1.237711416000,-0.083000000000
1.245399025000,-0.081000000000
1.253086634000,-0.081000000000
1.260774243000,-0.078000000000
1.268461852000,-0.081000000000
1.276149461000,-0.083000000000
1.283837070000,-0.081000000000
1.291524679000,-0.078000000000
1.299212288000,-0.078000000000
1.306899897000,-0.073000000000
1.314587506000,-0.073000000000
1.322275115000,-0.081000000000
1.329962724000,-0.081000000000
1.337650333000,-0.073000000000
1.345337942000,-0.076000000000
1.353025551000,-0.086000000000
1.360713160000,-0.088000000000
1.368400769000,-0.078000000000
1.376088378000,-0.061000000000
1.383775987000,-0.054000000000
1.391463596000,-0.044000000000
1.399151205000,-0.032000000000
1.406838814000,-0.032000000000
1.414526423000,-0.051000000000
1.422214032000,-0.059000000000
1.429901641000,-0.054000000000
1.437589250000,-0.056000000000
1.445276859000,-0.056000000000
1.452964468000,-0.049000000000
1.460652077000,-0.054000000000
1.468339686000,-0.073000000000
1.476027295000,-0.110000000000
1.483714904000,-0.056000000000
1.491402513000,0.283000000000
1.499090122000,0.757000000000
1.506777731000,0.764000000000
1.514465340000,0.135000000000
1.522152949000,-0.384000000000
1.529840558000,-0.310000000000
1.537528167000,-0.143000000000
1.545215776000,-0.177000000000
1.552903430000,-0.147000000000
1.560591109000,-0.064000000000
1.568278788000,-0.073000000000
1.575966467000,-0.081000000000
1.583654146000,-0.054000000000
1.591341825000,-0.046000000000
1.599029504000,-0.046000000000
1.606717183000,-0.036000000000
1.614404862000,-0.032000000000
1.622092541000,-0.032000000000
1.629780220000,-0.022000000000
1.637467899000,-0.014000000000
1.645155578000,-0.019000000000
1.652843257000,-0.017000000000
1.660530936000,-0.002000000000
1.668218615000,0.002000000000
1.675906294000,0.000000000000
1.683593973000,0.007000000000
1.691281652000,0.024000000000
1.698969331000,0.029000000000
1.706657010000,0.039000000000
1.714344689000,0.054000000000
1.722032368000,0.069000000000
1.729720047000,0.078000000000
1.737407726000,0.081000000000
1.745095405000,0.086000000000
1.752783084000,0.098000000000
1.760470763000,0.113000000000
1.768158442000,0.113000000000
1.775846121000,0.096000000000
1.783533800000,0.066000000000
1.791221479000,0.029000000000
1.798909158000,-0.007000000000
1.806596837000,-0.041000000000
1.814284516000,-0.071000000000
1.821972195000,-0.096000000000
1.829659874000,-0.110000000000
1.837347553000,-0.115000000000
1.845035232000,-0.115000000000
1.852722911000,-0.120000000000
1.860410590000,-0.115000000000
1.868098269000,-0.108000000000
1.875785948000,-0.108000000000
1.883473627000,-0.108000000000
1.891161306000,-0.101000000000
1.898848985000,-0.093000000000
1.906536664000,-0.093000000000
1.914224343000,-0.096000000000
1.921912022000,-0.091000000000
1.929599701000,-0.086000000000
1.937287380000,-0.086000000000
1.944975059000,-0.091000000000
1.952662738000,-0.093000000000
1.960350417000,-0.091000000000
1.968038096000,-0.091000000000
1.975725775000,-0.096000000000
1.983413454000,-0.093000000000
1.991101133000,-0.093000000000
1.998788812000,-0.096000000000
2.006476491000,-0.093000000000
2.014164170000,-0.088000000000
2.021851849000,-0.086000000000
2.029539528000,-0.086000000000
2.037227207000,-0.093000000000
2.044914886000,-0.106000000000
2.052602565000,-0.106000000000
2.060290244000,-0.096000000000
2.067977923000,-0.088000000000
2.075665602000,-0.073000000000
2.083353281000,-0.064000000000
2.091040960000,-0.051000000000
2.098728639000,-0.049000000000
2.106416318000,-0.064000000000
2.114104015000,-0.076000000000
2.121791973000,-0.076000000000
2.129479931000,-0.073000000000
2.137167889000,-0.076000000000
2.144855847000,-0.076000000000
2.152543805000,-0.069000000000
2.160231763000,-0.064000000000
2.167919721000,-0.086000000000
2.175607679000,-0.118000000000
2.183295637000,0.017000000000
2.190983595000,0.446000000000
2.198671553000,0.803000000000
2.206359511000,0.527000000000
2.214047469000,-0.170000000000
2.221735427000,-0.448000000000
2.229423385000,-0.249000000000
2.237111343000,-0.162000000000
2.244799301000,-0.189000000000
2.252487259000,-0.103000000000
2.260175217000,-0.056000000000
2.267863175000,-0.083000000000
2.275551133000,-0.069000000000
2.283239091000,-0.046000000000
2.290927049000,-0.051000000000
2.298615007000,-0.049000000000
2.306302965000,-0.036000000000
2.313990923000,-0.032000000000
2.321678881000,-0.024000000000
2.329366839000,-0.022000000000
2.337054797000,-0.019000000000
2.344742755000,-0.007000000000
2.352430713000,-0.004000000000
2.360118671000,-0.009000000000
2.367806629000,-0.002000000000
2.375494587000,0.012000000000
2.383182545000,0.027000000000
2.390870503000,0.036000000000
2.398558461000,0.044000000000
2.406246419000,0.054000000000
2.413934377000,0.071000000000
2.421622335000,0.086000000000
2.429310293000,0.098000000000
2.436998251000,0.103000000000
2.444686209000,0.110000000000
2.452374167000,0.120000000000
2.460062125000,0.120000000000
2.467750083000,0.101000000000
2.475438041000,0.069000000000
2.483125999000,0.034000000000
2.490813957000,-0.002000000000
2.498501915000,-0.039000000000
2.506189873000,-0.073000000000
2.513877831000,-0.098000000000
2.521565789000,-0.115000000000
2.529253747000,-0.128000000000
2.536941705000,-0.130000000000
2.544629663000,-0.125000000000
2.552317621000,-0.120000000000
2.560005579000,-0.118000000000
2.567693537000,-0.115000000000
2.575381495000,-0.110000000000
2.583069453000,-0.106000000000
2.590757411000,-0.103000000000
2.598445369000,-0.101000000000
2.606133327000,-0.093000000000
2.613821285000,-0.091000000000
2.621509243000,-0.093000000000
2.629197201000,-0.093000000000
2.636885159000,-0.091000000000
2.644573117000,-0.091000000000
2.652261075000,-0.083000000000
2.659949033000,-0.081000000000
2.667636991000,-0.081000000000
2.675324952000,-0.081000000000
2.683012561000,-0.083000000000
2.690700170000,-0.081000000000
2.698387779000,-0.078000000000
2.706075388000,-0.083000000000
2.713762997000,-0.091000000000
2.721450606000,-0.096000000000
2.729138215000,-0.088000000000
2.736825824000,-0.078000000000
2.744513433000,-0.073000000000
2.752201042000,-0.066000000000
2.759888651000,-0.049000000000
2.767576260000,-0.027000000000
2.775263869000,-0.024000000000
2.782951478000,-0.044000000000
2.790639087000,-0.056000000000
2.798326696000,-0.059000000000
2.806014305000,-0.051000000000
2.813701914000,-0.039000000000
2.821389523000,-0.041000000000
2.829077132000,-0.046000000000
2.836764741000,-0.049000000000
2.844452350000,-0.066000000000
2.852139959000,-0.069000000000
2.859827568000,0.140000000000
2.867515177000,0.613000000000
2.875202786000,0.828000000000
2.882890395000,0.335000000000
2.890578004000,-0.318000000000
2.898265613000,-0.389000000000
2.905953222000,-0.162000000000
2.913640831000,-0.140000000000
2.921328440000,-0.138000000000
2.929016049000,-0.034000000000
2.936703658000,-0.017000000000
2.944391267000,-0.044000000000
2.952078876000,-0.009000000000
2.959766485000,0.014000000000
2.967454094000,0.002000000000
2.975141703000,0.002000000000
2.982829312000,0.017000000000
2.990516921000,0.022000000000
2.998204530000,0.027000000000
3.005892139000,0.032000000000
3.013579748000,0.039000000000
3.021267357000,0.049000000000
3.028954966000,0.051000000000
3.036642575000,0.056000000000
3.044330184000,0.073000000000
3.052017793000,0.081000000000
3.059705402000,0.088000000000
3.067393011000,0.103000000000
3.075080620000,0.113000000000
3.082768229000,0.125000000000
3.090455838000,0.147000000000
3.098143447000,0.162000000000
3.105831056000,0.165000000000
3.113518665000,0.170000000000
3.121206274000,0.177000000000
3.128893883000,0.177000000000
3.136581492000,0.170000000000
3.144269101000,0.152000000000
3.151956710000,0.123000000000
3.159644319000,0.073000000000
3.167331928000,0.029000000000
3.175019537000,-0.002000000000
3.182707146000,-0.034000000000
3.190394755000,-0.069000000000
3.198082364000,-0.093000000000
3.205769973000,-0.103000000000
3.213457582000,-0.108000000000
3.221145191000,-0.101000000000
3.228832800000,-0.088000000000
3.236520454000,-0.078000000000
3.244208063000,-0.076000000000
3.251895672000,-0.073000000000
3.259583281000,-0.069000000000
3.267270890000,-0.061000000000
3.274958499000,-0.064000000000
3.282646108000,-0.069000000000
3.290333717000,-0.056000000000
3.298021326000,-0.054000000000
3.305708935000,-0.064000000000
3.313396544000,-0.064000000000
3.321084153000,-0.059000000000
3.328771762000,-0.064000000000
3.336459371000,-0.066000000000
3.344146980000,-0.051000000000
3.351834589000,-0.044000000000
3.359522198000,-0.061000000000
3.367209807000,-0.078000000000
3.374897416000,-0.073000000000
3.382585025000,-0.071000000000
3.390272634000,-0.076000000000
3.397960243000,-0.069000000000
3.405647852000,-0.056000000000
3.413335461000,-0.044000000000
3.421023070000,-0.024000000000
3.428710679000,-0.024000000000
3.436398288000,-0.049000000000
3.444085897000,-0.056000000000
3.451773506000,-0.054000000000
3.459461115000,-0.054000000000
3.467148724000,-0.051000000000
3.474836333000,-0.041000000000
3.482523942000,-0.039000000000
3.490211551000,-0.051000000000
3.497899160000,-0.078000000000
3.505586769000,-0.061000000000
3.513274378000,0.192000000000
3.520961987000,0.670000000000
3.528649596000,0.774000000000
3.536337205000,0.155000000000
3.544024814000,-0.463000000000
3.551712423000,-0.431000000000
3.559400032000,-0.207000000000
3.567087641000,-0.209000000000
3.574775250000,-0.170000000000
3.582462859000,-0.046000000000
3.590150468000,-0.024000000000
3.597838077000,-0.041000000000
3.605525686000,-0.014000000000
3.613213295000,0.000000000000
3.620900904000,-0.012000000000
3.628588513000,-0.002000000000
3.636276122000,0.007000000000
3.643963731000,0.004000000000
3.651651340000,0.012000000000
3.659338949000,0.022000000000
3.667026558000,0.022000000000
3.674714167000,0.029000000000
3.682401776000,0.036000000000
3.690089385000,0.046000000000
3.697776994000,0.056000000000
3.705464603000,0.073000000000
3.713152212000,0.086000000000
3.720839821000,0.086000000000
3.728527430000,0.106000000000
3.736215039000,0.138000000000
3.743902648000,0.140000000000
3.751590257000,0.130000000000
3.759277866000,0.147000000000
3.766965475000,0.165000000000
3.774653084000,0.160000000000
3.782340693000,0.150000000000
3.790028302000,0.150000000000
3.797715956000,0.125000000000
3.805403774000,0.076000000000
3.813091592000,0.024000000000
3.820779410000,-0.022000000000
3.828467228000,-0.069000000000
3.836155046000,-0.103000000000
3.843842864000,-0.123000000000
3.851530682000,-0.133000000000
3.859218500000,-0.143000000000
3.866906318000,-0.145000000000
3.874594136000,-0.140000000000
3.882281954000,-0.128000000000
3.889969772000,-0.123000000000
3.897657590000,-0.125000000000
3.905345408000,-0.120000000000
3.913033226000,-0.106000000000
3.920721044000,-0.098000000000
3.928408862000,-0.098000000000
3.936096680000,-0.098000000000
3.943784498000,-0.096000000000
3.951472316000,-0.088000000000
3.959160134000,-0.091000000000
3.966847952000,-0.093000000000
3.974535770000,-0.096000000000
3.982223588000,-0.096000000000
3.989911406000,-0.096000000000
3.997599224000,-0.098000000000
4.005287042000,-0.101000000000
4.012974860000,-0.103000000000
4.020662678000,-0.115000000000
4.028350496000,-0.110000000000
4.036038314000,-0.091000000000
4.043726132000,-0.093000000000
4.051413950000,-0.096000000000
4.059101768000,-0.069000000000
4.066789586000,-0.064000000000
4.074477404000,-0.088000000000
4.082165222000,-0.093000000000
4.089853040000,-0.083000000000
4.097540858000,-0.086000000000
4.105228676000,-0.091000000000
4.112916494000,-0.086000000000
4.120604312000,-0.088000000000
4.128292130000,-0.103000000000
4.135979948000,-0.115000000000
4.143667766000,0.024000000000
4.151355584000,0.456000000000
4.159043402000,0.784000000000
4.166731220000,0.409000000000
4.174419038000,-0.342000000000
4.182106856000,-0.574000000000
4.189794674000,-0.323000000000
4.197482492000,-0.221000000000
4.205170310000,-0.241000000000
4.212858128000,-0.143000000000
4.220545946000,-0.066000000000
4.228233764000,-0.081000000000
4.235921582000,-0.076000000000
4.243609400000,-0.049000000000
4.251297218000,-0.049000000000
4.258985036000,-0.054000000000
4.266672854000,-0.044000000000
4.274360672000,-0.029000000000
4.282048490000,-0.024000000000
4.289736308000,-0.029000000000
4.297424126000,-0.027000000000
4.305111944000,-0.017000000000
4.312799762000,-0.004000000000
4.320487580000,0.004000000000
4.328175398000,0.004000000000
4.335863216000,0.007000000000
4.343551034000,0.022000000000
4.351238852000,0.039000000000
4.358926715000,0.041000000000
4.366614254000,0.054000000000
4.374301793000,0.076000000000
4.381989332000,0.078000000000
4.389676871000,0.083000000000
4.397364410000,0.101000000000
4.405051949000,0.106000000000
4.412739488000,0.101000000000
4.420427027000,0.098000000000
4.428114566000,0.081000000000
4.435802105000,0.046000000000
4.443489644000,0.002000000000
4.451177183000,-0.039000000000
4.458864722000,-0.088000000000
4.466552261000,-0.125000000000
4.474239800000,-0.145000000000
4.481927339000,-0.157000000000
4.489614878000,-0.167000000000
4.497302417000,-0.165000000000
4.504989956000,-0.157000000000
4.512677495000,-0.155000000000
4.520365034000,-0.147000000000
4.528052573000,-0.145000000000
4.535740112000,-0.147000000000
4.543427651000,-0.140000000000
4.551115190000,-0.128000000000
4.558802729000,-0.123000000000
4.566490268000,-0.120000000000
4.574177807000,-0.120000000000
4.581865346000,-0.115000000000
4.589552885000,-0.115000000000
4.597240424000,-0.120000000000
4.604927963000,-0.118000000000
4.612615502000,-0.118000000000
4.620303041000,-0.120000000000
4.627990580000,-0.118000000000
4.635678119000,-0.120000000000
4.643365658000,-0.123000000000
4.651053197000,-0.120000000000
4.658740736000,-0.123000000000
4.666428275000,-0.133000000000
4.674115814000,-0.133000000000
4.681803353000,-0.130000000000
4.689490892000,-0.133000000000
4.697178431000,-0.128000000000
4.704865970000,-0.110000000000
4.712553509000,-0.103000000000
4.720241048000,-0.098000000000
4.727928587000,-0.088000000000
4.735616126000,-0.096000000000
4.743303665000,-0.108000000000
4.750991204000,-0.106000000000
4.758678743000,-0.110000000000
4.766366282000,-0.115000000000
4.774053821000,-0.103000000000
4.781741360000,-0.101000000000
4.789428899000,-0.106000000000
4.797116438000,-0.120000000000
4.804803977000,-0.162000000000
4.812491516000,-0.071000000000
4.820179055000,0.332000000000
4.827866594000,0.759000000000
4.835554133000,0.611000000000
4.843241672000,-0.066000000000
4.850929211000,-0.456000000000
4.858616750000,-0.298000000000
4.866304289000,-0.184000000000
4.873991828000,-0.231000000000
4.881679367000,-0.167000000000
4.889366906000,-0.098000000000
4.897054445000,-0.123000000000
4.904741984000,-0.118000000000
4.912429523000,-0.091000000000
4.920117130000,-0.091000000000
4.927805087000,-0.091000000000
4.935493044000,-0.073000000000
4.943181001000,-0.066000000000
4.950868958000,-0.073000000000
4.958556915000,-0.076000000000
4.966244872000,-0.069000000000
4.973932829000,-0.056000000000
4.981620786000,-0.056000000000
4.989308743000,-0.054000000000
4.996996700000,-0.039000000000
5.004684657000,-0.032000000000
5.012372614000,-0.036000000000
5.020060571000,-0.029000000000
5.027748528000,-0.012000000000
5.035436485000,0.002000000000
5.043124442000,0.014000000000
5.050812399000,0.024000000000
5.058500356000,0.032000000000
5.066188313000,0.041000000000
5.073876270000,0.049000000000
5.081564227000,0.054000000000
5.089252184000,0.056000000000
5.096940141000,0.054000000000
5.104628098000,0.039000000000
5.112316055000,0.002000000000
5.120004012000,-0.041000000000
5.127691969000,-0.071000000000
5.135379926000,-0.096000000000
5.143067883000,-0.123000000000
5.150755840000,-0.138000000000
5.158443797000,-0.140000000000
5.166131754000,-0.143000000000
5.173819711000,-0.140000000000
5.181507668000,-0.135000000000
5.189195625000,-0.135000000000
5.196883582000,-0.133000000000
5.204571539000,-0.133000000000
5.212259496000,-0.133000000000
5.219947453000,-0.130000000000
5.227635410000,-0.128000000000
5.235323367000,-0.123000000000
5.243011324000,-0.115000000000
5.250699281000,-0.120000000000
5.258387238000,-0.125000000000
5.266075195000,-0.120000000000
5.273763152000,-0.118000000000
5.281451109000,-0.123000000000
5.289139066000,-0.125000000000
5.296827023000,-0.123000000000
5.304514980000,-0.115000000000
5.312202937000,-0.108000000000
5.319890894000,-0.110000000000
5.327578851000,-0.118000000000
5.335266808000,-0.118000000000
5.342954765000,-0.110000000000
5.350642722000,-0.108000000000
5.358330679000,-0.108000000000
5.366018636000,-0.106000000000
5.373706593000,-0.106000000000
5.381394550000,-0.106000000000
5.389082507000,-0.103000000000
5.396770464000,-0.103000000000
5.404458421000,-0.101000000000
5.412146378000,-0.091000000000
5.419834335000,-0.086000000000
5.427522292000,-0.098000000000
5.435210249000,-0.106000000000
5.442898206000,-0.103000000000
5.450586163000,-0.098000000000
5.458274120000,-0.096000000000
5.465962077000,-0.088000000000
5.473650034000,-0.086000000000
5.481338063000,-0.081000000000
5.489025602000,-0.061000000000
5.496713141000,-0.049000000000
5.504400680000,-0.066000000000
5.512088219000,-0.081000000000
5.519775758000,-0.078000000000
5.527463297000,-0.081000000000
5.535150836000,-0.081000000000
5.542838375000,-0.076000000000
5.550525914000,-0.078000000000
5.558213453000,-0.088000000000
5.565900992000,-0.113000000000
5.573588531000,-0.120000000000
5.581276070000,0.061000000000
5.588963609000,0.510000000000
5.596651148000,0.798000000000
5.604338687000,0.429000000000
5.612026226000,-0.239000000000
5.619713765000,-0.411000000000
5.627401304000,-0.204000000000
5.635088843000,-0.177000000000
5.642776382000,-0.199000000000
5.650463921000,-0.103000000000
5.658151460000,-0.078000000000
5.665838999000,-0.110000000000
5.673526538000,-0.083000000000
5.681214077000,-0.056000000000
5.688901616000,-0.071000000000
5.696589155000,-0.069000000000
5.704276694000,-0.046000000000
5.711964233000,-0.054000000000
5.719651772000,-0.056000000000
5.727339311000,-0.044000000000
5.735026850000,-0.036000000000
5.742714389000,-0.036000000000
5.750401928000,-0.036000000000
5.758089467000,-0.032000000000
5.765777006000,-0.019000000000
5.773464545000,-0.009000000000
5.781152084000,-0.002000000000
5.788839623000,0.002000000000
5.796527162000,0.012000000000
5.804214701000,0.019000000000
5.811902240000,0.029000000000
5.819589779000,0.046000000000
5.827277318000,0.056000000000
5.834964857000,0.056000000000
5.842652396000,0.066000000000
5.850339935000,0.083000000000
5.858027474000,0.083000000000
5.865715013000,0.069000000000
5.873402552000,0.056000000000
5.881090091000,0.029000000000
5.888777630000,-0.017000000000
5.896465169000,-0.051000000000
5.904152708000,-0.081000000000
5.911840247000,-0.113000000000
5.919527786000,-0.115000000000
5.927215325000,-0.113000000000
5.934902864000,-0.120000000000
5.942590403000,-0.128000000000
5.950277942000,-0.128000000000
5.957965481000,-0.123000000000
5.965653020000,-0.120000000000
5.973340559000,-0.120000000000
5.981028098000,-0.115000000000
5.988715637000,-0.110000000000
5.996403176000,-0.113000000000
6.004090715000,-0.115000000000
6.011778254000,-0.110000000000
6.019465793000,-0.101000000000
6.027153332000,-0.103000000000
6.034840871000,-0.110000000000
6.042528478000,-0.108000000000
6.050216436000,-0.103000000000
6.057904394000,-0.106000000000
6.065592352000,-0.108000000000
6.073280310000,-0.106000000000
6.080968268000,-0.098000000000
6.088656226000,-0.098000000000
6.096344184000,-0.108000000000
6.104032142000,-0.113000000000
6.111720100000,-0.103000000000
6.119408058000,-0.098000000000
6.127096016000,-0.106000000000
6.134783974000,-0.101000000000
6.142471932000,-0.091000000000
6.150159890000,-0.088000000000
6.157847848000,-0.091000000000
6.165535806000,-0.093000000000
6.173223764000,-0.086000000000
6.180911722000,-0.081000000000
6.188599680000,-0.083000000000
6.196287638000,-0.088000000000
6.203975596000,-0.088000000000
6.211663554000,-0.088000000000
6.219351512000,-0.083000000000
6.227039470000,-0.073000000000
6.234727428000,-0.073000000000
6.242415386000,-0.081000000000
6.250103344000,-0.086000000000
6.257791302000,-0.083000000000
6.265479260000,-0.083000000000
6.273167218000,-0.081000000000
6.280855176000,-0.076000000000
6.288543134000,-0.071000000000
6.296231092000,-0.069000000000
6.303919050000,-0.064000000000
6.311607008000,-0.046000000000
6.319294966000,-0.039000000000
6.326982924000,-0.059000000000
6.334670882000,-0.071000000000
6.342358840000,-0.056000000000
6.350046798000,-0.056000000000
6.357734756000,-0.066000000000
6.365422714000,-0.071000000000
6.373110672000,-0.073000000000
6.380798630000,-0.081000000000
6.388486588000,-0.098000000000
6.396174546000,-0.049000000000
6.403862504000,0.263000000000
6.411550462000,0.702000000000
6.419238420000,0.638000000000
6.426926378000,-0.039000000000
6.434614336000,-0.507000000000
6.442302294000,-0.367000000000
6.449990252000,-0.192000000000
6.457678210000,-0.219000000000
6.465366168000,-0.155000000000
6.473054126000,-0.046000000000
6.480742084000,-0.061000000000
6.488430042000,-0.083000000000
6.496118000000,-0.049000000000
6.503805958000,-0.044000000000
6.511493916000,-0.049000000000
6.519181874000,-0.027000000000
6.526869832000,-0.014000000000
6.534557790000,-0.022000000000
6.542245748000,-0.022000000000
6.549933706000,-0.014000000000
6.557621664000,-0.014000000000
6.565309622000,-0.009000000000
6.572997580000,0.002000000000
6.580685538000,0.009000000000
6.588373496000,0.014000000000
6.596061454000,0.022000000000
6.603749415000,0.034000000000
6.611436954000,0.039000000000
6.619124493000,0.044000000000
6.626812032000,0.046000000000
6.634499571000,0.069000000000
6.642187110000,0.098000000000
6.649874649000,0.103000000000
6.657562188000,0.098000000000
6.665249727000,0.101000000000
6.672937266000,0.091000000000
6.680624805000,0.083000000000
6.688312344000,0.086000000000
6.695999883000,0.071000000000
6.703687422000,0.027000000000
6.711374961000,-0.012000000000
6.719062500000,-0.044000000000
6.726750039000,-0.076000000000
6.734437578000,-0.106000000000
6.742125117000,-0.128000000000
6.749812656000,-0.138000000000
6.757500195000,-0.140000000000
6.765187734000,-0.133000000000
6.772875273000,-0.120000000000
6.780562812000,-0.123000000000
6.788250351000,-0.128000000000
6.795937890000,-0.120000000000
6.803625429000,-0.108000000000
6.811312968000,-0.101000000000
6.819000507000,-0.093000000000
6.826688046000,-0.086000000000
6.834375585000,-0.088000000000
6.842063124000,-0.091000000000
6.849750663000,-0.083000000000
6.857438202000,-0.081000000000
6.865125741000,-0.086000000000
6.872813280000,-0.088000000000
6.880500819000,-0.088000000000
6.888188358000,-0.091000000000
6.895875897000,-0.093000000000
6.903563436000,-0.091000000000
6.911250975000,-0.096000000000
6.918938514000,-0.103000000000
6.926626053000,-0.101000000000
6.934313592000,-0.093000000000
6.942001131000,-0.088000000000
6.949688670000,-0.086000000000
6.957376209000,-0.086000000000
6.965063748000,-0.096000000000
6.972751287000,-0.093000000000
6.980438826000,-0.078000000000
6.988126365000,-0.076000000000
6.995813904000,-0.081000000000
7.003501443000,-0.081000000000
7.011188982000,-0.081000000000
7.018876521000,-0.081000000000
7.026564060000,-0.076000000000
7.034251599000,-0.073000000000
7.041939138000,-0.076000000000
7.049626677000,-0.073000000000
7.057314216000,-0.071000000000
7.065001755000,-0.078000000000
7.072689294000,-0.086000000000
7.080376833000,-0.078000000000
7.088064372000,-0.056000000000
7.095751911000,-0.049000000000
7.103439450000,-0.051000000000
7.111126989000,-0.044000000000
7.118814528000,-0.036000000000
7.126502067000,-0.049000000000
7.134189606000,-0.061000000000
7.141877145000,-0.064000000000
7.149564684000,-0.064000000000
7.157252223000,-0.059000000000
7.164939830000,-0.054000000000
7.172627578000,-0.051000000000
7.180315326000,-0.066000000000
7.188003074000,-0.108000000000
7.195690822000,-0.081000000000
7.203378570000,0.214000000000
7.211066318000,0.680000000000
7.218754066000,0.739000000000
7.226441814000,0.133000000000
7.234129562000,-0.441000000000
7.241817310000,-0.399000000000
7.249505058000,-0.187000000000
7.257192806000,-0.199000000000
7.264880554000,-0.172000000000
7.272568302000,-0.066000000000
7.280256050000,-0.059000000000
7.287943798000,-0.073000000000
7.295631546000,-0.046000000000
7.303319294000,-0.036000000000
7.311007042000,-0.041000000000
7.318694790000,-0.032000000000
7.326382538000,-0.019000000000
7.334070286000,-0.024000000000
7.341758034000,-0.027000000000
7.349445782000,-0.017000000000
7.357133530000,-0.009000000000
7.364821278000,-0.007000000000
7.372509026000,0.000000000000
7.380196774000,0.002000000000
7.387884522000,0.007000000000
7.395572270000,0.014000000000
7.403260018000,0.022000000000
7.410947766000,0.032000000000
7.418635514000,0.034000000000
7.426323262000,0.041000000000
7.434011010000,0.056000000000
7.441698758000,0.071000000000
7.449386506000,0.078000000000
7.457074254000,0.086000000000
7.464762002000,0.086000000000
7.472449750000,0.083000000000
7.480137498000,0.088000000000
7.487825246000,0.081000000000
7.495512994000,0.061000000000
7.503200742000,0.029000000000
7.510888490000,-0.007000000000
7.518576238000,-0.046000000000
7.526263986000,-0.078000000000
7.533951734000,-0.098000000000
7.541639482000,-0.110000000000
7.549327230000,-0.125000000000
7.557014978000,-0.133000000000
7.564702726000,-0.128000000000
7.572390474000,-0.118000000000
7.580078222000,-0.113000000000
7.587765970000,-0.110000000000
7.595453718000,-0.106000000000
7.603141466000,-0.096000000000
7.610829214000,-0.096000000000
7.618516962000,-0.098000000000
7.626204710000,-0.093000000000
7.633892458000,-0.081000000000
7.641580206000,-0.086000000000
7.649267954000,-0.096000000000
7.656955702000,-0.091000000000
7.664643450000,-0.083000000000
7.672331198000,-0.088000000000
7.680018946000,-0.093000000000
7.687706694000,-0.093000000000
7.695394442000,-0.088000000000
7.703082190000,-0.091000000000
7.710769938000,-0.091000000000
7.718457686000,-0.086000000000
7.726145506000,-0.086000000000
7.733833254000,-0.093000000000
7.741521002000,-0.093000000000
7.749208750000,-0.086000000000
7.756896498000,-0.083000000000
7.764584246000,-0.083000000000
7.772271994000,-0.086000000000
7.779959742000,-0.086000000000
7.787647490000,-0.086000000000
7.795335238000,-0.086000000000
7.803022986000,-0.081000000000
7.810710734000,-0.078000000000
7.818398482000,-0.083000000000
7.826086230000,-0.078000000000
7.833773978000,-0.071000000000
7.841461726000,-0.078000000000
7.849149474000,-0.078000000000
7.856837222000,-0.071000000000
7.864524970000,-0.073000000000
7.872212718000,-0.073000000000
7.879900466000,-0.069000000000
7.887588214000,-0.071000000000
7.895275962000,-0.081000000000
7.902963710000,-0.083000000000
7.910651458000,-0.083000000000
7.918339206000,-0.081000000000
7.926026954000,-0.073000000000
7.933714702000,-0.061000000000
7.941402450000,-0.046000000000
7.949090198000,-0.032000000000
7.956777946000,-0.034000000000
7.964465694000,-0.061000000000
7.972153442000,-0.071000000000
7.979841190000,-0.056000000000
7.987528938000,-0.061000000000
7.995216686000,-0.073000000000
8.002904434000,-0.069000000000
8.010592182000,-0.059000000000
8.018279930000,-0.071000000000
8.025967678000,-0.106000000000
8.033655426000,-0.061000000000
8.041343174000,0.253000000000
8.049030922000,0.717000000000
8.056718670000,0.766000000000
8.064406418000,0.184000000000
8.072094166000,-0.342000000000
8.079781914000,-0.305000000000
8.087469662000,-0.150000000000
8.095157410000,-0.182000000000
8.102845158000,-0.150000000000
8.110532906000,-0.071000000000
8.118220654000,-0.088000000000
8.125908402000,-0.098000000000
8.133596150000,-0.061000000000
8.141283898000,-0.054000000000
8.148971646000,-0.059000000000
8.156659394000,-0.051000000000
8.164347142000,-0.056000000000
8.172034890000,-0.054000000000
8.179722638000,-0.032000000000
8.187410386000,-0.024000000000
8.195098134000,-0.032000000000
8.202785882000,-0.034000000000
8.210473630000,-0.024000000000
8.218161378000,-0.017000000000
8.225849126000,-0.012000000000
8.233536874000,-0.007000000000
8.241224622000,0.000000000000
8.248912370000,0.012000000000
8.256600118000,0.022000000000
8.264287866000,0.027000000000
8.271975614000,0.029000000000
8.279663362000,0.039000000000
8.287351178000,0.059000000000
8.295038717000,0.071000000000
8.302726256000,0.066000000000
8.310413795000,0.066000000000
8.318101334000,0.078000000000
8.325788873000,0.073000000000
8.333476412000,0.046000000000
8.341163951000,0.012000000000
8.348851490000,-0.019000000000
8.356539029000,-0.049000000000
8.364226568000,-0.076000000000
8.371914107000,-0.098000000000
8.379601646000,-0.113000000000
8.387289185000,-0.118000000000
8.394976724000,-0.123000000000
8.402664263000,-0.120000000000
8.410351802000,-0.120000000000
8.418039341000,-0.120000000000
8.425726880000,-0.118000000000
8.433414419000,-0.113000000000
8.441101958000,-0.106000000000
8.448789497000,-0.101000000000
8.456477036000,-0.098000000000
8.464164575000,-0.101000000000
8.471852114000,-0.103000000000
8.479539653000,-0.096000000000
8.487227192000,-0.093000000000
8.494914731000,-0.093000000000
8.502602270000,-0.093000000000
8.510289809000,-0.091000000000
8.517977348000,-0.088000000000
8.525664887000,-0.088000000000
8.533352426000,-0.091000000000
8.541039965000,-0.091000000000
8.548727504000,-0.093000000000
8.556415043000,-0.091000000000
8.564102582000,-0.083000000000
8.571790121000,-0.083000000000
8.579477660000,-0.086000000000
8.587165199000,-0.078000000000
8.594852738000,-0.076000000000
8.602540277000,-0.078000000000
8.610227816000,-0.073000000000
8.617915355000,-0.073000000000
8.625602894000,-0.078000000000
8.633290433000,-0.078000000000
8.640977972000,-0.073000000000
8.648665511000,-0.069000000000
8.656353050000,-0.069000000000
8.664040589000,-0.069000000000
8.671728128000,-0.066000000000
8.679415667000,-0.066000000000
8.687103206000,-0.064000000000
8.694790745000,-0.056000000000
8.702478284000,-0.059000000000
8.710165823000,-0.059000000000
8.717853362000,-0.061000000000
8.725540901000,-0.061000000000
8.733228440000,-0.061000000000
8.740915979000,-0.061000000000
8.748603518000,-0.061000000000
8.756291057000,-0.051000000000
8.763978596000,-0.044000000000
8.771666135000,-0.039000000000
8.779353674000,-0.024000000000
8.787041213000,-0.007000000000
8.794728752000,-0.019000000000
8.802416291000,-0.036000000000
8.810103830000,-0.034000000000
8.817791369000,-0.039000000000
8.825478908000,-0.049000000000
8.833166447000,-0.044000000000
8.840853986000,-0.034000000000
8.848541593000,-0.036000000000
8.856229551000,-0.061000000000
8.863917509000,-0.076000000000
8.871605467000,0.056000000000
8.879293425000,0.461000000000
8.886981383000,0.813000000000
8.894669341000,0.569000000000
8.902357299000,-0.103000000000
8.910045257000,-0.392000000000
8.917733215000,-0.207000000000
8.925421173000,-0.128000000000
8.933109131000,-0.160000000000
8.940797089000,-0.076000000000
8.948485047000,-0.022000000000
8.956173005000,-0.054000000000
8.963860963000,-0.051000000000
8.971548921000,-0.024000000000
8.979236879000,-0.022000000000
8.986924837000,-0.014000000000
8.994612795000,0.000000000000
9.002300753000,-0.002000000000
9.009988711000,-0.002000000000
9.017676669000,0.012000000000
9.025364627000,0.019000000000
9.033052585000,0.014000000000
9.040740543000,0.019000000000
9.048428501000,0.032000000000
9.056116459000,0.036000000000
9.063804417000,0.039000000000
9.071492375000,0.044000000000
9.079180333000,0.051000000000
9.086868291000,0.061000000000
9.094556249000,0.073000000000
9.102244207000,0.088000000000
9.109932165000,0.106000000000
9.117620123000,0.118000000000
9.125308081000,0.118000000000
9.132996039000,0.118000000000
9.140683997000,0.128000000000
9.148371955000,0.128000000000
9.156059913000,0.115000000000
9.163747871000,0.101000000000
9.171435829000,0.078000000000
9.179123787000,0.046000000000
9.186811745000,0.007000000000
9.194499703000,-0.032000000000
9.202187661000,-0.059000000000
9.209875619000,-0.076000000000
9.217563577000,-0.091000000000
9.225251535000,-0.091000000000
9.232939493000,-0.086000000000
9.240627451000,-0.086000000000
9.248315409000,-0.091000000000
9.256003367000,-0.088000000000
9.263691325000,-0.081000000000
9.271379283000,-0.083000000000
9.279067241000,-0.083000000000
9.286755199000,-0.071000000000
9.294443157000,-0.066000000000
9.302131115000,-0.073000000000
9.309819073000,-0.069000000000
9.317507031000,-0.066000000000
9.325194989000,-0.078000000000
9.332882947000,-0.073000000000
9.340570905000,-0.064000000000
9.348258863000,-0.066000000000
9.355946821000,-0.066000000000
9.363634779000,-0.066000000000
9.371322737000,-0.069000000000
9.379010695000,-0.066000000000
9.386698653000,-0.064000000000
9.394386611000,-0.064000000000
9.402074569000,-0.066000000000
9.409762530000,-0.069000000000
9.417450069000,-0.071000000000
9.425137608000,-0.066000000000
9.432825147000,-0.059000000000
9.440512686000,-0.059000000000
9.448200225000,-0.061000000000
9.455887764000,-0.061000000000
9.463575303000,-0.059000000000
9.471262842000,-0.059000000000
9.478950381000,-0.056000000000
9.486637920000,-0.056000000000
9.494325459000,-0.059000000000
9.502012998000,-0.056000000000
9.509700537000,-0.054000000000
9.517388076000,-0.046000000000
9.525075615000,-0.034000000000
9.532763154000,-0.041000000000
9.540450693000,-0.061000000000
9.548138232000,-0.051000000000
9.555825771000,-0.039000000000
9.563513310000,-0.046000000000
9.571200849000,-0.054000000000
9.578888388000,-0.051000000000
9.586575927000,-0.051000000000
9.594263466000,-0.054000000000
9.601951005000,-0.041000000000
9.609638544000,-0.029000000000
9.617326083000,-0.024000000000
9.625013622000,-0.012000000000
9.632701161000,-0.004000000000
9.640388700000,-0.019000000000
9.648076239000,-0.029000000000
9.655763778000,-0.032000000000
9.663451317000,-0.036000000000
9.671138856000,-0.046000000000
9.678826395000,-0.041000000000
9.686513934000,-0.027000000000
9.694201473000,-0.041000000000
9.701889012000,-0.071000000000
9.709576551000,-0.014000000000
9.717264090000,0.290000000000
9.724951629000,0.712000000000
9.732639168000,0.650000000000
9.740326707000,-0.032000000000
9.748014246000,-0.505000000000
9.755701785000,-0.352000000000
9.763389324000,-0.182000000000
9.771076863000,-0.219000000000
9.778764402000,-0.140000000000
9.786451941000,-0.024000000000
9.794139480000,-0.039000000000
9.801827019000,-0.059000000000
9.809514558000,-0.024000000000
9.817202097000,-0.017000000000
9.824889636000,-0.027000000000
9.832577175000,-0.007000000000
9.840264714000,0.012000000000
9.847952253000,-0.002000000000
9.855639792000,-0.002000000000
9.863327331000,0.017000000000
9.871014870000,0.014000000000
9.878702409000,0.009000000000
9.886389948000,0.019000000000
9.894077487000,0.032000000000
9.901765026000,0.036000000000
9.909452565000,0.046000000000
9.917140104000,0.064000000000
9.924827643000,0.066000000000
9.932515182000,0.071000000000
9.940202721000,0.093000000000
9.947890260000,0.113000000000
9.955577799000,0.118000000000
9.963265338000,0.120000000000
9.970952945000,0.123000000000
9.978640484000,0.128000000000
9.986328023000,0.135000000000
9.994015562000,0.128000000000
10.001703101000,0.101000000000
10.009390640000,0.078000000000
10.017078179000,0.051000000000
10.024765718000,0.002000000000
10.032453257000,-0.054000000000
10.040140796000,-0.086000000000
10.047828335000,-0.108000000000
10.055515874000,-0.128000000000
10.063203413000,-0.138000000000
10.070890952000,-0.135000000000
10.078578491000,-0.140000000000
10.086266030000,-0.140000000000
10.093953569000,-0.130000000000
10.101641108000,-0.123000000000
10.109328647000,-0.115000000000
10.117016186000,-0.115000000000
10.124703725000,-0.118000000000
10.132391264000,-0.103000000000
10.140078803000,-0.091000000000
10.147766342000,-0.096000000000
10.155453881000,-0.096000000000
10.163141420000,-0.091000000000
10.170828959000,-0.098000000000
10.178516498000,-0.098000000000
10.186204037000,-0.086000000000
10.193891576000,-0.086000000000
10.201579115000,-0.091000000000
10.209266654000,-0.098000000000
10.216954193000,-0.101000000000
10.224641732000,-0.098000000000
10.232329271000,-0.103000000000
10.240016810000,-0.103000000000
10.247704349000,-0.098000000000
10.255391888000,-0.096000000000
10.263079427000,-0.101000000000
10.270766966000,-0.101000000000
10.278454505000,-0.096000000000
10.286142044000,-0.088000000000
10.293829583000,-0.091000000000
10.301517122000,-0.101000000000
10.309204661000,-0.093000000000
10.316892200000,-0.083000000000
10.324579739000,-0.088000000000
10.332267278000,-0.096000000000
10.339954817000,-0.086000000000
10.347642356000,-0.083000000000
10.355329895000,-0.086000000000
10.363017434000,-0.081000000000
10.370704973000,-0.076000000000
10.378392512000,-0.083000000000
10.386080051000,-0.086000000000
10.393767590000,-0.078000000000
10.401455129000,-0.083000000000
10.409142668000,-0.093000000000
10.416830207000,-0.093000000000
10.424517746000,-0.081000000000
10.432205285000,-0.071000000000
10.439892824000,-0.069000000000
10.447580363000,-0.059000000000
10.455267902000,-0.036000000000
10.462955441000,-0.039000000000
10.470642980000,-0.071000000000
10.478330519000,-0.078000000000
10.486018058000,-0.069000000000
10.493705597000,-0.078000000000
10.501393136000,-0.083000000000
10.509080675000,-0.073000000000
10.516768214000,-0.069000000000
10.524455753000,-0.073000000000
10.532143360000,-0.096000000000
10.539831108000,-0.049000000000
10.547518856000,0.271000000000
10.555206604000,0.707000000000
10.562894352000,0.616000000000
10.570582100000,-0.078000000000
10.578269848000,-0.532000000000
10.585957596000,-0.387000000000
10.593645344000,-0.219000000000
10.601333092000,-0.236000000000
10.609020840000,-0.167000000000
10.616708588000,-0.073000000000
10.624396336000,-0.078000000000
10.632084084000,-0.081000000000
10.639771832000,-0.056000000000
10.647459580000,-0.056000000000
10.655147328000,-0.056000000000
10.662835076000,-0.044000000000
10.670522824000,-0.036000000000
10.678210572000,-0.041000000000
10.685898320000,-0.039000000000
10.693586068000,-0.032000000000
10.701273816000,-0.032000000000
10.708961564000,-0.024000000000
10.716649312000,-0.012000000000
10.724337060000,-0.007000000000
10.732024808000,-0.004000000000
10.739712556000,0.000000000000
10.747400304000,0.004000000000
10.755088052000,0.022000000000
10.762775800000,0.039000000000
10.770463548000,0.041000000000
10.778151296000,0.051000000000
10.785839044000,0.064000000000
10.793526792000,0.071000000000
10.801214540000,0.076000000000
10.808902288000,0.083000000000
10.816590036000,0.086000000000
10.824277784000,0.081000000000
10.831965532000,0.071000000000
10.839653280000,0.046000000000
10.847341028000,0.012000000000
10.855028776000,-0.027000000000
10.862716524000,-0.066000000000
10.870404272000,-0.101000000000
10.878092020000,-0.133000000000
10.885779768000,-0.152000000000
10.893467516000,-0.145000000000
10.901155264000,-0.147000000000
10.908843012000,-0.167000000000
10.916530760000,-0.165000000000
10.924218508000,-0.145000000000
10.931906256000,-0.138000000000
10.939594004000,-0.138000000000
10.947281752000,-0.138000000000
10.954969500000,-0.135000000000
10.962657248000,-0.123000000000
10.970344996000,-0.115000000000
10.978032744000,-0.118000000000
10.985720492000,-0.115000000000
10.993408240000,-0.110000000000
11.001095988000,-0.113000000000
11.008783736000,-0.113000000000
11.016471484000,-0.115000000000
11.024159232000,-0.115000000000
11.031846980000,-0.115000000000
11.039534728000,-0.113000000000
11.047222476000,-0.115000000000
11.054910224000,-0.118000000000
11.062597972000,-0.113000000000
11.070285720000,-0.108000000000
11.077973468000,-0.108000000000
11.085661216000,-0.106000000000
11.093349036000,-0.098000000000
11.101036784000,-0.103000000000
11.108724532000,-0.110000000000
11.116412280000,-0.103000000000
11.124100028000,-0.103000000000
11.131787776000,-0.115000000000
11.139475524000,-0.115000000000
11.147163272000,-0.106000000000
11.154851020000,-0.098000000000
11.162538768000,-0.096000000000
11.170226516000,-0.096000000000
11.177914264000,-0.096000000000
11.185602012000,-0.091000000000
11.193289760000,-0.088000000000
11.200977508000,-0.088000000000
11.208665256000,-0.091000000000
11.216353004000,-0.096000000000
11.224040752000,-0.093000000000
11.231728500000,-0.086000000000
11.239416248000,-0.086000000000
11.247103996000,-0.086000000000
11.254791744000,-0.086000000000
11.262479492000,-0.096000000000
11.270167240000,-0.101000000000
11.277854988000,-0.086000000000
11.285542736000,-0.076000000000
11.293230484000,-0.071000000000
11.300918232000,-0.061000000000
11.308605980000,-0.054000000000
11.316293728000,-0.059000000000
11.323981476000,-0.071000000000
11.331669224000,-0.076000000000
11.339356972000,-0.071000000000
11.347044720000,-0.071000000000
11.354732468000,-0.086000000000
11.362420216000,-0.081000000000
11.370107964000,-0.071000000000
11.377795712000,-0.091000000000
11.385483460000,-0.128000000000
11.393171208000,-0.051000000000
11.400858956000,0.313000000000
11.408546704000,0.766000000000
11.416234452000,0.707000000000
11.423922200000,0.061000000000
11.431609948000,-0.387000000000
11.439297696000,-0.273000000000
11.446985444000,-0.150000000000
11.454673192000,-0.199000000000
11.462360940000,-0.150000000000
11.470048688000,-0.081000000000
11.477736436000,-0.101000000000
11.485424184000,-0.106000000000
11.493111932000,-0.076000000000
11.500799680000,-0.076000000000
11.508487428000,-0.078000000000
11.516175176000,-0.054000000000
11.523862924000,-0.049000000000
11.531550672000,-0.064000000000
11.539238420000,-0.054000000000
11.546926168000,-0.041000000000
11.554613916000,-0.049000000000
11.562301664000,-0.046000000000
11.569989412000,-0.029000000000
11.577677160000,-0.024000000000
11.585364908000,-0.022000000000
11.593052656000,-0.014000000000
11.600740404000,-0.012000000000
11.608428152000,-0.007000000000
11.616115900000,0.007000000000
11.623803648000,0.017000000000
11.631491396000,0.027000000000
11.639179144000,0.044000000000
11.646866892000,0.061000000000
11.654554708000,0.066000000000
11.662242247000,0.069000000000
11.669929786000,0.073000000000
11.677617325000,0.071000000000
11.685304864000,0.064000000000
11.692992403000,0.039000000000
11.700679942000,0.004000000000
11.708367481000,-0.029000000000
11.716055020000,-0.064000000000
11.723742559000,-0.103000000000
11.731430098000,-0.130000000000
11.739117637000,-0.130000000000
11.746805176000,-0.133000000000
11.754492715000,-0.145000000000
11.762180254000,-0.143000000000
11.769867793000,-0.135000000000
11.777555332000,-0.135000000000
11.785242871000,-0.133000000000
11.792930410000,-0.128000000000
11.800617949000,-0.125000000000
11.808305488000,-0.125000000000
11.815993027000,-0.115000000000
11.823680566000,-0.110000000000
11.831368105000,-0.118000000000
11.839055644000,-0.110000000000
11.846743183000,-0.103000000000
11.854430722000,-0.113000000000
11.862118261000,-0.115000000000
11.869805800000,-0.106000000000
11.877493339000,-0.103000000000
11.885180878000,-0.110000000000
11.892868417000,-0.115000000000
11.900555956000,-0.113000000000
11.908243495000,-0.108000000000
11.915931034000,-0.103000000000
11.923618573000,-0.098000000000
11.931306112000,-0.098000000000
11.938993651000,-0.103000000000
11.946681190000,-0.108000000000
11.954368729000,-0.106000000000
11.962056268000,-0.098000000000
11.969743807000,-0.098000000000
11.977431346000,-0.101000000000
11.985118885000,-0.098000000000
11.992806424000,-0.093000000000
12.000493963000,-0.093000000000
12.008181502000,-0.088000000000
12.015869041000,-0.086000000000
12.023556580000,-0.083000000000
12.031244119000,-0.083000000000
12.038931658000,-0.086000000000
12.046619197000,-0.091000000000
12.054306736000,-0.083000000000
12.061994275000,-0.073000000000
12.069681814000,-0.078000000000
12.077369353000,-0.081000000000
12.085056892000,-0.081000000000
12.092744431000,-0.078000000000
12.100431970000,-0.081000000000
12.108119509000,-0.091000000000
12.115807048000,-0.093000000000
12.123494587000,-0.088000000000
12.131182126000,-0.081000000000
12.138869665000,-0.073000000000
12.146557204000,-0.064000000000
12.154244743000,-0.049000000000
12.161932282000,-0.039000000000
12.169619821000,-0.054000000000
12.177307360000,-0.073000000000
12.184994899000,-0.078000000000
12.192682438000,-0.078000000000
12.200369977000,-0.073000000000
12.208057516000,-0.064000000000
12.215745123000,-0.061000000000
12.223433081000,-0.064000000000
12.231121039000,-0.083000000000
12.238808997000,-0.110000000000
12.246496955000,0.024000000000
12.254184913000,0.453000000000
12.261872871000,0.798000000000
12.269560829000,0.512000000000
12.277248787000,-0.147000000000
12.284936745000,-0.404000000000
12.292624703000,-0.239000000000
12.300312661000,-0.182000000000
12.308000619000,-0.202000000000
12.315688577000,-0.113000000000
12.323376535000,-0.071000000000
12.331064493000,-0.101000000000
12.338752451000,-0.086000000000
12.346440409000,-0.064000000000
12.354128367000,-0.069000000000
12.361816325000,-0.061000000000
12.369504283000,-0.046000000000
12.377192241000,-0.041000000000
12.384880199000,-0.039000000000
12.392568157000,-0.036000000000
12.400256115000,-0.034000000000
12.407944073000,-0.029000000000
12.415632031000,-0.024000000000
12.423319989000,-0.022000000000
12.431007947000,-0.014000000000
12.438695905000,-0.002000000000
12.446383863000,0.007000000000
12.454071821000,0.014000000000
12.461759779000,0.022000000000
12.469447737000,0.029000000000
12.477135695000,0.046000000000
12.484823653000,0.066000000000
12.492511611000,0.078000000000
12.500199569000,0.083000000000
12.507887527000,0.088000000000
12.515575485000,0.103000000000
12.523263443000,0.110000000000
12.530951401000,0.093000000000
12.538639359000,0.073000000000
12.546327317000,0.054000000000
12.554015275000,0.014000000000
12.561703233000,-0.032000000000
12.569391191000,-0.066000000000
12.577079149000,-0.091000000000
12.584767107000,-0.110000000000
12.592455065000,-0.128000000000
12.600143023000,-0.135000000000
12.607830981000,-0.135000000000
12.615518939000,-0.130000000000
12.623206897000,-0.118000000000
12.630894855000,-0.113000000000
12.638582813000,-0.113000000000
12.646270771000,-0.108000000000
12.653958729000,-0.098000000000
12.661646687000,-0.096000000000
12.669334645000,-0.088000000000
12.677022603000,-0.081000000000
12.684710561000,-0.091000000000
12.692398519000,-0.096000000000
12.700086477000,-0.081000000000
12.707774435000,-0.069000000000
12.715462393000,-0.073000000000
12.723150351000,-0.081000000000
12.730838309000,-0.081000000000
12.738526267000,-0.076000000000
12.746214225000,-0.069000000000
12.753902183000,-0.064000000000
12.761590141000,-0.064000000000
12.769278099000,-0.066000000000
12.776966060000,-0.071000000000
12.784653599000,-0.069000000000
12.792341138000,-0.064000000000
12.800028677000,-0.061000000000
12.807716216000,-0.051000000000
12.815403755000,-0.049000000000
12.823091294000,-0.056000000000
12.830778833000,-0.056000000000
12.838466372000,-0.046000000000
12.846153911000,-0.041000000000
12.853841450000,-0.029000000000
12.861528989000,-0.022000000000
12.869216528000,-0.029000000000
12.876904067000,-0.032000000000
12.884591606000,-0.024000000000
12.892279145000,-0.019000000000
12.899966684000,-0.022000000000
12.907654223000,-0.024000000000
12.915341762000,-0.022000000000
12.923029301000,-0.009000000000
12.930716840000,-0.009000000000
12.938404379000,-0.017000000000
12.946091918000,-0.019000000000
12.953779457000,-0.014000000000
12.961466996000,-0.004000000000
12.969154535000,0.014000000000
12.976842074000,0.022000000000
12.984529613000,0.032000000000
12.992217152000,0.041000000000
12.999904691000,0.022000000000
13.007592230000,0.007000000000
13.015279769000,0.012000000000
13.022967308000,0.019000000000
13.030654847000,0.019000000000
13.038342386000,0.022000000000
13.046029925000,0.024000000000
13.053717464000,0.014000000000
13.061405003000,-0.014000000000
13.069092542000,0.034000000000
13.076780081000,0.345000000000
13.084467620000,0.786000000000
13.092155159000,0.744000000000
13.099842698000,0.078000000000
13.107530237000,-0.404000000000
13.115217776000,-0.283000000000
13.122905315000,-0.115000000000
13.130592854000,-0.138000000000
13.138280393000,-0.061000000000
13.145967932000,0.041000000000
13.153655471000,0.024000000000
13.161343010000,0.024000000000
13.169030549000,0.069000000000
13.176718088000,0.066000000000
13.184405627000,0.049000000000
13.192093166000,0.071000000000
13.199780705000,0.091000000000
13.207468244000,0.081000000000
13.215155783000,0.078000000000
13.222843322000,0.096000000000
13.230530861000,0.101000000000
13.238218400000,0.101000000000
13.245905939000,0.106000000000
13.253593478000,0.115000000000
13.261281017000,0.128000000000
13.268968556000,0.140000000000
13.276656095000,0.155000000000
13.284343634000,0.162000000000
13.292031173000,0.175000000000
13.299718712000,0.197000000000
13.307406251000,0.212000000000
13.315093790000,0.221000000000
13.322781329000,0.234000000000
13.330468868000,0.246000000000
13.338156475000,0.253000000000
13.345844014000,0.239000000000
13.353531553000,0.219000000000
13.361219092000,0.212000000000
13.368906631000,0.177000000000
13.376594170000,0.118000000000
13.384281709000,0.078000000000
13.391969248000,0.046000000000
13.399656787000,-0.004000000000
13.407344326000,-0.041000000000
13.415031865000,-0.061000000000
13.422719404000,-0.073000000000
13.430406943000,-0.071000000000
13.438094482000,-0.051000000000
13.445782021000,-0.049000000000
13.453469560000,-0.059000000000
13.461157099000,-0.059000000000
13.468844638000,-0.059000000000
13.476532177000,-0.054000000000
13.484219716000,-0.034000000000
13.491907255000,-0.029000000000
13.499594794000,-0.032000000000
13.507282333000,-0.019000000000
13.514969872000,-0.017000000000
13.522657411000,-0.024000000000
13.530344950000,-0.019000000000
13.538032489000,-0.024000000000
13.545720028000,-0.034000000000
13.553407567000,-0.029000000000
13.561095106000,-0.027000000000
13.568782645000,-0.034000000000
13.576470184000,-0.036000000000
13.584157723000,-0.036000000000
13.591845262000,-0.044000000000
13.599532801000,-0.046000000000
13.607220340000,-0.039000000000
13.614907879000,-0.034000000000
13.622595418000,-0.041000000000
13.630282957000,-0.041000000000
13.637970496000,-0.034000000000
13.645658035000,-0.027000000000
13.653345574000,-0.022000000000
13.661033113000,-0.024000000000
13.668720652000,-0.034000000000
13.676408191000,-0.041000000000
13.684095730000,-0.044000000000
13.691783269000,-0.044000000000
13.699470808000,-0.041000000000
13.707158347000,-0.036000000000
13.714845886000,-0.034000000000
13.722533425000,-0.036000000000
13.730220964000,-0.024000000000
13.737908503000,-0.009000000000
13.745596042000,-0.004000000000
13.753283581000,0.000000000000
13.760971120000,-0.007000000000
13.768658659000,-0.019000000000
13.776346198000,-0.017000000000
13.784033737000,-0.024000000000
13.791721276000,-0.034000000000
13.799408815000,-0.024000000000
13.807096354000,-0.012000000000
13.814783893000,-0.024000000000
13.822471432000,-0.049000000000
13.830158971000,-0.051000000000
13.837846510000,0.096000000000
13.845534049000,0.520000000000
13.853221588000,0.816000000000
13.860909127000,0.394000000000
13.868596666000,-0.347000000000
13.876284205000,-0.520000000000
13.883971744000,-0.266000000000
13.891659283000,-0.209000000000
13.899346890000,-0.219000000000
13.907034638000,-0.076000000000
13.914722386000,-0.002000000000
13.922410134000,-0.034000000000
13.930097882000,-0.022000000000
13.937785630000,0.007000000000
13.945473378000,0.002000000000
13.953161126000,0.000000000000
13.960848874000,0.009000000000
13.968536622000,0.007000000000
13.976224370000,0.007000000000
13.983912118000,0.014000000000
13.991599866000,0.022000000000
13.999287614000,0.024000000000
14.006975362000,0.034000000000
14.014663110000,0.039000000000
14.022350858000,0.044000000000
14.030038606000,0.059000000000
14.037726354000,0.064000000000
14.045414102000,0.069000000000
14.053101850000,0.086000000000
14.060789598000,0.103000000000
14.068477346000,0.115000000000
14.076165094000,0.125000000000
14.083852842000,0.140000000000
14.091540590000,0.147000000000
14.099228338000,0.152000000000
14.106916086000,0.157000000000
14.114603834000,0.157000000000
14.122291582000,0.138000000000
14.129979330000,0.115000000000
14.137667078000,0.073000000000
14.145354826000,0.007000000000
14.153042574000,-0.041000000000
14.160730322000,-0.078000000000
14.168418070000,-0.113000000000
14.176105818000,-0.135000000000
14.183793566000,-0.145000000000
14.191481314000,-0.152000000000
14.199169062000,-0.152000000000
14.206856810000,-0.147000000000
14.214544558000,-0.143000000000
14.222232306000,-0.138000000000
14.229920054000,-0.135000000000
14.237607802000,-0.128000000000
14.245295550000,-0.115000000000
14.252983298000,-0.115000000000
14.260671046000,-0.118000000000
14.268358794000,-0.110000000000
14.276046542000,-0.106000000000
14.283734290000,-0.103000000000
14.291422038000,-0.101000000000
14.299109786000,-0.103000000000
14.306797534000,-0.108000000000
14.314485282000,-0.110000000000
14.322173030000,-0.110000000000
14.329860778000,-0.108000000000
14.337548526000,-0.108000000000
14.345236274000,-0.110000000000
14.352924022000,-0.110000000000
14.360611770000,-0.108000000000
14.368299518000,-0.110000000000
14.375987266000,-0.115000000000
14.383675014000,-0.110000000000
14.391362762000,-0.103000000000
14.399050510000,-0.101000000000
14.406738258000,-0.103000000000
14.414426006000,-0.103000000000
14.422113754000,-0.103000000000
14.429801502000,-0.103000000000
14.437489250000,-0.101000000000
14.445176998000,-0.103000000000
14.452864746000,-0.106000000000
14.460552566000,-0.103000000000
14.468240314000,-0.098000000000
14.475928062000,-0.106000000000
14.483615810000,-0.113000000000
14.491303558000,-0.110000000000
14.498991306000,-0.110000000000
14.506679054000,-0.113000000000
14.514366802000,-0.108000000000
14.522054550000,-0.093000000000
14.529742298000,-0.078000000000
14.537430046000,-0.071000000000
14.545117794000,-0.071000000000
14.552805542000,-0.086000000000
14.560493290000,-0.096000000000
14.568181038000,-0.088000000000
14.575868786000,-0.083000000000
14.583556534000,-0.093000000000
14.591244282000,-0.101000000000
14.598932030000,-0.093000000000
14.606619778000,-0.103000000000
14.614307526000,-0.143000000000
14.621995274000,-0.113000000000
14.629683022000,0.177000000000
14.637370770000,0.655000000000
14.645058518000,0.769000000000
14.652746266000,0.221000000000
14.660434014000,-0.355000000000
14.668121762000,-0.362000000000
14.675809510000,-0.194000000000
14.683497258000,-0.221000000000
14.691185006000,-0.204000000000
14.698872754000,-0.113000000000
14.706560502000,-0.113000000000
14.714248250000,-0.125000000000
14.721935998000,-0.098000000000
14.729623746000,-0.096000000000
14.737311494000,-0.101000000000
14.744999242000,-0.083000000000
14.752686990000,-0.078000000000
14.760374738000,-0.086000000000
14.768062486000,-0.083000000000
14.775750234000,-0.066000000000
14.783437982000,-0.061000000000
14.791125730000,-0.064000000000
14.798813478000,-0.061000000000
14.806501226000,-0.059000000000
14.814188974000,-0.054000000000
14.821876722000,-0.046000000000
14.829564470000,-0.036000000000
14.837252218000,-0.027000000000
14.844939966000,-0.017000000000
14.852627714000,-0.002000000000
14.860315462000,0.007000000000
14.868003210000,0.024000000000
14.875690958000,0.046000000000
14.883378706000,0.051000000000
14.891066454000,0.054000000000
14.898754202000,0.061000000000
14.906441950000,0.066000000000
14.914129698000,0.056000000000
14.921817446000,0.027000000000
14.929505194000,-0.012000000000
14.937192942000,-0.054000000000
14.944880690000,-0.091000000000
14.952568438000,-0.128000000000
14.960256186000,-0.152000000000
14.967943934000,-0.162000000000
14.975631682000,-0.170000000000
14.983319430000,-0.180000000000
14.991007178000,-0.184000000000
14.998694926000,-0.182000000000
15.006382674000,-0.177000000000
15.014070422000,-0.175000000000
15.021758238000,-0.172000000000
15.029445777000,-0.162000000000
15.037133316000,-0.155000000000
15.044820855000,-0.160000000000
15.052508394000,-0.160000000000
15.060195933000,-0.152000000000
15.067883472000,-0.150000000000
15.075571011000,-0.145000000000
15.083258550000,-0.138000000000
15.090946089000,-0.143000000000
15.098633628000,-0.147000000000
15.106321167000,-0.140000000000
15.114008706000,-0.140000000000
15.121696245000,-0.150000000000
15.129383784000,-0.140000000000
15.137071323000,-0.128000000000
15.144758862000,-0.135000000000
15.152446401000,-0.145000000000
15.160133940000,-0.138000000000
15.167821479000,-0.133000000000
15.175509018000,-0.135000000000
15.183196557000,-0.133000000000
15.190884096000,-0.128000000000
15.198571635000,-0.125000000000
15.206259174000,-0.123000000000
15.213946713000,-0.125000000000
15.221634252000,-0.125000000000
15.229321791000,-0.123000000000
15.237009330000,-0.118000000000
15.244696869000,-0.120000000000
15.252384408000,-0.123000000000
15.260071947000,-0.115000000000
15.267759486000,-0.106000000000
15.275447025000,-0.103000000000
15.283134564000,-0.108000000000
15.290822103000,-0.118000000000
15.298509642000,-0.125000000000
15.306197181000,-0.125000000000
15.313884720000,-0.115000000000
15.321572259000,-0.101000000000
15.329259798000,-0.093000000000
15.336947337000,-0.088000000000
15.344634876000,-0.076000000000
15.352322415000,-0.069000000000
15.360009954000,-0.081000000000
15.367697493000,-0.091000000000
15.375385032000,-0.096000000000
15.383072571000,-0.103000000000
15.390760110000,-0.106000000000
15.398447649000,-0.096000000000
15.406135188000,-0.091000000000
15.413822727000,-0.098000000000
15.421510266000,-0.128000000000
15.429197805000,-0.123000000000
15.436885344000,0.108000000000
15.444572883000,0.569000000000
15.452260422000,0.769000000000
15.459947961000,0.305000000000
15.467635500000,-0.318000000000
15.475323039000,-0.404000000000
15.483010578000,-0.214000000000
15.490698117000,-0.207000000000
15.498385656000,-0.204000000000
15.506073195000,-0.110000000000
15.513760734000,-0.103000000000
15.521448273000,-0.125000000000
15.529135812000,-0.093000000000
15.536823351000,-0.073000000000
15.544510890000,-0.086000000000
15.552198429000,-0.081000000000
15.559885968000,-0.066000000000
15.567573507000,-0.061000000000
15.575261046000,-0.061000000000
15.582948653000,-0.059000000000
15.590636611000,-0.046000000000
15.598324569000,-0.039000000000
15.606012527000,-0.034000000000
15.613700485000,-0.027000000000
15.621388443000,-0.022000000000
15.629076401000,-0.017000000000
15.636764359000,-0.002000000000
15.644452317000,0.009000000000
15.652140275000,0.022000000000
15.659828233000,0.032000000000
15.667516191000,0.044000000000
15.675204149000,0.061000000000
15.682892107000,0.083000000000
15.690580065000,0.093000000000
15.698268023000,0.101000000000
15.705955981000,0.103000000000
15.713643939000,0.096000000000
15.721331897000,0.083000000000
15.729019855000,0.069000000000
15.736707813000,0.032000000000
15.744395771000,-0.014000000000
15.752083729000,-0.051000000000
15.759771687000,-0.093000000000
15.767459645000,-0.133000000000
15.775147603000,-0.155000000000
15.782835561000,-0.160000000000
15.790523519000,-0.152000000000
15.798211477000,-0.157000000000
15.805899435000,-0.165000000000
15.813587393000,-0.152000000000
15.821275351000,-0.143000000000
15.828963309000,-0.143000000000
15.836651267000,-0.138000000000
15.844339225000,-0.135000000000
15.852027183000,-0.135000000000
15.859715141000,-0.125000000000
15.867403099000,-0.118000000000
15.875091057000,-0.128000000000
15.882779015000,-0.130000000000
15.890466973000,-0.113000000000
15.898154931000,-0.118000000000
15.905842889000,-0.125000000000
15.913530847000,-0.118000000000
15.921218805000,-0.118000000000
15.928906763000,-0.123000000000
15.936594721000,-0.120000000000
15.944282679000,-0.115000000000
15.951970637000,-0.108000000000
15.959658595000,-0.106000000000
15.967346553000,-0.108000000000
15.975034511000,-0.113000000000
15.982722469000,-0.113000000000
15.990410427000,-0.110000000000
15.998098385000,-0.108000000000
16.005786343000,-0.110000000000
16.013474301000,-0.108000000000
16.021162259000,-0.093000000000
16.028850217000,-0.088000000000
16.036538175000,-0.098000000000
16.044226133000,-0.096000000000
16.051914091000,-0.091000000000
16.059602049000,-0.098000000000
16.067290007000,-0.101000000000
16.074977965000,-0.086000000000
16.082665923000,-0.086000000000
16.090353881000,-0.096000000000
16.098041839000,-0.083000000000
16.105729797000,-0.069000000000
16.113417755000,-0.076000000000
16.121105713000,-0.091000000000
16.128793671000,-0.091000000000
16.136481629000,-0.088000000000
16.144169590000,-0.088000000000
16.151857129000,-0.073000000000
16.159544668000,-0.066000000000
16.167232207000,-0.059000000000
16.174919746000,-0.039000000000
16.182607285000,-0.041000000000
16.190294824000,-0.071000000000
16.197982363000,-0.073000000000
16.205669902000,-0.061000000000
16.213357441000,-0.069000000000
16.221044980000,-0.073000000000
16.228732519000,-0.069000000000
16.236420058000,-0.073000000000
16.244107597000,-0.083000000000
16.251795136000,-0.091000000000
16.259482675000,-0.069000000000
16.267170214000,0.130000000000
16.274857753000,0.562000000000
16.282545292000,0.739000000000
16.290232831000,0.221000000000
16.297920370000,-0.414000000000
16.305607909000,-0.468000000000
16.313295448000,-0.251000000000
16.320982987000,-0.219000000000
16.328670526000,-0.194000000000
16.336358065000,-0.073000000000
16.344045604000,-0.039000000000
16.351733143000,-0.064000000000
16.359420682000,-0.041000000000
16.367108221000,-0.017000000000
16.374795760000,-0.019000000000
16.382483299000,-0.014000000000
16.390170838000,-0.007000000000
16.397858377000,-0.002000000000
16.405545916000,0.002000000000
16.413233455000,0.004000000000
16.420920994000,0.007000000000
16.428608533000,0.019000000000
16.436296072000,0.027000000000
16.443983611000,0.029000000000
16.451671150000,0.036000000000
16.459358689000,0.054000000000
16.467046228000,0.064000000000
16.474733767000,0.066000000000
16.482421306000,0.083000000000
16.490108845000,0.110000000000
16.497796384000,0.125000000000
16.505483923000,0.133000000000
16.513171462000,0.147000000000
16.520859001000,0.165000000000
16.528546540000,0.165000000000
16.536234079000,0.155000000000
16.543921618000,0.155000000000
16.551609157000,0.143000000000
16.559296696000,0.106000000000
16.566984235000,0.066000000000
16.574671774000,0.027000000000
16.582359313000,-0.027000000000
16.590046852000,-0.076000000000
16.597734391000,-0.108000000000
16.605421930000,-0.133000000000
16.613109469000,-0.152000000000
16.620797008000,-0.147000000000
16.628484547000,-0.145000000000
16.636172086000,-0.155000000000
16.643859625000,-0.152000000000
16.651547164000,-0.140000000000
16.659234703000,-0.135000000000
16.666922242000,-0.130000000000
16.674609781000,-0.115000000000
16.682297320000,-0.113000000000
16.689984859000,-0.115000000000
16.697672398000,-0.113000000000
16.705360005000,-0.106000000000
16.713047544000,-0.103000000000
16.720735083000,-0.103000000000
16.728422622000,-0.101000000000
16.736110161000,-0.101000000000
16.743797700000,-0.103000000000
16.751485239000,-0.106000000000
16.759172778000,-0.101000000000
16.766860317000,-0.096000000000
16.774547856000,-0.098000000000
16.782235395000,-0.108000000000
16.789922934000,-0.110000000000
16.797610473000,-0.113000000000
16.805298012000,-0.106000000000
16.812985551000,-0.098000000000
16.820673090000,-0.101000000000
16.828360629000,-0.108000000000
16.836048168000,-0.103000000000
16.843735707000,-0.091000000000
16.851423246000,-0.088000000000
16.859110785000,-0.091000000000
16.866798324000,-0.096000000000
16.874485863000,-0.096000000000
16.882173402000,-0.091000000000
16.889860941000,-0.086000000000
16.897548480000,-0.088000000000
16.905236019000,-0.086000000000
16.912923558000,-0.076000000000
16.920611097000,-0.073000000000
16.928298636000,-0.081000000000
16.935986175000,-0.086000000000
16.943673714000,-0.088000000000
16.951361253000,-0.083000000000
16.959048792000,-0.076000000000
16.966736331000,-0.064000000000
16.974423870000,-0.059000000000
16.982111409000,-0.054000000000
16.989798948000,-0.036000000000
16.997486487000,-0.039000000000
17.005174026000,-0.066000000000
17.012861565000,-0.073000000000
17.020549104000,-0.071000000000
17.028236643000,-0.076000000000
17.035924182000,-0.076000000000
17.043611721000,-0.071000000000
17.051299260000,-0.071000000000
17.058986799000,-0.088000000000
17.066674338000,-0.115000000000
17.074361877000,-0.039000000000
17.082049416000,0.325000000000
17.089736955000,0.742000000000
17.097424494000,0.589000000000
17.105112033000,-0.106000000000
17.112799572000,-0.507000000000
17.120487111000,-0.347000000000
17.128174650000,-0.199000000000
17.135862189000,-0.226000000000
17.143549728000,-0.160000000000
17.151237267000,-0.071000000000
17.158924806000,-0.083000000000
17.166612345000,-0.088000000000
17.174299884000,-0.061000000000
17.181987423000,-0.056000000000
17.189674962000,-0.061000000000
17.197362501000,-0.046000000000
17.205050040000,-0.044000000000
17.212737579000,-0.041000000000
17.220425118000,-0.032000000000
17.228112657000,-0.032000000000
17.235800196000,-0.039000000000
17.243487735000,-0.029000000000
17.251175274000,-0.014000000000
17.258862813000,-0.007000000000
17.266550420000,-0.004000000000
17.274238168000,0.000000000000
17.281925916000,0.009000000000
17.289613664000,0.019000000000
17.297301412000,0.034000000000
17.304989160000,0.051000000000
17.312676908000,0.061000000000
17.320364656000,0.069000000000
17.328052404000,0.088000000000
17.335740152000,0.110000000000
17.343427900000,0.108000000000
17.351115648000,0.098000000000
17.358803396000,0.103000000000
17.366491144000,0.101000000000
17.374178892000,0.069000000000
17.381866640000,0.024000000000
17.389554388000,-0.017000000000
17.397242136000,-0.064000000000
17.404929884000,-0.101000000000
17.412617632000,-0.125000000000
17.420305380000,-0.138000000000
17.427993128000,-0.147000000000
17.435680876000,-0.152000000000
17.443368624000,-0.147000000000
17.451056372000,-0.140000000000
17.458744120000,-0.135000000000
17.466431868000,-0.135000000000
17.474119616000,-0.128000000000
17.481807364000,-0.123000000000
17.489495112000,-0.120000000000
17.497182860000,-0.115000000000
17.504870608000,-0.113000000000
17.512558356000,-0.108000000000
17.520246104000,-0.106000000000
17.527933852000,-0.106000000000
17.535621600000,-0.106000000000
17.543309348000,-0.098000000000
17.550997096000,-0.103000000000
17.558684844000,-0.103000000000
17.566372592000,-0.101000000000
17.574060340000,-0.106000000000
17.581748088000,-0.106000000000
17.589435836000,-0.096000000000
17.597123584000,-0.098000000000
17.604811332000,-0.110000000000
17.612499080000,-0.106000000000
17.620186828000,-0.096000000000
17.627874576000,-0.098000000000
17.635562324000,-0.096000000000
17.643250072000,-0.096000000000
17.650937820000,-0.098000000000
17.658625568000,-0.098000000000
17.666313316000,-0.088000000000
17.674001064000,-0.086000000000
17.681688812000,-0.093000000000
17.689376560000,-0.093000000000
17.697064308000,-0.086000000000
17.704752056000,-0.081000000000
17.712439804000,-0.086000000000
17.720127552000,-0.086000000000
17.727815300000,-0.086000000000
17.735503048000,-0.093000000000
17.743190796000,-0.093000000000
17.750878544000,-0.086000000000
17.758566292000,-0.078000000000
17.766254040000,-0.076000000000
17.773941788000,-0.071000000000
17.781629536000,-0.056000000000
17.789317284000,-0.039000000000
17.797005032000,-0.046000000000
17.804692780000,-0.069000000000
17.812380528000,-0.071000000000
17.820068276000,-0.064000000000
17.827756096000,-0.066000000000
17.835443844000,-0.066000000000
17.843131592000,-0.059000000000
17.850819340000,-0.059000000000
17.858507088000,-0.088000000000
17.866194836000,-0.138000000000
17.873882584000,-0.039000000000
17.881570332000,0.369000000000
17.889258080000,0.803000000000
17.896945828000,0.697000000000
17.904633576000,0.039000000000
17.912321324000,-0.384000000000
17.920009072000,-0.246000000000
17.927696820000,-0.125000000000
17.935384568000,-0.184000000000
17.943072316000,-0.138000000000
17.950760064000,-0.071000000000
17.958447812000,-0.093000000000
17.966135560000,-0.091000000000
17.973823308000,-0.061000000000
17.981511056000,-0.064000000000
17.989198804000,-0.064000000000
17.996886552000,-0.056000000000
18.004574300000,-0.064000000000
18.012262048000,-0.056000000000
18.019949796000,-0.039000000000
18.027637544000,-0.039000000000
18.035325292000,-0.039000000000
18.043013040000,-0.029000000000
18.050700788000,-0.032000000000
18.058388536000,-0.034000000000
18.066076284000,-0.024000000000
18.073764032000,-0.014000000000
18.081451780000,-0.014000000000
18.089139528000,-0.004000000000
18.096827276000,0.017000000000
18.104515024000,0.032000000000
18.112202772000,0.041000000000
18.119890520000,0.051000000000
18.127578268000,0.059000000000
18.135266016000,0.071000000000
18.142953764000,0.083000000000
18.150641512000,0.086000000000
18.158329260000,0.083000000000
18.166017008000,0.073000000000
18.173704756000,0.051000000000
18.181392504000,0.017000000000
18.189080252000,-0.029000000000
18.196768000000,-0.069000000000
18.204455748000,-0.098000000000
18.212143496000,-0.125000000000
18.219831244000,-0.143000000000
18.227518992000,-0.143000000000
18.235206740000,-0.140000000000
18.242894488000,-0.135000000000
18.250582236000,-0.138000000000
18.258269984000,-0.138000000000
18.265957732000,-0.125000000000
18.273645480000,-0.113000000000
18.281333228000,-0.118000000000
18.289020976000,-0.123000000000
18.296708724000,-0.120000000000
18.304396472000,-0.120000000000
18.312084220000,-0.113000000000
18.319771968000,-0.106000000000
18.327459716000,-0.106000000000
18.335147464000,-0.103000000000
18.342835212000,-0.106000000000
18.350522960000,-0.110000000000
18.358210708000,-0.106000000000
18.365898456000,-0.098000000000
18.373586204000,-0.106000000000
18.381273952000,-0.108000000000
18.388961768000,-0.101000000000
18.396649656000,-0.101000000000
18.404337544000,-0.101000000000
18.412025432000,-0.096000000000
18.419713320000,-0.096000000000
18.427401208000,-0.101000000000
18.435089096000,-0.096000000000
18.442776984000,-0.091000000000
18.450464872000,-0.098000000000
18.458152760000,-0.101000000000
18.465840648000,-0.093000000000
18.473528536000,-0.088000000000
18.481216424000,-0.086000000000
18.488904312000,-0.086000000000
18.496592200000,-0.088000000000
18.504280088000,-0.086000000000
18.511967976000,-0.083000000000
18.519655864000,-0.081000000000
18.527343752000,-0.076000000000
18.535031640000,-0.073000000000
18.542719528000,-0.076000000000
18.550407416000,-0.076000000000
18.558095304000,-0.076000000000
18.565783192000,-0.076000000000
18.573471080000,-0.071000000000
18.581158968000,-0.069000000000
18.588846856000,-0.076000000000
18.596534744000,-0.086000000000
18.604222632000,-0.088000000000
18.611910520000,-0.081000000000
18.619598408000,-0.069000000000
18.627286296000,-0.066000000000
18.634974184000,-0.064000000000
18.642662072000,-0.056000000000
18.650349960000,-0.036000000000
18.658037848000,-0.027000000000
18.665725736000,-0.046000000000
18.673413624000,-0.061000000000
18.681101512000,-0.059000000000
18.688789400000,-0.061000000000
18.696477288000,-0.069000000000
18.704165176000,-0.061000000000
18.711853064000,-0.056000000000
18.719540952000,-0.064000000000
18.727228840000,-0.088000000000
18.734916728000,-0.108000000000
18.742604616000,0.054000000000
18.750292504000,0.503000000000
18.757980392000,0.826000000000
18.765668280000,0.493000000000
18.773356168000,-0.189000000000
18.781044056000,-0.411000000000
18.788731944000,-0.212000000000
18.796419832000,-0.160000000000
18.804107720000,-0.197000000000
18.811795608000,-0.110000000000
18.819483496000,-0.066000000000
18.827171384000,-0.093000000000
18.834859272000,-0.081000000000
18.842547160000,-0.059000000000
18.850235048000,-0.064000000000
18.857922936000,-0.056000000000
18.865610824000,-0.041000000000
18.873298712000,-0.044000000000
18.880986600000,-0.044000000000
18.888674488000,-0.034000000000
18.896362376000,-0.029000000000
18.904050264000,-0.024000000000
18.911738152000,-0.017000000000
18.919426040000,-0.012000000000
18.927113928000,-0.004000000000
18.934801816000,0.004000000000
18.942489704000,0.009000000000
18.950177618000,0.017000000000
18.957865227000,0.027000000000
18.965552836000,0.041000000000
18.973240445000,0.059000000000
18.980928054000,0.069000000000
18.988615663000,0.071000000000
18.996303272000,0.083000000000
19.003990881000,0.101000000000
19.011678490000,0.106000000000
19.019366099000,0.106000000000
19.027053708000,0.101000000000
19.034741317000,0.088000000000
19.042428926000,0.064000000000
19.050116535000,0.022000000000
19.057804144000,-0.024000000000
19.065491753000,-0.061000000000
19.073179362000,-0.088000000000
19.080866971000,-0.118000000000
19.088554580000,-0.130000000000
19.096242189000,-0.130000000000
19.103929798000,-0.135000000000
19.111617407000,-0.130000000000
19.119305016000,-0.115000000000
19.126992625000,-0.115000000000
19.134680234000,-0.128000000000
19.142367843000,-0.128000000000
19.150055452000,-0.108000000000
19.157743061000,-0.096000000000
19.165430670000,-0.096000000000
19.173118279000,-0.103000000000
19.180805888000,-0.103000000000
19.188493497000,-0.096000000000
19.196181106000,-0.093000000000
19.203868715000,-0.098000000000
19.211556324000,-0.110000000000
19.219243933000,-0.106000000000
19.226931542000,-0.088000000000
19.234619151000,-0.086000000000
19.242306760000,-0.103000000000
19.249994369000,-0.110000000000
19.257681978000,-0.103000000000
19.265369587000,-0.098000000000
19.273057196000,-0.101000000000
19.280744805000,-0.091000000000
19.288432414000,-0.088000000000
19.296120023000,-0.093000000000
19.303807632000,-0.096000000000
19.311495241000,-0.096000000000
19.319182850000,-0.098000000000
19.326870459000,-0.096000000000
19.334558068000,-0.088000000000
19.342245677000,-0.088000000000
19.349933286000,-0.083000000000
19.357620895000,-0.081000000000
19.365308504000,-0.091000000000
19.372996113000,-0.091000000000
19.380683722000,-0.083000000000
19.388371331000,-0.078000000000
19.396058940000,-0.076000000000
19.403746549000,-0.078000000000
19.411434158000,-0.076000000000
19.419121767000,-0.071000000000
19.426809376000,-0.071000000000
19.434496985000,-0.071000000000
19.442184594000,-0.078000000000
19.449872203000,-0.088000000000
19.457559812000,-0.078000000000
19.465247421000,-0.064000000000
19.472935030000,-0.066000000000
19.480622639000,-0.066000000000
19.488310248000,-0.054000000000
19.495997857000,-0.044000000000
19.503685466000,-0.029000000000
19.511373120000,-0.034000000000
19.519060659000,-0.059000000000
19.526748198000,-0.069000000000
19.534435737000,-0.066000000000
19.542123276000,-0.064000000000
19.549810815000,-0.059000000000
19.557498354000,-0.066000000000
19.565185893000,-0.073000000000
19.572873432000,-0.071000000000
19.580560971000,-0.083000000000
19.588248510000,-0.051000000000
19.595936049000,0.226000000000
19.603623588000,0.660000000000
19.611311127000,0.646000000000
19.618998666000,-0.012000000000
19.626686205000,-0.530000000000
19.634373744000,-0.424000000000
19.642061283000,-0.224000000000
19.649748822000,-0.231000000000
19.657436361000,-0.167000000000
19.665123900000,-0.051000000000
19.672811439000,-0.056000000000
19.680498978000,-0.071000000000
19.688186517000,-0.036000000000
19.695874056000,-0.029000000000
19.703561595000,-0.036000000000
19.711249134000,-0.022000000000
19.718936673000,-0.012000000000
19.726624212000,-0.012000000000
19.734311751000,-0.004000000000
19.741999290000,0.004000000000
19.749686829000,0.002000000000
19.757374368000,0.000000000000
19.765061907000,0.012000000000
19.772749446000,0.024000000000
19.780436985000,0.034000000000
19.788124524000,0.049000000000
19.795812063000,0.059000000000
19.803499602000,0.064000000000
19.811187141000,0.081000000000
19.818874680000,0.098000000000
19.826562219000,0.108000000000
19.834249758000,0.118000000000
19.841937297000,0.133000000000
19.849624836000,0.140000000000
19.857312375000,0.145000000000
19.864999914000,0.145000000000
19.872687453000,0.135000000000
19.880374992000,0.120000000000
19.888062531000,0.098000000000
19.895750070000,0.059000000000
19.903437609000,0.000000000000
19.911125148000,-0.054000000000
19.918812687000,-0.091000000000
19.926500226000,-0.118000000000
19.934187765000,-0.140000000000
19.941875304000,-0.143000000000
19.949562843000,-0.145000000000
19.957250382000,-0.150000000000
19.964937921000,-0.143000000000
19.972625460000,-0.135000000000
19.980312999000,-0.138000000000
19.988000538000,-0.135000000000
19.995688077000,-0.128000000000
20.003375616000,-0.123000000000
20.011063155000,-0.113000000000
20.018750694000,-0.103000000000
20.026438233000,-0.103000000000
20.034125772000,-0.103000000000
20.041813311000,-0.098000000000
20.049500850000,-0.101000000000
20.057188389000,-0.101000000000
20.064875928000,-0.096000000000
20.072563535000,-0.096000000000
20.080251214000,-0.096000000000
20.087938893000,-0.098000000000
20.095626572000,-0.106000000000
20.103314251000,-0.103000000000
20.111001930000,-0.096000000000
20.118689609000,-0.093000000000
20.126377288000,-0.093000000000
20.134064967000,-0.093000000000
20.141752646000,-0.096000000000
20.149440325000,-0.088000000000
20.157128004000,-0.086000000000
20.164815683000,-0.091000000000
20.172503362000,-0.086000000000
20.180191041000,-0.083000000000
20.187878720000,-0.088000000000
20.195566399000,-0.083000000000
20.203254078000,-0.073000000000
20.210941757000,-0.076000000000
20.218629436000,-0.073000000000
20.226317115000,-0.064000000000
20.234004794000,-0.061000000000
20.241692473000,-0.064000000000
20.249380152000,-0.056000000000
20.257067831000,-0.051000000000
20.264755510000,-0.059000000000
20.272443189000,-0.071000000000
20.280130868000,-0.071000000000
20.287818547000,-0.066000000000
20.295506226000,-0.059000000000
20.303193905000,-0.046000000000
20.310881584000,-0.034000000000
20.318569263000,-0.024000000000
20.326256942000,-0.014000000000
20.333944621000,-0.014000000000
20.341632300000,-0.027000000000
20.349319979000,-0.039000000000
20.357007658000,-0.044000000000
20.364695337000,-0.039000000000
20.372383016000,-0.029000000000
20.380070695000,-0.034000000000
20.387758374000,-0.041000000000
20.395446053000,-0.039000000000
20.403133732000,-0.064000000000
20.410821411000,-0.064000000000
20.418509090000,0.192000000000
20.426196769000,0.670000000000
20.433884448000,0.808000000000
20.441572127000,0.263000000000
20.449259806000,-0.350000000000
20.456947485000,-0.377000000000
20.464635164000,-0.162000000000
20.472322843000,-0.155000000000
20.480010522000,-0.143000000000
20.487698201000,-0.041000000000
20.495385880000,-0.024000000000
20.503073559000,-0.046000000000
20.510761238000,-0.027000000000
20.518448917000,-0.009000000000
20.526136596000,-0.017000000000
20.533824275000,-0.014000000000
20.541511954000,-0.007000000000
20.549199633000,-0.007000000000
20.556887312000,0.004000000000
20.564574991000,0.017000000000
20.572262670000,0.014000000000
20.579950349000,0.009000000000
20.587638028000,0.014000000000
20.595325707000,0.017000000000
20.603013386000,0.029000000000
20.610701065000,0.039000000000
20.618388744000,0.041000000000
20.626076423000,0.051000000000
20.633764124000,0.061000000000
20.641451942000,0.064000000000
20.649139760000,0.078000000000
20.656827578000,0.093000000000
20.664515396000,0.101000000000
20.672203214000,0.110000000000
20.679891032000,0.120000000000
20.687578850000,0.118000000000
20.695266668000,0.118000000000
20.702954486000,0.115000000000
20.710642304000,0.098000000000
20.718330122000,0.069000000000
20.726017940000,0.039000000000
20.733705758000,0.002000000000
20.741393576000,-0.032000000000
20.749081394000,-0.059000000000
20.756769212000,-0.081000000000
20.764457030000,-0.093000000000
20.772144848000,-0.096000000000
20.779832666000,-0.093000000000
20.787520484000,-0.088000000000
20.795208302000,-0.081000000000
20.802896120000,-0.076000000000
20.810583938000,-0.073000000000
20.818271756000,-0.073000000000
20.825959574000,-0.073000000000
20.833647392000,-0.071000000000
20.841335210000,-0.066000000000
20.849023028000,-0.056000000000
20.856710846000,-0.059000000000
20.864398664000,-0.064000000000
20.872086482000,-0.059000000000
20.879774300000,-0.059000000000
20.887462118000,-0.056000000000
20.895149936000,-0.056000000000
20.902837754000,-0.061000000000
20.910525572000,-0.064000000000
20.918213390000,-0.061000000000
20.925901208000,-0.061000000000
20.933589026000,-0.064000000000
20.941276844000,-0.064000000000
20.948964662000,-0.056000000000
20.956652480000,-0.054000000000
20.964340298000,-0.064000000000
20.972028116000,-0.071000000000
20.979715934000,-0.064000000000
20.987403752000,-0.049000000000
20.995091570000,-0.051000000000
21.002779388000,-0.059000000000
21.010467206000,-0.059000000000
21.018155024000,-0.056000000000
21.025842842000,-0.054000000000
21.033530660000,-0.051000000000
21.041218478000,-0.056000000000
21.048906296000,-0.056000000000
21.056594114000,-0.059000000000
21.064281932000,-0.064000000000
21.071969750000,-0.064000000000
21.079657568000,-0.064000000000
21.087345386000,-0.059000000000
21.095033204000,-0.041000000000
21.102721022000,-0.029000000000
21.110408840000,-0.022000000000
21.118096658000,-0.017000000000
21.125784476000,-0.032000000000
21.133472294000,-0.046000000000
21.141160112000,-0.041000000000
21.148847930000,-0.039000000000
21.156535748000,-0.044000000000
21.164223566000,-0.039000000000
21.171911384000,-0.034000000000
21.179599202000,-0.041000000000
21.187287020000,-0.069000000000
21.194974883000,-0.091000000000
21.202662701000,0.024000000000
21.210350519000,0.431000000000
21.218038337000,0.821000000000
21.225726155000,0.611000000000
21.233413973000,-0.078000000000
21.241101791000,-0.421000000000
21.248789609000,-0.234000000000
21.256477427000,-0.125000000000
21.264165245000,-0.167000000000
21.271853063000,-0.098000000000
21.279540881000,-0.041000000000
21.287228699000,-0.066000000000
21.294916517000,-0.069000000000
21.302604335000,-0.046000000000
21.310292153000,-0.041000000000
21.317979971000,-0.036000000000
21.325667789000,-0.024000000000
21.333355607000,-0.014000000000
21.341043425000,-0.014000000000
21.348731243000,-0.017000000000
21.356419061000,-0.019000000000
21.364106879000,-0.017000000000
21.371794697000,-0.007000000000
21.379482515000,0.002000000000
21.387170333000,0.002000000000
21.394858151000,0.000000000000
21.402545969000,0.009000000000
21.410233787000,0.027000000000
21.417921605000,0.039000000000
21.425609423000,0.044000000000
21.433297241000,0.051000000000
21.440985059000,0.064000000000
21.448672877000,0.078000000000
21.456360695000,0.088000000000
21.464048513000,0.093000000000
21.471736331000,0.098000000000
21.479424149000,0.103000000000
21.487111967000,0.101000000000
21.494799785000,0.086000000000
21.502487603000,0.056000000000
21.510175421000,0.022000000000
21.517863239000,-0.009000000000
21.525551057000,-0.046000000000
21.533238875000,-0.081000000000
21.540926693000,-0.106000000000
21.548614511000,-0.120000000000
21.556302329000,-0.123000000000
21.563990147000,-0.120000000000
21.571677965000,-0.115000000000
21.579365783000,-0.118000000000
21.587053601000,-0.113000000000
21.594741419000,-0.103000000000
21.602429237000,-0.103000000000
21.610117055000,-0.103000000000
21.617804873000,-0.098000000000
21.625492691000,-0.096000000000
21.633180509000,-0.098000000000
21.640868327000,-0.091000000000
21.648556145000,-0.083000000000
21.656243963000,-0.088000000000
21.663931781000,-0.093000000000
21.671619599000,-0.096000000000
21.679307417000,-0.096000000000
21.686995235000,-0.091000000000
21.694683053000,-0.083000000000
21.702370871000,-0.088000000000
21.710058689000,-0.093000000000
21.717746507000,-0.088000000000
21.725434325000,-0.083000000000
21.733122143000,-0.086000000000
21.740809961000,-0.086000000000
21.748497779000,-0.083000000000
21.756185646000,-0.081000000000
21.763873325000,-0.078000000000
21.771561004000,-0.083000000000
21.779248683000,-0.088000000000
21.786936362000,-0.078000000000
21.794624041000,-0.071000000000
21.802311720000,-0.076000000000
21.809999399000,-0.071000000000
21.817687078000,-0.071000000000
21.825374757000,-0.078000000000
21.833062436000,-0.073000000000
21.840750115000,-0.064000000000
21.848437794000,-0.069000000000
21.856125473000,-0.069000000000
21.863813152000,-0.069000000000
21.871500831000,-0.076000000000
21.879188510000,-0.081000000000
21.886876189000,-0.081000000000
21.894563868000,-0.083000000000
21.902251547000,-0.076000000000
21.909939226000,-0.061000000000
21.917626905000,-0.054000000000
21.925314584000,-0.044000000000
21.933002263000,-0.032000000000
21.940689942000,-0.032000000000
21.948377621000,-0.051000000000
21.956065300000,-0.064000000000
21.963752979000,-0.061000000000
21.971440658000,-0.061000000000
21.979128337000,-0.066000000000
21.986816016000,-0.069000000000
21.994503695000,-0.064000000000
22.002191374000,-0.069000000000
22.009879053000,-0.101000000000
22.017566732000,-0.036000000000
22.025254411000,0.305000000000
22.032942090000,0.737000000000
22.040629769000,0.653000000000
22.048317448000,0.004000000000
22.056005127000,-0.429000000000
22.063692806000,-0.313000000000
22.071380485000,-0.175000000000
22.079068164000,-0.197000000000
22.086755843000,-0.135000000000
22.094443522000,-0.061000000000
22.102131201000,-0.081000000000
22.109818880000,-0.083000000000
22.117506559000,-0.049000000000
22.125194238000,-0.044000000000
22.132881917000,-0.049000000000
22.140569596000,-0.039000000000
22.148257275000,-0.029000000000
22.155944954000,-0.029000000000
22.163632633000,-0.032000000000
22.171320312000,-0.024000000000
22.179007991000,-0.012000000000
22.186695670000,-0.007000000000
22.194383349000,-0.007000000000
22.202071028000,-0.004000000000
22.209758707000,0.007000000000
22.217446386000,0.017000000000
22.225134065000,0.022000000000
22.232821744000,0.034000000000
22.240509423000,0.049000000000
22.248197102000,0.061000000000
22.255884781000,0.073000000000
22.263572460000,0.086000000000
22.271260139000,0.091000000000
22.278947818000,0.098000000000
22.286635497000,0.103000000000
22.294323176000,0.101000000000
22.302010855000,0.098000000000
22.309698534000,0.093000000000
22.317386231000,0.073000000000
22.325074189000,0.034000000000
22.332762147000,-0.009000000000
22.340450105000,-0.044000000000
22.348138063000,-0.078000000000
22.355826021000,-0.108000000000
22.363513979000,-0.123000000000
22.371201937000,-0.130000000000
22.378889895000,-0.138000000000
22.386577853000,-0.135000000000
22.394265811000,-0.128000000000
22.401953769000,-0.120000000000
22.409641727000,-0.110000000000
22.417329685000,-0.115000000000
22.425017643000,-0.118000000000
22.432705601000,-0.108000000000
22.440393559000,-0.106000000000
22.448081517000,-0.106000000000
22.455769475000,-0.101000000000
22.463457433000,-0.101000000000
22.471145391000,-0.108000000000
22.478833349000,-0.108000000000
22.486521307000,-0.101000000000
22.494209265000,-0.093000000000
22.501897223000,-0.093000000000
22.509585181000,-0.101000000000
22.517273139000,-0.101000000000
22.524961097000,-0.106000000000
22.532649055000,-0.113000000000
22.540337013000,-0.103000000000
22.548024971000,-0.096000000000
22.555712929000,-0.103000000000
22.563400887000,-0.106000000000
22.571088845000,-0.093000000000
22.578776803000,-0.093000000000
22.586464761000,-0.098000000000
22.594152719000,-0.088000000000
22.601840677000,-0.083000000000
22.609528635000,-0.088000000000
22.617216593000,-0.093000000000
22.624904551000,-0.088000000000
22.632592509000,-0.078000000000
22.640280467000,-0.078000000000
22.647968425000,-0.083000000000
22.655656383000,-0.083000000000
22.663344341000,-0.081000000000
22.671032299000,-0.086000000000
22.678720257000,-0.088000000000
22.686408215000,-0.083000000000
22.694096173000,-0.081000000000
22.701784131000,-0.078000000000
22.709472089000,-0.061000000000
22.717160047000,-0.046000000000
22.724848005000,-0.034000000000
22.732535963000,-0.029000000000
22.740223921000,-0.046000000000
22.747911879000,-0.066000000000
22.755599837000,-0.073000000000
22.763287795000,-0.071000000000
22.770975753000,-0.069000000000
22.778663711000,-0.064000000000
22.786351669000,-0.064000000000
22.794039627000,-0.064000000000
22.801727585000,-0.076000000000
22.809415543000,-0.064000000000
22.817103501000,0.130000000000
22.824791459000,0.557000000000
22.832479417000,0.715000000000
22.840167375000,0.172000000000
22.847855333000,-0.461000000000
22.855543291000,-0.473000000000
22.863231249000,-0.246000000000
22.870919207000,-0.231000000000
22.878607168000,-0.202000000000
22.886294707000,-0.066000000000
22.893982246000,-0.027000000000
22.901669785000,-0.056000000000
22.909357324000,-0.041000000000
22.917044863000,-0.019000000000
22.924732402000,-0.022000000000
22.932419941000,-0.022000000000
22.940107480000,-0.009000000000
22.947795019000,0.000000000000
22.955482558000,0.004000000000
22.963170097000,0.007000000000
22.970857636000,0.002000000000
22.978545175000,0.004000000000
22.986232714000,0.019000000000
22.993920253000,0.032000000000
23.001607792000,0.041000000000
23.009295331000,0.051000000000
23.016982870000,0.059000000000
23.024670409000,0.064000000000
23.032357948000,0.076000000000
23.040045487000,0.098000000000
23.047733026000,0.110000000000
23.055420565000,0.125000000000
23.063108104000,0.143000000000
23.070795643000,0.145000000000
23.078483182000,0.135000000000
23.086170721000,0.128000000000
23.093858260000,0.125000000000
23.101545799000,0.118000000000
23.109233338000,0.096000000000
23.116920877000,0.056000000000
23.124608416000,0.002000000000
23.132295955000,-0.044000000000
23.139983494000,-0.078000000000
23.147671033000,-0.113000000000
23.155358572000,-0.133000000000
23.163046111000,-0.143000000000
23.170733650000,-0.155000000000
23.178421189000,-0.155000000000
23.186108728000,-0.140000000000
23.193796267000,-0.138000000000
23.201483806000,-0.143000000000
23.209171345000,-0.133000000000
23.216858884000,-0.115000000000
23.224546423000,-0.110000000000
23.232233962000,-0.113000000000
23.239921501000,-0.108000000000
23.247609040000,-0.103000000000
23.255296579000,-0.103000000000
23.262984118000,-0.103000000000
23.270671657000,-0.101000000000
23.278359196000,-0.101000000000
23.286046735000,-0.101000000000
23.293734274000,-0.101000000000
23.301421813000,-0.098000000000
23.309109352000,-0.101000000000
23.316796891000,-0.103000000000
23.324484430000,-0.110000000000
23.332171969000,-0.106000000000
23.339859508000,-0.096000000000
23.347547047000,-0.098000000000
23.355234586000,-0.113000000000
23.362922125000,-0.110000000000
23.370609664000,-0.101000000000
23.378297203000,-0.103000000000
23.385984742000,-0.103000000000
23.393672281000,-0.091000000000
23.401359820000,-0.091000000000
23.409047359000,-0.098000000000
23.416734898000,-0.101000000000
23.424422437000,-0.101000000000
23.432109976000,-0.098000000000
23.439797583000,-0.096000000000
23.447485262000,-0.098000000000
23.455172941000,-0.096000000000
23.462860620000,-0.081000000000
23.470548299000,-0.071000000000
23.478235978000,-0.073000000000
23.485923657000,-0.061000000000
23.493611336000,-0.049000000000
23.501299015000,-0.066000000000
23.508986694000,-0.088000000000
23.516674373000,-0.086000000000
23.524362052000,-0.081000000000
23.532049731000,-0.078000000000
23.539737410000,-0.073000000000
23.547425089000,-0.076000000000
23.555112768000,-0.083000000000
23.562800447000,-0.106000000000
23.570488126000,-0.110000000000
23.578175805000,0.064000000000
23.585863484000,0.495000000000
23.593551163000,0.732000000000
23.601238842000,0.276000000000
23.608926521000,-0.409000000000
23.616614200000,-0.512000000000
23.624301879000,-0.263000000000
23.631989558000,-0.221000000000
23.639677237000,-0.224000000000
23.647364916000,-0.101000000000
23.655052595000,-0.054000000000
23.662740274000,-0.078000000000
23.670427953000,-0.054000000000
23.678115632000,-0.034000000000
23.685803311000,-0.049000000000
23.693490990000,-0.046000000000
23.701178669000,-0.027000000000
23.708866348000,-0.027000000000
23.716554027000,-0.027000000000
23.724241706000,-0.017000000000
23.731929385000,-0.007000000000
23.739617064000,-0.007000000000
23.747304743000,-0.002000000000
23.754992422000,0.007000000000
23.762680101000,0.017000000000
23.770367780000,0.022000000000
23.778055459000,0.029000000000
23.785743138000,0.041000000000
23.793430817000,0.051000000000
23.801118496000,0.066000000000
23.808806175000,0.086000000000
23.816493854000,0.096000000000
23.824181533000,0.098000000000
23.831869212000,0.108000000000
23.839556891000,0.118000000000
23.847244570000,0.115000000000
23.854932249000,0.108000000000
23.862619928000,0.101000000000
23.870307607000,0.086000000000
23.877995286000,0.046000000000
23.885682965000,0.000000000000
23.893370644000,-0.041000000000
23.901058323000,-0.083000000000
23.908746002000,-0.118000000000
23.916433681000,-0.135000000000
23.924121360000,-0.145000000000
23.931809039000,-0.145000000000
23.939496718000,-0.133000000000
23.947184397000,-0.130000000000
23.954872076000,-0.138000000000
23.962559755000,-0.138000000000
23.970247434000,-0.125000000000
23.977935113000,-0.120000000000
23.985622792000,-0.125000000000
23.993310471000,-0.120000000000
24.000998172000,-0.106000000000
24.008685572000,-0.101000000000
24.016372972000,-0.103000000000
24.024060372000,-0.106000000000
24.031747772000,-0.103000000000
24.039435172000,-0.098000000000
24.047122572000,-0.098000000000
24.054809972000,-0.101000000000
24.062497372000,-0.098000000000
24.070184772000,-0.101000000000
24.077872172000,-0.103000000000
24.085559572000,-0.103000000000
24.093246972000,-0.106000000000
24.100934372000,-0.106000000000
24.108621772000,-0.108000000000
24.116309172000,-0.101000000000
24.123996572000,-0.101000000000
24.131683972000,-0.108000000000
24.139371372000,-0.110000000000
24.147058772000,-0.098000000000
24.154746172000,-0.093000000000
24.162433572000,-0.096000000000
24.170120972000,-0.096000000000
24.177808372000,-0.088000000000
24.185495772000,-0.088000000000
24.193183172000,-0.093000000000
24.200870572000,-0.093000000000
24.208557972000,-0.096000000000
24.216245372000,-0.106000000000
24.223932772000,-0.106000000000
24.231620172000,-0.098000000000
24.239307572000,-0.083000000000
24.246994972000,-0.069000000000
24.254682372000,-0.064000000000
24.262369772000,-0.054000000000
24.270057172000,-0.046000000000
24.277744572000,-0.059000000000
24.285431972000,-0.076000000000
24.293119372000,-0.076000000000
24.300806772000,-0.073000000000
24.308494172000,-0.076000000000
24.316181572000,-0.078000000000
24.323868972000,-0.073000000000
24.331556372000,-0.076000000000
24.339243772000,-0.098000000000
24.346931172000,-0.106000000000
24.354618572000,0.073000000000
24.362305972000,0.515000000000
24.369993372000,0.803000000000
24.377680772000,0.448000000000
24.385368172000,-0.204000000000
24.393055572000,-0.392000000000
24.400742972000,-0.204000000000
24.408430372000,-0.172000000000
24.416117772000,-0.192000000000
24.423805172000,-0.103000000000
24.431492572000,-0.073000000000
24.439179972000,-0.103000000000
24.446867372000,-0.088000000000
24.454554772000,-0.061000000000
24.462242172000,-0.061000000000
24.469929572000,-0.056000000000
24.477616972000,-0.046000000000
24.485304372000,-0.049000000000
24.492991772000,-0.046000000000
24.500679172000,-0.036000000000
24.508366572000,-0.027000000000
24.516053972000,-0.027000000000
24.523741372000,-0.027000000000
24.531428772000,-0.022000000000
24.539116172000,-0.012000000000
24.546803572000,0.000000000000
24.554490972000,0.009000000000
24.562178413000,0.022000000000
24.569866370000,0.027000000000
24.577554327000,0.034000000000
24.585242284000,0.046000000000
24.592930241000,0.059000000000
24.600618198000,0.069000000000
24.608306155000,0.081000000000
24.615994112000,0.091000000000
24.623682069000,0.096000000000
24.631370026000,0.096000000000
24.639057983000,0.086000000000
24.646745940000,0.069000000000
24.654433897000,0.041000000000
24.662121854000,0.000000000000
24.669809811000,-0.044000000000
24.677497768000,-0.076000000000
24.685185725000,-0.103000000000
24.692873682000,-0.123000000000
24.700561639000,-0.135000000000
24.708249596000,-0.138000000000
24.715937553000,-0.128000000000
24.723625510000,-0.125000000000
24.731313467000,-0.133000000000
24.739001424000,-0.133000000000
24.746689381000,-0.123000000000
24.754377338000,-0.118000000000
24.762065295000,-0.120000000000
24.769753252000,-0.115000000000
24.777441209000,-0.098000000000
24.785129166000,-0.096000000000
24.792817123000,-0.106000000000
24.800505080000,-0.106000000000
24.808193037000,-0.098000000000
24.815880994000,-0.101000000000
24.823568951000,-0.098000000000
24.831256908000,-0.098000000000
24.838944865000,-0.098000000000
24.846632822000,-0.101000000000
24.854320779000,-0.101000000000
24.862008736000,-0.101000000000
24.869696693000,-0.101000000000
24.877384650000,-0.096000000000
24.885072607000,-0.091000000000
24.892760564000,-0.093000000000
24.900448521000,-0.098000000000
24.908136478000,-0.093000000000
24.915824435000,-0.086000000000
24.923512392000,-0.086000000000
24.931200349000,-0.093000000000
24.938888306000,-0.096000000000
24.946576263000,-0.093000000000
24.954264220000,-0.088000000000
24.961952177000,-0.081000000000
24.969640134000,-0.076000000000
24.977328091000,-0.076000000000
24.985016048000,-0.083000000000
24.992704005000,-0.098000000000
25.000391962000,-0.096000000000
25.008079919000,-0.078000000000
25.015767876000,-0.069000000000
25.023455833000,-0.071000000000
25.031143790000,-0.061000000000
25.038831747000,-0.039000000000
25.046519704000,-0.029000000000
25.054207661000,-0.044000000000
25.061895618000,-0.064000000000
25.069583575000,-0.069000000000
25.077271532000,-0.069000000000
25.084959489000,-0.073000000000
25.092647446000,-0.076000000000
25.100335403000,-0.073000000000
25.108023360000,-0.069000000000
25.115711317000,-0.073000000000
25.123399346000,-0.101000000000
25.131087234000,-0.069000000000
25.138775122000,0.204000000000
25.146463010000,0.658000000000
25.154150898000,0.747000000000
25.161838786000,0.194000000000
25.169526674000,-0.360000000000
25.177214562000,-0.350000000000
25.184902450000,-0.172000000000
25.192590338000,-0.187000000000
25.200278226000,-0.165000000000
25.207966114000,-0.069000000000
25.215654002000,-0.069000000000
25.223341890000,-0.091000000000
25.231029778000,-0.061000000000
25.238717666000,-0.049000000000
25.246405554000,-0.064000000000
25.254093442000,-0.056000000000
25.261781330000,-0.041000000000
25.269469218000,-0.039000000000
25.277157106000,-0.029000000000
25.284844994000,-0.017000000000
25.292532882000,-0.014000000000
25.300220770000,-0.014000000000
25.307908658000,-0.004000000000
25.315596546000,-0.002000000000
25.323284434000,0.000000000000
25.330972322000,0.009000000000
25.338660210000,0.022000000000
25.346348098000,0.039000000000
25.354035986000,0.056000000000
25.361723874000,0.061000000000
25.369411762000,0.069000000000
25.377099650000,0.088000000000
25.384787538000,0.103000000000
25.392475426000,0.103000000000
25.400163314000,0.115000000000
25.407851202000,0.120000000000
25.415539090000,0.108000000000
25.423226978000,0.096000000000
25.430914866000,0.081000000000
25.438602754000,0.044000000000
25.446290642000,0.002000000000
25.453978530000,-0.041000000000
25.461666418000,-0.081000000000
25.469354306000,-0.103000000000
25.477042194000,-0.115000000000
25.484730082000,-0.115000000000
25.492417970000,-0.120000000000
25.500105858000,-0.130000000000
25.507793746000,-0.130000000000
25.515481634000,-0.115000000000
25.523169522000,-0.110000000000
25.530857410000,-0.110000000000
25.538545298000,-0.106000000000
25.546233186000,-0.101000000000
25.553921074000,-0.096000000000
25.561608962000,-0.088000000000
25.569296850000,-0.083000000000
25.576984738000,-0.093000000000
25.584672626000,-0.103000000000
25.592360514000,-0.093000000000
25.600048402000,-0.086000000000
25.607736290000,-0.101000000000
25.615424178000,-0.103000000000
25.623112066000,-0.088000000000
25.630799954000,-0.086000000000
25.638487842000,-0.101000000000
25.646175730000,-0.106000000000
25.653863618000,-0.091000000000
25.661551506000,-0.086000000000
25.669239394000,-0.091000000000
25.676927282000,-0.093000000000
25.684615196000,-0.086000000000
25.692302805000,-0.091000000000
25.699990414000,-0.093000000000
25.707678023000,-0.083000000000
25.715365632000,-0.088000000000
25.723053241000,-0.101000000000
25.730740850000,-0.093000000000
25.738428459000,-0.078000000000
25.746116068000,-0.073000000000
25.753803677000,-0.076000000000
25.761491286000,-0.078000000000
25.769178895000,-0.076000000000
25.776866504000,-0.073000000000
25.784554113000,-0.078000000000
25.792241722000,-0.088000000000
25.799929331000,-0.086000000000
25.807616940000,-0.081000000000
25.815304549000,-0.081000000000
25.822992158000,-0.069000000000
25.830679767000,-0.044000000000
25.838367376000,-0.024000000000
25.846054985000,-0.029000000000
25.853742594000,-0.054000000000
25.861430203000,-0.064000000000
25.869117812000,-0.059000000000
25.876805421000,-0.066000000000
25.884493030000,-0.071000000000
25.892180639000,-0.069000000000
25.899868248000,-0.064000000000
25.907555857000,-0.061000000000
25.915243466000,-0.073000000000
25.922931075000,-0.098000000000
25.930618684000,0.019000000000
25.938306293000,0.424000000000
25.945993902000,0.747000000000
25.953681511000,0.419000000000
25.961369120000,-0.268000000000
25.969056729000,-0.495000000000
25.976744338000,-0.286000000000
25.984431947000,-0.204000000000
25.992119556000,-0.216000000000
25.999807165000,-0.115000000000
26.007494774000,-0.054000000000
26.015182383000,-0.073000000000
26.022869992000,-0.059000000000
26.030557601000,-0.029000000000
26.038245210000,-0.027000000000
26.045932819000,-0.029000000000
26.053620428000,-0.029000000000
26.061308037000,-0.027000000000
26.068995646000,-0.022000000000
26.076683255000,-0.014000000000
26.084370864000,-0.009000000000
26.092058473000,0.002000000000
26.099746082000,0.014000000000
26.107433691000,0.009000000000
26.115121300000,0.004000000000
26.122808909000,0.024000000000
26.130496518000,0.046000000000
26.138184127000,0.049000000000
26.145871736000,0.056000000000
26.153559345000,0.081000000000
26.161246954000,0.098000000000
26.168934563000,0.108000000000
26.176622172000,0.118000000000
26.184309781000,0.125000000000
26.191997390000,0.123000000000
26.199684999000,0.125000000000
26.207372608000,0.130000000000
26.215060217000,0.133000000000
26.222747826000,0.108000000000
26.230435435000,0.064000000000
26.238123044000,0.014000000000
26.245810698000,-0.027000000000
26.253498307000,-0.064000000000
26.261185916000,-0.091000000000
26.268873525000,-0.115000000000
26.276561134000,-0.143000000000
26.284248743000,-0.155000000000
26.291936352000,-0.157000000000
26.299623961000,-0.152000000000
26.307311570000,-0.145000000000
26.314999179000,-0.140000000000
26.322686788000,-0.135000000000
26.330374397000,-0.125000000000
26.338062006000,-0.115000000000
26.345749615000,-0.113000000000
26.353437224000,-0.110000000000
26.361124833000,-0.106000000000
26.368812442000,-0.106000000000
26.376500051000,-0.096000000000
26.384187660000,-0.083000000000
26.391875269000,-0.093000000000
26.399562878000,-0.103000000000
26.407250487000,-0.103000000000
26.414938096000,-0.101000000000
26.422625705000,-0.098000000000
26.430313314000,-0.096000000000
26.438000923000,-0.103000000000
26.445688532000,-0.106000000000
26.453376141000,-0.098000000000
26.461063750000,-0.093000000000
26.468751359000,-0.096000000000
26.476438968000,-0.096000000000
26.484126577000,-0.096000000000
26.491814186000,-0.096000000000
26.499501795000,-0.091000000000
26.507189404000,-0.093000000000
26.514877013000,-0.091000000000
26.522564622000,-0.081000000000
26.530252231000,-0.081000000000
26.537939840000,-0.081000000000
26.545627449000,-0.078000000000
26.553315058000,-0.086000000000
26.561002667000,-0.091000000000
26.568690276000,-0.083000000000
26.576377885000,-0.086000000000
26.584065494000,-0.088000000000
26.591753103000,-0.076000000000
26.599440712000,-0.059000000000
26.607128321000,-0.051000000000
26.614815930000,-0.041000000000
26.622503539000,-0.036000000000
26.630191148000,-0.054000000000
26.637878757000,-0.071000000000
26.645566366000,-0.069000000000
26.653253975000,-0.064000000000
26.660941584000,-0.064000000000
26.668629193000,-0.064000000000
26.676316802000,-0.066000000000
26.684004411000,-0.069000000000
26.691692020000,-0.091000000000
26.699379629000,-0.061000000000
26.707067238000,0.234000000000
26.714754847000,0.695000000000
26.722442456000,0.695000000000
26.730130065000,0.044000000000
26.737817674000,-0.478000000000
26.745505283000,-0.379000000000
26.753192892000,-0.187000000000
26.760880501000,-0.204000000000
26.768568110000,-0.155000000000
26.776255719000,-0.051000000000
26.783943328000,-0.054000000000
26.791630937000,-0.066000000000
26.799318546000,-0.034000000000
26.807006200000,-0.019000000000
26.814694088000,-0.022000000000
26.822381976000,-0.019000000000
26.830069864000,-0.017000000000
26.837757752000,-0.012000000000
26.845445640000,-0.002000000000
26.853133528000,0.000000000000
26.860821416000,-0.002000000000
26.868509304000,0.004000000000
26.876197192000,0.014000000000
26.883885080000,0.024000000000
26.891572968000,0.034000000000
26.899260856000,0.034000000000
26.906948744000,0.039000000000
26.914636632000,0.056000000000
26.922324520000,0.069000000000
26.930012408000,0.073000000000
26.937700296000,0.091000000000
26.945388184000,0.110000000000
26.953076072000,0.123000000000
26.960763960000,0.128000000000
26.968451848000,0.133000000000
26.976139736000,0.135000000000
26.983827624000,0.135000000000
26.991515512000,0.123000000000
26.999203400000,0.091000000000
27.006891288000,0.046000000000
27.014579176000,0.004000000000
27.022267064000,-0.034000000000
27.029954952000,-0.073000000000
27.037642840000,-0.101000000000
27.045330728000,-0.118000000000
27.053018616000,-0.125000000000
27.060706504000,-0.128000000000
27.068394392000,-0.125000000000
27.076082280000,-0.120000000000
27.083770168000,-0.115000000000
27.091458056000,-0.113000000000
27.099145944000,-0.113000000000
27.106833832000,-0.103000000000
27.114521720000,-0.098000000000
27.122209608000,-0.096000000000
27.129897496000,-0.088000000000
27.137585384000,-0.086000000000
27.145273272000,-0.088000000000
27.152961160000,-0.083000000000
27.160649048000,-0.081000000000
27.168336936000,-0.081000000000
27.176024824000,-0.081000000000
27.183712712000,-0.081000000000
27.191400600000,-0.086000000000
27.199088488000,-0.083000000000
27.206776376000,-0.073000000000
27.214464264000,-0.076000000000
27.222152152000,-0.081000000000
27.229840040000,-0.078000000000
27.237527928000,-0.078000000000
27.245215816000,-0.076000000000
27.252903704000,-0.073000000000
27.260591592000,-0.073000000000
27.268279480000,-0.069000000000
27.275967368000,-0.071000000000
27.283655256000,-0.071000000000
27.291343144000,-0.064000000000
27.299031032000,-0.056000000000
27.306718920000,-0.061000000000
27.314406808000,-0.066000000000
27.322094696000,-0.061000000000
27.329782584000,-0.054000000000
27.337470472000,-0.054000000000
27.345158360000,-0.064000000000
27.352846248000,-0.073000000000
27.360534136000,-0.069000000000
27.368222046000,-0.066000000000
27.375909585000,-0.064000000000
27.383597124000,-0.051000000000
27.391284663000,-0.032000000000
27.398972202000,-0.024000000000
27.406659741000,-0.014000000000
27.414347280000,-0.009000000000
27.422034819000,-0.029000000000
27.429722358000,-0.044000000000
27.437409897000,-0.036000000000
27.445097436000,-0.041000000000
27.452784975000,-0.049000000000
27.460472514000,-0.039000000000
27.468160053000,-0.029000000000
27.475847592000,-0.041000000000
27.483535131000,-0.069000000000
27.491222670000,-0.078000000000
27.498910209000,0.086000000000
27.506597748000,0.535000000000
27.514285287000,0.870000000000
27.521972826000,0.557000000000
27.529660365000,-0.118000000000
27.537347904000,-0.355000000000
27.545035443000,-0.170000000000
27.552722982000,-0.125000000000
27.560410521000,-0.160000000000
27.568098060000,-0.073000000000
27.575785599000,-0.039000000000
27.583473138000,-0.071000000000
27.591160677000,-0.054000000000
27.598848216000,-0.034000000000
27.606535755000,-0.036000000000
27.614223294000,-0.027000000000
27.621910833000,-0.012000000000
27.629598372000,-0.014000000000
27.637285911000,-0.009000000000
27.644973450000,0.002000000000
27.652660989000,0.004000000000
27.660348528000,0.002000000000
27.668036067000,0.002000000000
27.675723606000,0.012000000000
27.683411145000,0.022000000000
27.691098684000,0.029000000000
27.698786223000,0.036000000000
27.706473762000,0.044000000000
27.714161301000,0.056000000000
27.721848840000,0.076000000000
27.729536379000,0.091000000000
27.737223918000,0.098000000000
27.744911457000,0.110000000000
27.752598996000,0.123000000000
27.760286535000,0.125000000000
27.767974074000,0.130000000000
27.775661613000,0.140000000000
27.783349152000,0.138000000000
27.791036691000,0.115000000000
27.798724230000,0.086000000000
27.806411769000,0.046000000000
27.814099308000,0.007000000000
27.821786847000,-0.022000000000
27.829474386000,-0.051000000000
27.837161925000,-0.081000000000
27.844849464000,-0.093000000000
27.852537003000,-0.088000000000
27.860224542000,-0.096000000000
27.867912081000,-0.101000000000
27.875599620000,-0.093000000000
27.883287159000,-0.086000000000
27.890974698000,-0.083000000000
27.898662237000,-0.073000000000
27.906349776000,-0.076000000000
27.914037315000,-0.081000000000
27.921724854000,-0.073000000000
27.929412461000,-0.069000000000
27.937100279000,-0.073000000000
27.944788097000,-0.073000000000
27.952475915000,-0.073000000000
27.960163733000,-0.071000000000
27.967851551000,-0.069000000000
27.975539369000,-0.069000000000
27.983227187000,-0.069000000000
27.990915005000,-0.069000000000
27.998602823000,-0.066000000000
28.006290641000,-0.064000000000
28.013978459000,-0.069000000000
28.021666277000,-0.076000000000
28.029354095000,-0.073000000000
28.037041913000,-0.069000000000
28.044729731000,-0.066000000000
28.052417549000,-0.069000000000
28.060105367000,-0.064000000000
28.067793185000,-0.056000000000
28.075481003000,-0.061000000000
28.083168821000,-0.071000000000
28.090856639000,-0.066000000000
28.098544457000,-0.059000000000
28.106232275000,-0.061000000000
28.113920093000,-0.066000000000
28.121607911000,-0.059000000000
28.129295729000,-0.051000000000
28.136983547000,-0.051000000000
28.144671365000,-0.056000000000
28.152359183000,-0.051000000000
28.160047001000,-0.044000000000
28.167734819000,-0.056000000000
28.175422637000,-0.069000000000
28.183110455000,-0.064000000000
28.190798273000,-0.056000000000
28.198486091000,-0.059000000000
28.206173909000,-0.049000000000
28.213861727000,-0.034000000000
28.221549545000,-0.017000000000
28.229237363000,-0.007000000000
28.236925181000,-0.014000000000
28.244612999000,-0.036000000000
28.252300817000,-0.044000000000
28.259988635000,-0.039000000000
28.267676453000,-0.039000000000
28.275364271000,-0.036000000000
28.283052089000,-0.039000000000
28.290739907000,-0.049000000000
28.298427725000,-0.054000000000
28.306115543000,-0.073000000000
28.313803361000,-0.046000000000
28.321491179000,0.236000000000
28.329178997000,0.700000000000
28.336866815000,0.774000000000
28.344554633000,0.199000000000
28.352242451000,-0.347000000000
28.359930269000,-0.320000000000
28.367618087000,-0.152000000000
28.375305905000,-0.177000000000
28.382993723000,-0.138000000000
28.390681541000,-0.049000000000
28.398369359000,-0.064000000000
28.406057177000,-0.071000000000
28.413744995000,-0.039000000000
28.421432813000,-0.036000000000
28.429120631000,-0.039000000000
28.436808449000,-0.027000000000
28.444496267000,-0.022000000000
28.452184085000,-0.024000000000
28.459871903000,-0.014000000000
28.467559721000,0.002000000000
28.475247539000,0.000000000000
28.482935357000,-0.004000000000
28.490623224000,0.002000000000
28.498310833000,0.014000000000
28.505998442000,0.017000000000
28.513686051000,0.024000000000
28.521373660000,0.044000000000
28.529061269000,0.059000000000
28.536748878000,0.066000000000
28.544436487000,0.078000000000
28.552124096000,0.093000000000
28.559811705000,0.106000000000
28.567499314000,0.110000000000
28.575186923000,0.120000000000
28.582874532000,0.125000000000
28.590562141000,0.123000000000
28.598249750000,0.118000000000
28.605937359000,0.113000000000
28.613624968000,0.088000000000
28.621312577000,0.044000000000
28.629000186000,0.009000000000
28.636687795000,-0.027000000000
28.644375404000,-0.071000000000
28.652063013000,-0.108000000000
28.659750622000,-0.128000000000
28.667438231000,-0.133000000000
28.675125840000,-0.140000000000
28.682813449000,-0.150000000000
28.690501058000,-0.135000000000
28.698188667000,-0.110000000000
28.705876276000,-0.118000000000
28.713563885000,-0.140000000000
28.721251494000,-0.125000000000
28.728939103000,-0.101000000000
28.736626712000,-0.106000000000
28.744314321000,-0.118000000000
28.752001930000,-0.113000000000
28.759689539000,-0.101000000000
28.767377148000,-0.091000000000
28.775064757000,-0.093000000000
28.782752366000,-0.106000000000
28.790439975000,-0.106000000000
28.798127584000,-0.096000000000
28.805815193000,-0.098000000000
28.813502802000,-0.106000000000
28.821190411000,-0.098000000000
28.828878020000,-0.093000000000
28.836565629000,-0.101000000000
28.844253238000,-0.103000000000
28.851940847000,-0.098000000000
28.859628456000,-0.098000000000
28.867316065000,-0.103000000000
28.875003674000,-0.096000000000
28.882691283000,-0.086000000000
28.890378892000,-0.091000000000
28.898066501000,-0.103000000000
28.905754110000,-0.106000000000
28.913441719000,-0.088000000000
28.921129328000,-0.071000000000
28.928816937000,-0.076000000000
28.936504546000,-0.088000000000
28.944192155000,-0.091000000000
28.951879764000,-0.088000000000
28.959567373000,-0.086000000000
28.967254982000,-0.083000000000
28.974942591000,-0.078000000000
28.982630200000,-0.088000000000
28.990317809000,-0.081000000000
28.998005418000,-0.054000000000
29.005693027000,-0.054000000000
29.013380636000,-0.056000000000
29.021068245000,-0.034000000000
29.028755854000,-0.041000000000
29.036443463000,-0.071000000000
29.044131072000,-0.073000000000
29.051818726000,-0.066000000000
29.059506335000,-0.073000000000
29.067193944000,-0.073000000000
29.074881553000,-0.069000000000
29.082569162000,-0.071000000000
29.090256771000,-0.086000000000
29.097944380000,-0.091000000000
29.105631989000,0.059000000000
29.113319598000,0.475000000000
29.121007207000,0.757000000000
29.128694816000,0.350000000000
29.136382425000,-0.362000000000
29.144070034000,-0.530000000000
29.151757643000,-0.286000000000
29.159445252000,-0.216000000000
29.167132861000,-0.234000000000
29.174820470000,-0.118000000000
29.182508079000,-0.041000000000
29.190195688000,-0.069000000000
29.197883297000,-0.066000000000
29.205570906000,-0.034000000000
29.213258515000,-0.032000000000
29.220946124000,-0.036000000000
29.228633733000,-0.022000000000
29.236321342000,-0.012000000000
29.244008951000,-0.012000000000
29.251696560000,-0.009000000000
29.259384169000,-0.004000000000
29.267071778000,0.004000000000
29.274759387000,0.012000000000
29.282446996000,0.012000000000
29.290134605000,0.022000000000
29.297822214000,0.041000000000
29.305509823000,0.046000000000
29.313197432000,0.054000000000
29.320885041000,0.071000000000
29.328572650000,0.083000000000
29.336260259000,0.093000000000
