time,LSB
0.000000000000,0.779000000000
0.007687052000,0.165000000000
0.015374104000,-0.440000000000
0.023061156000,-0.404000000000
0.030748208000,-0.177000000000
0.038435260000,-0.187000000000
0.046122312000,-0.163000000000
0.053809364000,-0.074000000000
0.061496416000,-0.076000000000
0.069183468000,-0.091000000000
0.076870520000,-0.062000000000
0.084557572000,-0.050000000000
0.092244624000,-0.052000000000
0.099931676000,-0.036000000000
0.107618728000,-0.026000000000
0.115305780000,-0.026000000000
0.122992832000,-0.019000000000
0.130679884000,-0.007000000000
0.138366936000,-0.004000000000
0.146053988000,0.002000000000
0.153741040000,0.012000000000
0.161428092000,0.019000000000
0.169115144000,0.026000000000
0.176802196000,0.036000000000
0.184489248000,0.040000000000
0.192176300000,0.036000000000
0.199863352000,0.031000000000
0.207550404000,0.031000000000
0.215237456000,0.031000000000
0.222924508000,0.031000000000
0.230611560000,0.028000000000
0.238298612000,0.026000000000
0.245985664000,0.016000000000
0.253672716000,-0.004000000000
0.261359768000,-0.031000000000
0.269046838000,-0.057000000000
0.276734029000,-0.084000000000
0.284421220000,-0.101000000000
0.292108411000,-0.110000000000
0.299795602000,-0.115000000000
0.307482793000,-0.115000000000
0.315169984000,-0.110000000000
0.322857175000,-0.105000000000
0.330544366000,-0.103000000000
0.338231557000,-0.101000000000
0.345918748000,-0.098000000000
0.353605939000,-0.098000000000
0.361293130000,-0.098000000000
0.368980321000,-0.098000000000
0.376667512000,-0.096000000000
0.384354703000,-0.096000000000
0.392041894000,-0.098000000000
0.399729085000,-0.098000000000
0.407416276000,-0.098000000000
0.415103467000,-0.103000000000
0.422790658000,-0.105000000000
0.430477849000,-0.103000000000
0.438165040000,-0.105000000000
0.445852231000,-0.110000000000
0.453539422000,-0.117000000000
0.461226613000,-0.122000000000
0.468913804000,-0.122000000000
0.476600995000,-0.110000000000
0.484288186000,-0.098000000000
0.491975377000,-0.091000000000
0.499662568000,-0.074000000000
0.507349759000,-0.052000000000
0.515036950000,-0.062000000000
0.522724141000,-0.088000000000
0.530411332000,-0.091000000000
0.538098523000,-0.086000000000
0.545785714000,-0.088000000000
0.553472905000,-0.086000000000
0.561160096000,-0.084000000000
0.568847287000,-0.101000000000
0.576534478000,-0.144000000000
0.584221669000,-0.115000000000
0.591908860000,0.211000000000
0.599596051000,0.709000000000
0.607283242000,0.752000000000
0.614970433000,0.113000000000
0.622657624000,-0.473000000000
0.630344815000,-0.425000000000
0.638032006000,-0.202000000000
0.645719197000,-0.199000000000
0.653406388000,-0.165000000000
0.661093579000,-0.074000000000
0.668780770000,-0.076000000000
0.676467961000,-0.091000000000
0.684155152000,-0.060000000000
0.691842343000,-0.045000000000
0.699529534000,-0.048000000000
0.707216725000,-0.033000000000
0.714903916000,-0.021000000000
0.722591107000,-0.019000000000
0.730278298000,-0.012000000000
0.737965489000,-0.004000000000
0.745652680000,0.000000000000
0.753339871000,0.004000000000
0.761027062000,0.016000000000
0.768714253000,0.024000000000
0.776401444000,0.033000000000
0.784088635000,0.040000000000
0.791775826000,0.045000000000
0.799463017000,0.048000000000
0.807150208000,0.050000000000
0.814837399000,0.050000000000
0.822524590000,0.052000000000
0.830211822000,0.060000000000
0.837898943000,0.064000000000
0.845586064000,0.057000000000
0.853273185000,0.038000000000
0.860960306000,0.012000000000
0.868647427000,-0.019000000000
0.876334548000,-0.055000000000
0.884021669000,-0.086000000000
0.891708790000,-0.105000000000
0.899395911000,-0.115000000000
0.907083032000,-0.120000000000
0.914770153000,-0.117000000000
0.922457274000,-0.115000000000
0.930144395000,-0.115000000000
0.937831516000,-0.115000000000
0.945518637000,-0.113000000000
0.953205758000,-0.108000000000
0.960892879000,-0.105000000000
0.968580000000,-0.105000000000
0.976267121000,-0.105000000000
0.983954242000,-0.105000000000
0.991641363000,-0.105000000000
0.999328484000,-0.110000000000
1.007015605000,-0.108000000000
1.014702726000,-0.105000000000
1.022389847000,-0.108000000000
1.030076968000,-0.110000000000
1.037764089000,-0.110000000000
1.045451210000,-0.110000000000
1.053138331000,-0.110000000000
1.060825452000,-0.110000000000
1.068512573000,-0.115000000000
1.076199694000,-0.125000000000
1.083886815000,-0.127000000000
1.091573936000,-0.122000000000
1.099261057000,-0.117000000000
1.106948178000,-0.108000000000
1.114635299000,-0.096000000000
1.122322420000,-0.076000000000
1.130009541000,-0.060000000000
1.137696662000,-0.072000000000
1.145383783000,-0.093000000000
1.153070904000,-0.093000000000
1.160758025000,-0.091000000000
1.168445146000,-0.098000000000
1.176132267000,-0.096000000000
1.183819388000,-0.093000000000
1.191506509000,-0.103000000000
1.199193630000,-0.137000000000
1.206880751000,-0.096000000000
1.214567872000,0.240000000000
1.222254993000,0.735000000000
1.229942114000,0.740000000000
1.237629235000,0.060000000000
1.245316356000,-0.524000000000
1.253003477000,-0.459000000000
1.260690598000,-0.235000000000
1.268377719000,-0.228000000000
1.276064840000,-0.185000000000
1.283751961000,-0.088000000000
1.291439082000,-0.088000000000
1.299126203000,-0.101000000000
1.306813324000,-0.067000000000
1.314500445000,-0.055000000000
1.322187566000,-0.060000000000
1.329874687000,-0.048000000000
1.337561808000,-0.033000000000
1.345248929000,-0.026000000000
1.352936050000,-0.021000000000
1.360623171000,-0.012000000000
1.368310292000,0.002000000000
1.375997413000,0.012000000000
1.383684534000,0.016000000000
1.391371719000,0.028000000000
1.399058562000,0.043000000000
1.406745405000,0.052000000000
1.414432248000,0.057000000000
1.422119091000,0.069000000000
1.429805934000,0.079000000000
1.437492777000,0.081000000000
1.445179620000,0.088000000000
1.452866463000,0.101000000000
1.460553306000,0.108000000000
1.468240149000,0.101000000000
1.475926992000,0.076000000000
1.483613835000,0.036000000000
1.491300678000,-0.009000000000
1.498987521000,-0.052000000000
1.506674364000,-0.088000000000
1.514361207000,-0.115000000000
1.522048050000,-0.127000000000
1.529734893000,-0.132000000000
1.537421736000,-0.134000000000
1.545108579000,-0.134000000000
1.552795422000,-0.134000000000
1.560482265000,-0.132000000000
1.568169108000,-0.127000000000
1.575855951000,-0.120000000000
1.583542794000,-0.120000000000
1.591229637000,-0.122000000000
1.598916480000,-0.122000000000
1.606603323000,-0.120000000000
1.614290166000,-0.117000000000
1.621977009000,-0.120000000000
1.629663852000,-0.125000000000
1.637350695000,-0.127000000000
1.645037538000,-0.127000000000
1.652724381000,-0.127000000000
1.660411224000,-0.127000000000
1.668098067000,-0.132000000000
1.675784910000,-0.141000000000
1.683471753000,-0.141000000000
1.691158596000,-0.137000000000
1.698845439000,-0.132000000000
1.706532282000,-0.125000000000
1.714219125000,-0.122000000000
1.721905968000,-0.117000000000
1.729592811000,-0.093000000000
1.737279654000,-0.081000000000
1.744966497000,-0.101000000000
1.752653340000,-0.113000000000
1.760340183000,-0.110000000000
1.768027026000,-0.113000000000
1.775713869000,-0.108000000000
1.783400712000,-0.103000000000
1.791087555000,-0.110000000000
1.798774398000,-0.127000000000
1.806461241000,-0.125000000000
1.814148084000,0.062000000000
1.821834927000,0.529000000000
1.829521770000,0.791000000000
1.837208613000,0.288000000000
1.844895456000,-0.483000000000
1.852582299000,-0.639000000000
1.860269142000,-0.355000000000
1.867955985000,-0.264000000000
1.875642828000,-0.257000000000
1.883329671000,-0.125000000000
1.891016514000,-0.062000000000
1.898703357000,-0.091000000000
1.906390200000,-0.076000000000
1.914077043000,-0.048000000000
1.921763886000,-0.052000000000
1.929450729000,-0.043000000000
1.937137572000,-0.024000000000
1.944824415000,-0.021000000000
1.952511272000,-0.016000000000
1.960198254000,-0.002000000000
1.967885236000,0.012000000000
1.975572218000,0.021000000000
1.983259200000,0.028000000000
1.990946182000,0.043000000000
1.998633164000,0.062000000000
2.006320146000,0.076000000000
2.014007128000,0.086000000000
2.021694110000,0.098000000000
2.029381092000,0.110000000000
2.037068074000,0.120000000000
2.044755056000,0.125000000000
2.052442038000,0.132000000000
2.060129020000,0.137000000000
2.067816002000,0.129000000000
2.075502984000,0.108000000000
2.083189966000,0.067000000000
2.090876948000,0.014000000000
2.098563930000,-0.036000000000
2.106250912000,-0.079000000000
2.113937894000,-0.120000000000
2.121624876000,-0.141000000000
2.129311858000,-0.151000000000
2.136998840000,-0.158000000000
2.144685822000,-0.158000000000
2.152372804000,-0.151000000000
2.160059786000,-0.146000000000
2.167746768000,-0.139000000000
2.175433750000,-0.137000000000
2.183120732000,-0.129000000000
2.190807714000,-0.127000000000
2.198494696000,-0.134000000000
2.206181678000,-0.132000000000
2.213868660000,-0.129000000000
2.221555642000,-0.132000000000
2.229242624000,-0.134000000000
2.236929606000,-0.132000000000
2.244616588000,-0.132000000000
2.252303570000,-0.139000000000
2.259990552000,-0.139000000000
2.267677534000,-0.141000000000
2.275364516000,-0.151000000000
2.283051498000,-0.153000000000
2.290738480000,-0.149000000000
2.298425462000,-0.139000000000
2.306112444000,-0.132000000000
2.313799426000,-0.137000000000
2.321486408000,-0.127000000000
2.329173390000,-0.096000000000
2.336860372000,-0.086000000000
2.344547354000,-0.110000000000
2.352234336000,-0.117000000000
2.359921318000,-0.110000000000
2.367608300000,-0.113000000000
2.375295282000,-0.113000000000
2.382982264000,-0.103000000000
2.390669246000,-0.115000000000
2.398356228000,-0.146000000000
2.406043210000,-0.129000000000
2.413730192000,0.129000000000
2.421417174000,0.642000000000
2.429104156000,0.800000000000
2.436791138000,0.168000000000
2.444478120000,-0.555000000000
2.452165102000,-0.579000000000
2.459852084000,-0.290000000000
2.467539066000,-0.247000000000
2.475226048000,-0.233000000000
2.482913030000,-0.113000000000
2.490600012000,-0.074000000000
2.498286994000,-0.098000000000
2.505973976000,-0.076000000000
2.513660995000,-0.055000000000
2.521348116000,-0.052000000000
2.529035237000,-0.045000000000
2.536722358000,-0.033000000000
2.544409479000,-0.026000000000
2.552096600000,-0.019000000000
2.559783721000,-0.012000000000
2.567470842000,0.000000000000
2.575157963000,0.014000000000
2.582845084000,0.026000000000
2.590532205000,0.040000000000
2.598219326000,0.050000000000
2.605906447000,0.062000000000
2.613593568000,0.074000000000
2.621280689000,0.091000000000
2.628967810000,0.098000000000
2.636654931000,0.103000000000
2.644342052000,0.110000000000
2.652029173000,0.117000000000
2.659716294000,0.117000000000
2.667403415000,0.113000000000
2.675090536000,0.101000000000
2.682777657000,0.072000000000
2.690464778000,0.026000000000
2.698151899000,-0.021000000000
2.705839020000,-0.062000000000
2.713526141000,-0.096000000000
2.721213262000,-0.117000000000
2.728900383000,-0.122000000000
2.736587504000,-0.120000000000
2.744274625000,-0.120000000000
2.751961746000,-0.117000000000
2.759648867000,-0.113000000000
2.767335988000,-0.110000000000
2.775023109000,-0.105000000000
2.782710230000,-0.105000000000
2.790397351000,-0.103000000000
2.798084472000,-0.101000000000
2.805771593000,-0.103000000000
2.813458714000,-0.108000000000
2.821145835000,-0.110000000000
2.828832956000,-0.110000000000
2.836520077000,-0.115000000000
2.844207198000,-0.117000000000
2.851894319000,-0.117000000000
2.859581440000,-0.120000000000
2.867268561000,-0.129000000000
2.874955682000,-0.139000000000
2.882642803000,-0.141000000000
2.890329924000,-0.137000000000
2.898017045000,-0.129000000000
2.905704166000,-0.122000000000
2.913391287000,-0.113000000000
2.921078408000,-0.091000000000
2.928765529000,-0.076000000000
2.936452650000,-0.091000000000
2.944139771000,-0.108000000000
2.951826892000,-0.105000000000
2.959514013000,-0.105000000000
2.967201134000,-0.105000000000
2.974888255000,-0.098000000000
2.982575376000,-0.098000000000
2.990262497000,-0.127000000000
2.997949618000,-0.180000000000
3.005636739000,-0.079000000000
3.013323860000,0.367000000000
3.021010981000,0.839000000000
3.028698102000,0.697000000000
3.036385223000,-0.036000000000
3.044072344000,-0.505000000000
3.051759465000,-0.346000000000
3.059446586000,-0.180000000000
3.067133707000,-0.216000000000
3.074820892000,-0.153000000000
3.082507595000,-0.076000000000
3.090194298000,-0.098000000000
3.097881001000,-0.096000000000
3.105567704000,-0.062000000000
3.113254407000,-0.060000000000
3.120941110000,-0.057000000000
3.128627813000,-0.043000000000
3.136314516000,-0.038000000000
3.144001219000,-0.038000000000
3.151687922000,-0.028000000000
3.159374625000,-0.019000000000
3.167061328000,-0.012000000000
3.174748031000,-0.002000000000
3.182434734000,0.007000000000
3.190121437000,0.014000000000
3.197808140000,0.021000000000
3.205494843000,0.028000000000
3.213181546000,0.038000000000
3.220868249000,0.043000000000
3.228554952000,0.040000000000
3.236241655000,0.036000000000
3.243928358000,0.031000000000
3.251615061000,0.033000000000
3.259301764000,0.031000000000
3.266988467000,0.021000000000
3.274675170000,0.004000000000
3.282361873000,-0.016000000000
3.290048576000,-0.045000000000
3.297735279000,-0.072000000000
3.305421982000,-0.096000000000
3.313108685000,-0.113000000000
3.320795388000,-0.115000000000
3.328482091000,-0.115000000000
3.336168794000,-0.115000000000
3.343855497000,-0.113000000000
3.351542200000,-0.108000000000
3.359228903000,-0.108000000000
3.366915606000,-0.101000000000
3.374602309000,-0.093000000000
3.382289012000,-0.096000000000
3.389975715000,-0.103000000000
3.397662418000,-0.098000000000
3.405349121000,-0.093000000000
3.413035824000,-0.098000000000
3.420722527000,-0.101000000000
3.428409230000,-0.101000000000
3.436095933000,-0.103000000000
3.443782636000,-0.101000000000
3.451469339000,-0.101000000000
3.459156042000,-0.103000000000
3.466842745000,-0.108000000000
3.474529448000,-0.115000000000
3.482216151000,-0.122000000000
3.489902854000,-0.122000000000
3.497589557000,-0.115000000000
3.505276260000,-0.105000000000
3.512962963000,-0.098000000000
3.520649666000,-0.084000000000
3.528336369000,-0.060000000000
3.536023072000,-0.055000000000
3.543709775000,-0.079000000000
3.551396478000,-0.091000000000
3.559083181000,-0.086000000000
3.566769884000,-0.088000000000
3.574456587000,-0.088000000000
3.582143290000,-0.081000000000
3.589829993000,-0.084000000000
3.597516696000,-0.122000000000
3.605203399000,-0.158000000000
3.612890102000,0.016000000000
3.620576805000,0.524000000000
3.628263508000,0.901000000000
3.635950271000,0.574000000000
3.643637392000,-0.175000000000
3.651324513000,-0.480000000000
3.659011634000,-0.271000000000
3.666698755000,-0.170000000000
3.674385876000,-0.199000000000
3.682072997000,-0.117000000000
3.689760118000,-0.076000000000
3.697447239000,-0.105000000000
3.705134360000,-0.088000000000
3.712821481000,-0.060000000000
3.720508602000,-0.060000000000
3.728195723000,-0.052000000000
3.735882844000,-0.036000000000
3.743569965000,-0.033000000000
3.751257086000,-0.031000000000
3.758944207000,-0.021000000000
3.766631328000,-0.009000000000
3.774318449000,-0.002000000000
3.782005570000,0.004000000000
3.789692691000,0.012000000000
3.797379812000,0.021000000000
3.805066933000,0.031000000000
3.812754054000,0.036000000000
3.820441175000,0.040000000000
3.828128296000,0.043000000000
3.835815417000,0.043000000000
3.843502538000,0.038000000000
3.851189659000,0.033000000000
3.858876780000,0.031000000000
3.866563901000,0.026000000000
3.874251022000,0.016000000000
3.881938143000,0.000000000000
3.889625264000,-0.024000000000
3.897312385000,-0.050000000000
3.904999506000,-0.079000000000
3.912686627000,-0.103000000000
3.920373748000,-0.115000000000
3.928060869000,-0.120000000000
3.935747990000,-0.120000000000
3.943435111000,-0.117000000000
3.951122232000,-0.113000000000
3.958809353000,-0.108000000000
3.966496474000,-0.108000000000
3.974183595000,-0.105000000000
3.981870716000,-0.103000000000
3.989557837000,-0.103000000000
3.997244958000,-0.098000000000
4.004932079000,-0.098000000000
4.012619200000,-0.103000000000
4.020306321000,-0.101000000000
4.027993442000,-0.096000000000
4.035680563000,-0.103000000000
4.043367684000,-0.108000000000
4.051054805000,-0.108000000000
4.058741926000,-0.105000000000
4.066429047000,-0.108000000000
4.074116168000,-0.108000000000
4.081803289000,-0.105000000000
4.089490410000,-0.105000000000
4.097177531000,-0.110000000000
4.104864652000,-0.115000000000
4.112551773000,-0.120000000000
4.120238894000,-0.125000000000
4.127926015000,-0.122000000000
4.135613136000,-0.105000000000
4.143300257000,-0.096000000000
4.150987378000,-0.086000000000
4.158674499000,-0.062000000000
4.166361620000,-0.060000000000
4.174048741000,-0.084000000000
4.181735862000,-0.093000000000
4.189422983000,-0.088000000000
4.197110168000,-0.088000000000
4.204797289000,-0.088000000000
4.212484410000,-0.086000000000
4.220171531000,-0.088000000000
4.227858652000,-0.117000000000
4.235545773000,-0.151000000000
4.243232894000,-0.002000000000
4.250920015000,0.478000000000
4.258607136000,0.880000000000
4.266294257000,0.603000000000
4.273981378000,-0.153000000000
4.281668499000,-0.524000000000
4.289355620000,-0.334000000000
4.297042741000,-0.199000000000
4.304729862000,-0.221000000000
4.312416983000,-0.137000000000
4.320104104000,-0.079000000000
4.327791225000,-0.105000000000
4.335478346000,-0.096000000000
4.343165467000,-0.062000000000
4.350852588000,-0.062000000000
4.358539709000,-0.060000000000
4.366226830000,-0.043000000000
4.373913951000,-0.038000000000
4.381601072000,-0.036000000000
4.389288193000,-0.024000000000
4.396975314000,-0.014000000000
4.404662435000,-0.007000000000
4.412349556000,0.002000000000
4.420036677000,0.014000000000
4.427723798000,0.021000000000
4.435410919000,0.028000000000
4.443098040000,0.036000000000
4.450785161000,0.040000000000
4.458472282000,0.040000000000
4.466159403000,0.045000000000
4.473846524000,0.045000000000
4.481533645000,0.040000000000
4.489220766000,0.043000000000
4.496907887000,0.048000000000
4.504595008000,0.040000000000
4.512282129000,0.021000000000
4.519969250000,-0.002000000000
4.527656371000,-0.038000000000
4.535343492000,-0.074000000000
4.543030613000,-0.105000000000
4.550717734000,-0.125000000000
4.558404855000,-0.132000000000
4.566091976000,-0.132000000000
4.573779097000,-0.134000000000
4.581466218000,-0.134000000000
4.589153339000,-0.129000000000
4.596840460000,-0.125000000000
4.604527581000,-0.125000000000
4.612214702000,-0.125000000000
4.619901823000,-0.125000000000
4.627588944000,-0.127000000000
4.635276065000,-0.125000000000
4.642963186000,-0.120000000000
4.650650307000,-0.120000000000
4.658337428000,-0.127000000000
4.666024549000,-0.129000000000
4.673711670000,-0.129000000000
4.681398791000,-0.132000000000
4.689085912000,-0.132000000000
4.696773033000,-0.127000000000
4.704460154000,-0.134000000000
4.712147275000,-0.141000000000
4.719834396000,-0.137000000000
4.727521517000,-0.134000000000
4.735208638000,-0.144000000000
4.742895759000,-0.146000000000
4.750582880000,-0.149000000000
4.758270069000,-0.151000000000
4.765957190000,-0.141000000000
4.773644311000,-0.132000000000
4.781331432000,-0.127000000000
4.789018553000,-0.113000000000
4.796705674000,-0.093000000000
4.804392795000,-0.101000000000
4.812079916000,-0.120000000000
4.819767037000,-0.122000000000
4.827454158000,-0.120000000000
4.835141279000,-0.125000000000
4.842828400000,-0.122000000000
4.850515521000,-0.120000000000
4.858202642000,-0.125000000000
4.865889763000,-0.146000000000
4.873576884000,-0.113000000000
4.881264005000,0.194000000000
4.888951126000,0.714000000000
4.896638247000,0.781000000000
4.904325368000,0.098000000000
4.912012489000,-0.548000000000
4.919699610000,-0.526000000000
4.927386731000,-0.293000000000
4.935073852000,-0.274000000000
4.942760973000,-0.235000000000
4.950448094000,-0.115000000000
4.958135215000,-0.098000000000
4.965822336000,-0.117000000000
4.973509457000,-0.093000000000
4.981196578000,-0.074000000000
4.988883699000,-0.072000000000
4.996570820000,-0.060000000000
5.004257941000,-0.048000000000
5.011945062000,-0.040000000000
5.019632183000,-0.033000000000
5.027319304000,-0.024000000000
5.035006425000,-0.012000000000
5.042693546000,0.000000000000
5.050380667000,0.009000000000
5.058067788000,0.026000000000
5.065754909000,0.043000000000
5.073442030000,0.048000000000
5.081129151000,0.057000000000
5.088816272000,0.074000000000
5.096503393000,0.084000000000
5.104190514000,0.086000000000
5.111877635000,0.091000000000
5.119564756000,0.103000000000
5.127251877000,0.110000000000
5.134938998000,0.103000000000
5.142626119000,0.084000000000
5.150313240000,0.048000000000
5.158000361000,0.004000000000
5.165687482000,-0.043000000000
5.173374603000,-0.093000000000
5.181061724000,-0.134000000000
5.188748845000,-0.149000000000
5.196435966000,-0.149000000000
5.204123087000,-0.156000000000
5.211810208000,-0.156000000000
5.219497329000,-0.144000000000
5.227184450000,-0.139000000000
5.234871571000,-0.141000000000
5.242558692000,-0.137000000000
5.250245813000,-0.132000000000
5.257932934000,-0.132000000000
5.265620055000,-0.132000000000
5.273307176000,-0.129000000000
5.280994297000,-0.132000000000
5.288681418000,-0.134000000000
5.296368539000,-0.137000000000
5.304055660000,-0.141000000000
5.311742781000,-0.134000000000
5.319429966000,-0.132000000000
5.327116878000,-0.141000000000
5.334803790000,-0.141000000000
5.342490702000,-0.137000000000
5.350177614000,-0.139000000000
5.357864526000,-0.144000000000
5.365551438000,-0.149000000000
5.373238350000,-0.151000000000
5.380925262000,-0.153000000000
5.388612174000,-0.153000000000
5.396299086000,-0.146000000000
5.403985998000,-0.132000000000
5.411672910000,-0.120000000000
5.419359822000,-0.108000000000
5.427046734000,-0.096000000000
5.434733646000,-0.103000000000
5.442420558000,-0.115000000000
5.450107470000,-0.117000000000
5.457794382000,-0.120000000000
5.465481294000,-0.120000000000
5.473168206000,-0.115000000000
5.480855118000,-0.115000000000
5.488542030000,-0.125000000000
5.496228942000,-0.137000000000
5.503915854000,0.009000000000
5.511602766000,0.483000000000
5.519289678000,0.870000000000
5.526976590000,0.519000000000
5.534663502000,-0.295000000000
5.542350414000,-0.634000000000
5.550037326000,-0.401000000000
5.557724238000,-0.259000000000
5.565411150000,-0.266000000000
5.573098062000,-0.165000000000
5.580784974000,-0.091000000000
5.588471886000,-0.110000000000
5.596158798000,-0.103000000000
5.603845710000,-0.074000000000
5.611532622000,-0.064000000000
5.619219534000,-0.060000000000
5.626906446000,-0.050000000000
5.634593358000,-0.043000000000
5.642280270000,-0.036000000000
5.649967182000,-0.028000000000
5.657654094000,-0.014000000000
5.665341006000,0.000000000000
5.673027918000,0.009000000000
5.680714830000,0.019000000000
5.688401742000,0.036000000000
5.696088654000,0.045000000000
5.703775566000,0.052000000000
5.711462478000,0.069000000000
5.719149390000,0.084000000000
5.726836302000,0.084000000000
5.734523214000,0.081000000000
5.742210126000,0.098000000000
5.749897038000,0.105000000000
5.757583950000,0.098000000000
5.765270862000,0.084000000000
5.772957774000,0.064000000000
5.780644686000,0.028000000000
5.788331598000,-0.024000000000
5.796018510000,-0.076000000000
5.803705422000,-0.117000000000
5.811392334000,-0.139000000000
5.819079246000,-0.151000000000
5.826766158000,-0.156000000000
5.834453070000,-0.151000000000
5.842139982000,-0.146000000000
5.849826894000,-0.146000000000
5.857513806000,-0.141000000000
5.865200718000,-0.137000000000
5.872887630000,-0.134000000000
5.880574606000,-0.129000000000
5.888261518000,-0.127000000000
5.895948430000,-0.122000000000
5.903635342000,-0.122000000000
5.911322254000,-0.125000000000
5.919009166000,-0.125000000000
5.926696078000,-0.125000000000
5.934382990000,-0.127000000000
5.942069902000,-0.132000000000
5.949756814000,-0.134000000000
5.957443726000,-0.137000000000
5.965130638000,-0.137000000000
5.972817550000,-0.139000000000
5.980504462000,-0.144000000000
5.988191374000,-0.146000000000
5.995878286000,-0.146000000000
6.003565198000,-0.146000000000
6.011252110000,-0.139000000000
6.018939022000,-0.132000000000
6.026625934000,-0.127000000000
6.034312846000,-0.105000000000
6.041999758000,-0.086000000000
6.049686670000,-0.093000000000
6.057373582000,-0.110000000000
6.065060494000,-0.113000000000
6.072747406000,-0.108000000000
6.080434318000,-0.110000000000
6.088121230000,-0.105000000000
6.095808142000,-0.101000000000
6.103495054000,-0.113000000000
6.111181966000,-0.149000000000
6.118868878000,-0.088000000000
6.126555790000,0.290000000000
6.134242702000,0.820000000000
6.141929614000,0.808000000000
6.149616526000,0.062000000000
6.157303438000,-0.567000000000
6.164990350000,-0.488000000000
6.172677262000,-0.245000000000
6.180364174000,-0.247000000000
6.188051086000,-0.206000000000
6.195737998000,-0.091000000000
6.203424910000,-0.081000000000
6.211111822000,-0.101000000000
6.218798734000,-0.069000000000
6.226485646000,-0.050000000000
6.234172558000,-0.050000000000
6.241859470000,-0.040000000000
6.249546382000,-0.028000000000
6.257233294000,-0.026000000000
6.264920206000,-0.016000000000
6.272607118000,-0.002000000000
6.280294030000,0.004000000000
6.287980942000,0.012000000000
6.295667854000,0.024000000000
6.303354766000,0.036000000000
6.311041678000,0.048000000000
6.318728590000,0.062000000000
6.326415502000,0.074000000000
6.334102414000,0.084000000000
6.341789326000,0.088000000000
6.349476238000,0.091000000000
6.357163150000,0.088000000000
6.364850062000,0.088000000000
6.372536974000,0.086000000000
6.380223886000,0.076000000000
6.387910798000,0.057000000000
6.395597710000,0.031000000000
6.403284622000,-0.002000000000
6.410971534000,-0.043000000000
6.418658446000,-0.081000000000
6.426345358000,-0.110000000000
6.434032270000,-0.125000000000
6.441719242000,-0.132000000000
6.449406363000,-0.137000000000
6.457093484000,-0.132000000000
6.464780605000,-0.125000000000
6.472467726000,-0.122000000000
6.480154847000,-0.120000000000
6.487841968000,-0.113000000000
6.495529089000,-0.108000000000
6.503216210000,-0.105000000000
6.510903331000,-0.105000000000
6.518590452000,-0.108000000000
6.526277573000,-0.108000000000
6.533964694000,-0.108000000000
6.541651815000,-0.110000000000
6.549338936000,-0.115000000000
6.557026057000,-0.113000000000
6.564713178000,-0.113000000000
6.572400299000,-0.117000000000
6.580087420000,-0.120000000000
6.587774541000,-0.125000000000
6.595461662000,-0.129000000000
6.603148783000,-0.132000000000
6.610835904000,-0.134000000000
6.618523025000,-0.129000000000
6.626210146000,-0.120000000000
6.633897267000,-0.113000000000
6.641584388000,-0.105000000000
6.649271509000,-0.081000000000
6.656958630000,-0.067000000000
6.664645751000,-0.086000000000
6.672332872000,-0.101000000000
6.680019993000,-0.096000000000
6.687707114000,-0.096000000000
6.695394235000,-0.096000000000
6.703081356000,-0.088000000000
6.710768477000,-0.086000000000
6.718455598000,-0.110000000000
6.726142719000,-0.158000000000
6.733829840000,-0.096000000000
6.741516961000,0.303000000000
6.749204082000,0.817000000000
6.756891203000,0.824000000000
6.764578324000,0.158000000000
6.772265445000,-0.437000000000
6.779952566000,-0.379000000000
6.787639687000,-0.175000000000
6.795326808000,-0.199000000000
6.803013929000,-0.168000000000
6.810701050000,-0.081000000000
6.818388171000,-0.091000000000
6.826075292000,-0.105000000000
6.833762413000,-0.072000000000
6.841449534000,-0.060000000000
6.849136655000,-0.057000000000
6.856823776000,-0.045000000000
6.864510897000,-0.036000000000
6.872198018000,-0.031000000000
6.879885139000,-0.024000000000
6.887572260000,-0.016000000000
6.895259381000,-0.012000000000
6.902946502000,-0.004000000000
6.910633623000,0.007000000000
6.918320744000,0.019000000000
6.926007865000,0.028000000000
6.933694986000,0.038000000000
6.941382107000,0.048000000000
6.949069228000,0.050000000000
6.956756349000,0.048000000000
6.964443470000,0.050000000000
6.972130591000,0.048000000000
6.979817712000,0.043000000000
6.987504833000,0.038000000000
6.995191954000,0.026000000000
7.002879139000,0.009000000000
7.010566260000,-0.007000000000
7.018253381000,-0.031000000000
7.025940502000,-0.055000000000
7.033627623000,-0.079000000000
7.041314744000,-0.098000000000
7.049001865000,-0.108000000000
7.056688986000,-0.110000000000
7.064376107000,-0.110000000000
7.072063228000,-0.108000000000
7.079750349000,-0.108000000000
7.087437470000,-0.101000000000
7.095124591000,-0.096000000000
7.102811712000,-0.096000000000
7.110498833000,-0.096000000000
7.118185954000,-0.091000000000
7.125873075000,-0.088000000000
7.133560196000,-0.091000000000
7.141247317000,-0.093000000000
7.148934438000,-0.093000000000
7.156621559000,-0.091000000000
7.164308680000,-0.088000000000
7.171995801000,-0.091000000000
7.179682922000,-0.096000000000
7.187370043000,-0.098000000000
7.195057164000,-0.096000000000
7.202744285000,-0.093000000000
7.210431406000,-0.096000000000
7.218118527000,-0.093000000000
7.225805648000,-0.093000000000
7.233492769000,-0.103000000000
7.241179890000,-0.110000000000
7.248867011000,-0.108000000000
7.256554132000,-0.101000000000
7.264241253000,-0.093000000000
7.271928374000,-0.084000000000
7.279615495000,-0.067000000000
7.287302616000,-0.043000000000
7.294989737000,-0.038000000000
7.302676858000,-0.057000000000
7.310363979000,-0.072000000000
7.318051100000,-0.072000000000
7.325738221000,-0.079000000000
7.333425342000,-0.079000000000
7.341112463000,-0.069000000000
7.348799584000,-0.067000000000
7.356486705000,-0.093000000000
7.364173826000,-0.129000000000
7.371860947000,-0.004000000000
7.379548068000,0.454000000000
7.387235189000,0.909000000000
7.394922310000,0.735000000000
7.402609431000,-0.007000000000
7.410296552000,-0.473000000000
7.417983673000,-0.322000000000
7.425670794000,-0.158000000000
7.433357915000,-0.185000000000
7.441045036000,-0.125000000000
7.448732157000,-0.055000000000
7.456419278000,-0.076000000000
7.464106399000,-0.074000000000
7.471793520000,-0.040000000000
7.479480641000,-0.033000000000
7.487167762000,-0.028000000000
7.494854883000,-0.016000000000
7.502542004000,-0.009000000000
7.510229125000,-0.004000000000
7.517916246000,0.002000000000
7.525603367000,0.009000000000
7.533290488000,0.016000000000
7.540977609000,0.028000000000
7.548664730000,0.036000000000
7.556351851000,0.043000000000
7.564039040000,0.055000000000
7.571725813000,0.067000000000
7.579412586000,0.072000000000
7.587099359000,0.072000000000
7.594786132000,0.072000000000
7.602472905000,0.069000000000
7.610159678000,0.064000000000
7.617846451000,0.062000000000
7.625533224000,0.060000000000
7.633219997000,0.052000000000
7.640906770000,0.036000000000
7.648593543000,0.014000000000
7.656280316000,-0.009000000000
7.663967089000,-0.038000000000
7.671653862000,-0.064000000000
7.679340635000,-0.079000000000
7.687027408000,-0.096000000000
7.694714181000,-0.103000000000
7.702400954000,-0.096000000000
7.710087727000,-0.091000000000
7.717774500000,-0.093000000000
7.725461273000,-0.091000000000
7.733148046000,-0.086000000000
7.740834819000,-0.086000000000
7.748521592000,-0.084000000000
7.756208365000,-0.081000000000
7.763895138000,-0.079000000000
7.771581911000,-0.084000000000
7.779268684000,-0.086000000000
7.786955457000,-0.086000000000
7.794642230000,-0.088000000000
7.802329003000,-0.091000000000
7.810015776000,-0.091000000000
7.817702549000,-0.093000000000
7.825389322000,-0.096000000000
7.833076095000,-0.093000000000
7.840762868000,-0.096000000000
7.848449641000,-0.096000000000
7.856136414000,-0.093000000000
7.863823187000,-0.093000000000
7.871509960000,-0.096000000000
7.879196733000,-0.103000000000
7.886883506000,-0.110000000000
7.894570279000,-0.110000000000
7.902257052000,-0.103000000000
7.909943825000,-0.091000000000
7.917630598000,-0.079000000000
7.925317371000,-0.064000000000
7.933004144000,-0.045000000000
7.940690917000,-0.043000000000
7.948377690000,-0.064000000000
7.956064463000,-0.079000000000
7.963751236000,-0.076000000000
7.971438009000,-0.072000000000
7.979124782000,-0.074000000000
7.986811555000,-0.072000000000
7.994498328000,-0.069000000000
8.002185101000,-0.091000000000
8.009871874000,-0.127000000000
8.017558647000,-0.019000000000
8.025245420000,0.418000000000
8.032932193000,0.865000000000
8.040618966000,0.687000000000
8.048305739000,-0.048000000000
8.055992512000,-0.509000000000
8.063679285000,-0.365000000000
8.071366058000,-0.192000000000
8.079052831000,-0.204000000000
8.086739604000,-0.134000000000
8.094426377000,-0.060000000000
8.102113150000,-0.079000000000
8.109799923000,-0.079000000000
8.117486696000,-0.048000000000
8.125173506000,-0.040000000000
8.132860558000,-0.038000000000
8.140547610000,-0.026000000000
8.148234662000,-0.019000000000
8.155921714000,-0.014000000000
8.163608766000,-0.004000000000
8.171295818000,0.002000000000
8.178982870000,0.009000000000
8.186669922000,0.019000000000
8.194356974000,0.031000000000
8.202044026000,0.040000000000
8.209731078000,0.048000000000
8.217418130000,0.055000000000
8.225105182000,0.062000000000
8.232792234000,0.064000000000
8.240479286000,0.064000000000
8.248166338000,0.062000000000
8.255853390000,0.062000000000
8.263540442000,0.069000000000
8.271227494000,0.072000000000
8.278914546000,0.064000000000
8.286601598000,0.050000000000
8.294288650000,0.024000000000
8.301975702000,-0.009000000000
8.309662754000,-0.045000000000
8.317349806000,-0.076000000000
8.325036858000,-0.101000000000
8.332723910000,-0.117000000000
8.340410962000,-0.125000000000
8.348098014000,-0.122000000000
8.355785066000,-0.115000000000
8.363472118000,-0.115000000000
8.371159170000,-0.115000000000
8.378846222000,-0.110000000000
8.386533274000,-0.110000000000
8.394220326000,-0.113000000000
8.401907378000,-0.110000000000
8.409594430000,-0.108000000000
8.417281482000,-0.110000000000
8.424968534000,-0.113000000000
8.432655586000,-0.115000000000
8.440342638000,-0.120000000000
8.448029690000,-0.117000000000
8.455716742000,-0.115000000000
8.463403794000,-0.120000000000
8.471090846000,-0.122000000000
8.478777898000,-0.122000000000
8.486464950000,-0.122000000000
8.494152002000,-0.125000000000
8.501839054000,-0.120000000000
8.509526106000,-0.122000000000
8.517213158000,-0.137000000000
8.524900210000,-0.139000000000
8.532587262000,-0.134000000000
8.540274314000,-0.132000000000
8.547961366000,-0.132000000000
8.555648418000,-0.120000000000
8.563335470000,-0.115000000000
8.571022522000,-0.108000000000
8.578709574000,-0.088000000000
8.586396626000,-0.084000000000
8.594083678000,-0.110000000000
8.601770730000,-0.125000000000
8.609457782000,-0.117000000000
8.617144834000,-0.120000000000
8.624831886000,-0.125000000000
8.632518938000,-0.120000000000
8.640205990000,-0.125000000000
8.647893042000,-0.151000000000
8.655580094000,-0.151000000000
8.663267146000,0.074000000000
8.670954198000,0.577000000000
8.678641250000,0.810000000000
8.686328316000,0.274000000000
8.694015437000,-0.473000000000
8.701702558000,-0.618000000000
8.709389679000,-0.375000000000
8.717076800000,-0.312000000000
8.724763921000,-0.312000000000
8.732451042000,-0.199000000000
8.740138163000,-0.151000000000
8.747825284000,-0.173000000000
8.755512405000,-0.156000000000
8.763199526000,-0.141000000000
8.770886647000,-0.153000000000
8.778573768000,-0.141000000000
8.786260889000,-0.122000000000
8.793948010000,-0.117000000000
8.801635131000,-0.115000000000
8.809322252000,-0.108000000000
8.817009373000,-0.103000000000
8.824696494000,-0.091000000000
8.832383615000,-0.079000000000
8.840070736000,-0.074000000000
8.847757857000,-0.062000000000
8.855444978000,-0.040000000000
8.863132099000,-0.036000000000
8.870819220000,-0.038000000000
8.878506341000,-0.024000000000
8.886193462000,-0.012000000000
8.893880583000,-0.016000000000
8.901567704000,-0.004000000000
8.909254825000,0.012000000000
8.916941946000,0.000000000000
8.924629067000,-0.019000000000
8.932316188000,-0.040000000000
8.940003309000,-0.091000000000
8.947690430000,-0.146000000000
8.955377551000,-0.189000000000
8.963064672000,-0.230000000000
8.970751793000,-0.259000000000
8.978438914000,-0.269000000000
8.986126035000,-0.276000000000
8.993813156000,-0.274000000000
9.001500277000,-0.266000000000
9.009187398000,-0.269000000000
9.016874519000,-0.269000000000
9.024561640000,-0.262000000000
9.032248761000,-0.257000000000
9.039935882000,-0.257000000000
9.047623003000,-0.257000000000
9.055310124000,-0.257000000000
9.062997245000,-0.259000000000
9.070684366000,-0.257000000000
9.078371487000,-0.257000000000
9.086058608000,-0.262000000000
9.093745729000,-0.259000000000
9.101432850000,-0.257000000000
9.109119971000,-0.262000000000
9.116807092000,-0.269000000000
9.124494213000,-0.266000000000
9.132181334000,-0.264000000000
9.139868455000,-0.269000000000
9.147555576000,-0.271000000000
9.155242697000,-0.269000000000
9.162929818000,-0.262000000000
9.170616939000,-0.259000000000
9.178304060000,-0.254000000000
9.185991181000,-0.233000000000
9.193678302000,-0.209000000000
9.201365423000,-0.214000000000
9.209052544000,-0.226000000000
9.216739665000,-0.228000000000
9.224426786000,-0.230000000000
9.232113907000,-0.235000000000
9.239801028000,-0.228000000000
9.247488213000,-0.218000000000
9.255175334000,-0.221000000000
9.262862455000,-0.242000000000
9.270549576000,-0.242000000000
9.278236697000,-0.036000000000
9.285923818000,0.464000000000
9.293610939000,0.759000000000
9.301298060000,0.264000000000
9.308985181000,-0.560000000000
9.316672302000,-0.771000000000
9.324359423000,-0.476000000000
9.332046544000,-0.358000000000
9.339733665000,-0.363000000000
9.347420786000,-0.240000000000
9.355107907000,-0.161000000000
9.362795028000,-0.180000000000
9.370482149000,-0.170000000000
9.378169270000,-0.144000000000
9.385856391000,-0.146000000000
9.393543512000,-0.137000000000
9.401230633000,-0.115000000000
9.408917754000,-0.105000000000
9.416604875000,-0.096000000000
9.424291996000,-0.084000000000
9.431979117000,-0.076000000000
9.439666238000,-0.062000000000
9.447353359000,-0.040000000000
9.455040480000,-0.026000000000
9.462727601000,-0.019000000000
9.470414722000,-0.002000000000
9.478101843000,0.021000000000
9.485788964000,0.028000000000
9.493476085000,0.031000000000
9.501163206000,0.043000000000
9.508850327000,0.050000000000
9.516537448000,0.052000000000
9.524224569000,0.057000000000
9.531911690000,0.055000000000
9.539598811000,0.033000000000
9.547285932000,0.009000000000
9.554973053000,-0.024000000000
9.562660174000,-0.067000000000
9.570347295000,-0.108000000000
9.578034416000,-0.144000000000
9.585721537000,-0.173000000000
9.593408658000,-0.177000000000
9.601095779000,-0.175000000000
9.608782900000,-0.177000000000
9.616470021000,-0.170000000000
9.624157142000,-0.163000000000
9.631844263000,-0.161000000000
9.639531384000,-0.153000000000
9.647218505000,-0.146000000000
9.654905626000,-0.144000000000
9.662592747000,-0.137000000000
9.670279868000,-0.129000000000
9.677966989000,-0.129000000000
9.685654110000,-0.132000000000
9.693341231000,-0.132000000000
9.701028352000,-0.132000000000
9.708715473000,-0.134000000000
9.716402594000,-0.134000000000
9.724089715000,-0.132000000000
9.731776836000,-0.134000000000
9.739463957000,-0.137000000000
9.747151078000,-0.137000000000
9.754838199000,-0.134000000000
9.762525320000,-0.132000000000
9.770212441000,-0.127000000000
9.777899562000,-0.120000000000
9.785586683000,-0.113000000000
9.793273804000,-0.093000000000
9.800960925000,-0.067000000000
9.808648110000,-0.067000000000
9.816335162000,-0.081000000000
9.824022214000,-0.086000000000
9.831709266000,-0.079000000000
9.839396318000,-0.076000000000
9.847083370000,-0.079000000000
9.854770422000,-0.076000000000
9.862457474000,-0.076000000000
9.870144526000,-0.103000000000
9.877831578000,-0.120000000000
9.885518630000,0.098000000000
9.893205682000,0.632000000000
9.900892734000,0.935000000000
9.908579786000,0.466000000000
9.916266838000,-0.315000000000
9.923953890000,-0.531000000000
9.931640942000,-0.271000000000
9.939327994000,-0.177000000000
9.947015046000,-0.192000000000
9.954702098000,-0.081000000000
9.962389150000,-0.031000000000
9.970076202000,-0.060000000000
9.977763254000,-0.045000000000
9.985450306000,-0.014000000000
9.993137358000,-0.014000000000
10.000824410000,-0.007000000000
10.008511462000,0.007000000000
10.016198514000,0.012000000000
10.023885566000,0.016000000000
10.031572618000,0.024000000000
10.039259670000,0.033000000000
10.046946722000,0.040000000000
10.054633774000,0.050000000000
10.062320826000,0.062000000000
10.070007878000,0.076000000000
10.077694930000,0.086000000000
10.085381982000,0.093000000000
10.093069034000,0.105000000000
10.100756086000,0.110000000000
10.108443138000,0.110000000000
10.116130190000,0.110000000000
10.123817242000,0.113000000000
10.131504294000,0.110000000000
10.139191346000,0.105000000000
10.146878398000,0.096000000000
10.154565450000,0.072000000000
10.162252502000,0.043000000000
10.169939554000,0.012000000000
10.177626606000,-0.024000000000
10.185313658000,-0.057000000000
10.193000710000,-0.074000000000
10.200687762000,-0.081000000000
10.208374814000,-0.084000000000
10.216061866000,-0.079000000000
10.223748918000,-0.076000000000
10.231435970000,-0.072000000000
10.239123022000,-0.067000000000
10.246810074000,-0.060000000000
10.254497126000,-0.060000000000
10.262184178000,-0.060000000000
10.269871230000,-0.055000000000
10.277558282000,-0.052000000000
10.285245334000,-0.055000000000
10.292932386000,-0.060000000000
10.300619438000,-0.057000000000
10.308306490000,-0.057000000000
10.315993542000,-0.062000000000
10.323680594000,-0.064000000000
10.331367646000,-0.064000000000
10.339054698000,-0.072000000000
10.346741750000,-0.081000000000
10.354428802000,-0.086000000000
10.362115854000,-0.081000000000
10.369802924000,-0.072000000000
10.377489697000,-0.064000000000
10.385176470000,-0.062000000000
10.392863243000,-0.045000000000
10.400550016000,-0.021000000000
10.408236789000,-0.026000000000
10.415923562000,-0.050000000000
10.423610335000,-0.050000000000
10.431297108000,-0.043000000000
10.438983881000,-0.048000000000
10.446670654000,-0.043000000000
10.454357427000,-0.036000000000
10.462044200000,-0.043000000000
10.469730973000,-0.081000000000
10.477417746000,-0.120000000000
10.485104519000,0.043000000000
10.492791292000,0.543000000000
10.500478065000,0.952000000000
10.508164838000,0.678000000000
10.515851611000,-0.072000000000
10.523538384000,-0.425000000000
10.531225157000,-0.230000000000
10.538911930000,-0.115000000000
10.546598703000,-0.151000000000
10.554285476000,-0.076000000000
10.561972249000,-0.028000000000
10.569659022000,-0.057000000000
10.577345795000,-0.043000000000
10.585032568000,-0.014000000000
10.592719341000,-0.014000000000
10.600406114000,-0.007000000000
10.608092887000,0.009000000000
10.615779660000,0.014000000000
10.623466433000,0.016000000000
10.631153206000,0.024000000000
10.638839979000,0.033000000000
10.646526752000,0.040000000000
10.654213525000,0.048000000000
10.661900298000,0.057000000000
10.669587071000,0.062000000000
10.677273844000,0.069000000000
10.684960617000,0.079000000000
10.692647390000,0.084000000000
10.700334163000,0.084000000000
10.708020936000,0.084000000000
10.715707709000,0.079000000000
10.723394482000,0.069000000000
10.731081255000,0.067000000000
10.738768028000,0.062000000000
10.746454801000,0.052000000000
10.754141574000,0.033000000000
10.761828347000,0.016000000000
10.769515120000,-0.004000000000
10.777201893000,-0.031000000000
10.784888666000,-0.055000000000
10.792575439000,-0.069000000000
10.800262212000,-0.074000000000
10.807948985000,-0.076000000000
10.815635758000,-0.076000000000
10.823322531000,-0.072000000000
10.831009304000,-0.069000000000
10.838696077000,-0.064000000000
10.846382850000,-0.060000000000
10.854069623000,-0.062000000000
10.861756396000,-0.067000000000
10.869443169000,-0.064000000000
10.877129942000,-0.060000000000
10.884816715000,-0.060000000000
10.892503488000,-0.057000000000
10.900190261000,-0.057000000000
10.907877034000,-0.060000000000
10.915563807000,-0.062000000000
10.923250580000,-0.067000000000
10.930937386000,-0.062000000000
10.938624577000,-0.060000000000
10.946311768000,-0.064000000000
10.953998959000,-0.072000000000
10.961686150000,-0.079000000000
10.969373341000,-0.084000000000
10.977060532000,-0.079000000000
10.984747723000,-0.069000000000
10.992434914000,-0.062000000000
11.000122105000,-0.052000000000
11.007809296000,-0.033000000000
11.015496487000,-0.016000000000
11.023183678000,-0.028000000000
11.030870869000,-0.050000000000
11.038558060000,-0.052000000000
11.046245251000,-0.050000000000
11.053932442000,-0.048000000000
11.061619633000,-0.045000000000
11.069306824000,-0.045000000000
11.076994015000,-0.055000000000
11.084681206000,-0.093000000000
11.092368397000,-0.120000000000
11.100055588000,0.096000000000
11.107742779000,0.622000000000
11.115429970000,0.937000000000
11.123117161000,0.524000000000
11.130804352000,-0.216000000000
11.138491543000,-0.454000000000
11.146178734000,-0.235000000000
11.153865925000,-0.153000000000
11.161553116000,-0.168000000000
11.169240307000,-0.079000000000
11.176927498000,-0.043000000000
11.184614689000,-0.067000000000
11.192301880000,-0.048000000000
11.199989071000,-0.021000000000
11.207676262000,-0.021000000000
11.215363453000,-0.014000000000
11.223050644000,0.000000000000
11.230737835000,0.002000000000
11.238425026000,0.007000000000
11.246112217000,0.016000000000
11.253799408000,0.024000000000
11.261486599000,0.031000000000
11.269173790000,0.040000000000
11.276860981000,0.045000000000
11.284548172000,0.055000000000
11.292235363000,0.069000000000
11.299922554000,0.076000000000
11.307609745000,0.081000000000
11.315296936000,0.081000000000
11.322984127000,0.079000000000
11.330671318000,0.074000000000
11.338358509000,0.074000000000
11.346045700000,0.074000000000
11.353732891000,0.072000000000
11.361420082000,0.062000000000
11.369107273000,0.045000000000
11.376794464000,0.019000000000
11.384481655000,-0.012000000000
11.392168846000,-0.045000000000
11.399856037000,-0.067000000000
11.407543228000,-0.079000000000
11.415230419000,-0.086000000000
11.422917610000,-0.088000000000
11.430604801000,-0.086000000000
11.438291992000,-0.084000000000
11.445979183000,-0.081000000000
11.453666374000,-0.079000000000
11.461353565000,-0.076000000000
11.469040756000,-0.074000000000
11.476727947000,-0.072000000000
11.484415138000,-0.074000000000
11.492102374000,-0.074000000000
11.499789426000,-0.074000000000
11.507476478000,-0.076000000000
11.515163530000,-0.079000000000
11.522850582000,-0.079000000000
11.530537634000,-0.079000000000
11.538224686000,-0.079000000000
11.545911738000,-0.079000000000
11.553598790000,-0.084000000000
11.561285842000,-0.088000000000
11.568972894000,-0.091000000000
11.576659946000,-0.093000000000
11.584346998000,-0.103000000000
11.592034050000,-0.108000000000
11.599721102000,-0.105000000000
11.607408154000,-0.093000000000
11.615095206000,-0.084000000000
11.622782258000,-0.076000000000
11.630469310000,-0.057000000000
11.638156362000,-0.038000000000
11.645843414000,-0.050000000000
11.653530466000,-0.076000000000
11.661217518000,-0.076000000000
11.668904570000,-0.069000000000
11.676591622000,-0.072000000000
11.684278674000,-0.072000000000
11.691965726000,-0.069000000000
11.699652778000,-0.076000000000
11.707339830000,-0.108000000000
11.715026882000,-0.125000000000
11.722713934000,0.088000000000
11.730400986000,0.601000000000
11.738088038000,0.870000000000
11.745775090000,0.396000000000
11.753462142000,-0.329000000000
11.761149194000,-0.505000000000
11.768836246000,-0.266000000000
11.776523298000,-0.189000000000
11.784210350000,-0.194000000000
11.791897402000,-0.096000000000
11.799584454000,-0.060000000000
11.807271506000,-0.088000000000
11.814958558000,-0.067000000000
11.822645610000,-0.038000000000
11.830332662000,-0.048000000000
11.838019714000,-0.045000000000
11.845706766000,-0.026000000000
11.853393818000,-0.021000000000
11.861080870000,-0.016000000000
11.868767922000,-0.009000000000
11.876454974000,0.000000000000
11.884142026000,0.009000000000
11.891829078000,0.019000000000
11.899516130000,0.028000000000
11.907203182000,0.033000000000
11.914890234000,0.043000000000
11.922577286000,0.052000000000
11.930264338000,0.060000000000
11.937951390000,0.064000000000
11.945638442000,0.064000000000
11.953325494000,0.062000000000
11.961012546000,0.062000000000
11.968699598000,0.067000000000
11.976386650000,0.067000000000
11.984073702000,0.050000000000
11.991760754000,0.028000000000
11.999447806000,0.002000000000
12.007134858000,-0.038000000000
12.014821910000,-0.079000000000
12.022508962000,-0.103000000000
12.030196014000,-0.120000000000
12.037883066000,-0.129000000000
12.045570118000,-0.129000000000
12.053257184000,-0.129000000000
12.060944305000,-0.129000000000
12.068631426000,-0.122000000000
12.076318547000,-0.117000000000
12.084005668000,-0.120000000000
12.091692789000,-0.122000000000
12.099379910000,-0.115000000000
12.107067031000,-0.115000000000
12.114754152000,-0.122000000000
12.122441273000,-0.120000000000
12.130128394000,-0.117000000000
12.137815515000,-0.122000000000
12.145502636000,-0.122000000000
12.153189757000,-0.117000000000
12.160876878000,-0.122000000000
12.168563999000,-0.127000000000
12.176251120000,-0.125000000000
12.183938241000,-0.122000000000
12.191625362000,-0.129000000000
12.199312483000,-0.137000000000
12.206999604000,-0.134000000000
12.214686725000,-0.129000000000
12.222373846000,-0.129000000000
12.230060967000,-0.125000000000
12.237748088000,-0.120000000000
12.245435209000,-0.108000000000
12.253122330000,-0.084000000000
12.260809451000,-0.072000000000
12.268496572000,-0.088000000000
12.276183693000,-0.108000000000
12.283870814000,-0.103000000000
12.291557935000,-0.101000000000
12.299245056000,-0.103000000000
12.306932177000,-0.098000000000
12.314619298000,-0.093000000000
12.322306419000,-0.108000000000
12.329993540000,-0.132000000000
12.337680661000,-0.069000000000
12.345367782000,0.271000000000
12.353054903000,0.757000000000
12.360742024000,0.716000000000
12.368429145000,-0.028000000000
12.376116266000,-0.603000000000
12.383803387000,-0.483000000000
12.391490508000,-0.259000000000
12.399177629000,-0.271000000000
12.406864750000,-0.209000000000
12.414551871000,-0.079000000000
12.422238992000,-0.072000000000
12.429926113000,-0.088000000000
12.437613234000,-0.057000000000
12.445300355000,-0.045000000000
12.452987476000,-0.045000000000
12.460674597000,-0.031000000000
12.468361718000,-0.021000000000
12.476048839000,-0.019000000000
12.483735960000,-0.012000000000
12.491423081000,0.000000000000
12.499110202000,0.009000000000
12.506797323000,0.019000000000
12.514484444000,0.033000000000
12.522171565000,0.048000000000
12.529858686000,0.064000000000
12.537545807000,0.076000000000
12.545232928000,0.091000000000
12.552920049000,0.096000000000
12.560607170000,0.101000000000
12.568294291000,0.108000000000
12.575981412000,0.115000000000
12.583668533000,0.125000000000
12.591355654000,0.132000000000
12.599042775000,0.125000000000
12.606729896000,0.098000000000
12.614417081000,0.057000000000
12.622104202000,0.012000000000
12.629791323000,-0.033000000000
12.637478444000,-0.079000000000
12.645165565000,-0.115000000000
12.652852686000,-0.134000000000
12.660539807000,-0.141000000000
12.668226928000,-0.144000000000
12.675914049000,-0.139000000000
12.683601170000,-0.134000000000
12.691288291000,-0.132000000000
12.698975412000,-0.125000000000
12.706662533000,-0.113000000000
12.714349654000,-0.113000000000
12.722036775000,-0.117000000000
12.729723896000,-0.117000000000
12.737411017000,-0.115000000000
12.745098138000,-0.115000000000
12.752785259000,-0.117000000000
12.760472380000,-0.122000000000
12.768159501000,-0.120000000000
12.775846622000,-0.117000000000
12.783533743000,-0.127000000000
12.791220864000,-0.132000000000
12.798907985000,-0.125000000000
12.806595106000,-0.132000000000
12.814282227000,-0.141000000000
12.821969348000,-0.139000000000
12.829656469000,-0.137000000000
12.837343590000,-0.132000000000
12.845030711000,-0.120000000000
12.852717832000,-0.115000000000
12.860404953000,-0.098000000000
12.868092074000,-0.076000000000
12.875779195000,-0.091000000000
12.883466316000,-0.113000000000
12.891153437000,-0.110000000000
12.898840558000,-0.105000000000
12.906527679000,-0.103000000000
12.914214800000,-0.098000000000
12.921901921000,-0.098000000000
12.929589042000,-0.113000000000
12.937276163000,-0.134000000000
12.944963284000,-0.067000000000
12.952650405000,0.293000000000
12.960337526000,0.783000000000
12.968024647000,0.711000000000
12.975711768000,-0.060000000000
12.983398889000,-0.627000000000
12.991086010000,-0.480000000000
12.998773131000,-0.245000000000
13.006460252000,-0.254000000000
13.014147373000,-0.192000000000
13.021834494000,-0.074000000000
13.029521615000,-0.074000000000
13.037208736000,-0.086000000000
13.044895857000,-0.052000000000
13.052582978000,-0.040000000000
13.060270099000,-0.045000000000
13.067957220000,-0.031000000000
13.075644341000,-0.016000000000
13.083331462000,-0.014000000000
13.091018583000,-0.004000000000
13.098705704000,0.004000000000
13.106392825000,0.009000000000
13.114079946000,0.024000000000
13.121767067000,0.038000000000
13.129454188000,0.048000000000
13.137141309000,0.057000000000
13.144828430000,0.072000000000
13.152515551000,0.086000000000
13.160202672000,0.098000000000
13.167889793000,0.103000000000
13.175576978000,0.110000000000
13.183264030000,0.117000000000
13.190951082000,0.120000000000
13.198638134000,0.120000000000
13.206325186000,0.115000000000
13.214012238000,0.096000000000
13.221699290000,0.060000000000
13.229386342000,0.019000000000
13.237073394000,-0.028000000000
13.244760446000,-0.072000000000
13.252447498000,-0.098000000000
13.260134550000,-0.115000000000
13.267821602000,-0.125000000000
13.275508654000,-0.122000000000
13.283195706000,-0.117000000000
13.290882758000,-0.117000000000
13.298569810000,-0.110000000000
13.306256862000,-0.101000000000
13.313943914000,-0.096000000000
13.321630966000,-0.093000000000
13.329318018000,-0.093000000000
13.337005070000,-0.091000000000
13.344692122000,-0.091000000000
13.352379174000,-0.096000000000
13.360066226000,-0.098000000000
13.367753278000,-0.098000000000
13.375440330000,-0.098000000000
13.383127382000,-0.105000000000
13.390814434000,-0.113000000000
13.398501486000,-0.113000000000
13.406188538000,-0.120000000000
13.413875590000,-0.127000000000
13.421562642000,-0.129000000000
13.429249694000,-0.127000000000
13.436936746000,-0.122000000000
13.444623798000,-0.115000000000
13.452310850000,-0.113000000000
13.459997902000,-0.098000000000
13.467684954000,-0.072000000000
13.475372006000,-0.072000000000
13.483059058000,-0.093000000000
13.490746110000,-0.101000000000
13.498433162000,-0.096000000000
13.506120214000,-0.101000000000
13.513807266000,-0.096000000000
13.521494318000,-0.088000000000
13.529181370000,-0.093000000000
13.536868422000,-0.129000000000
13.544555474000,-0.156000000000
13.552242526000,0.045000000000
13.559929578000,0.572000000000
13.567616630000,0.918000000000
13.575303682000,0.519000000000
13.582990734000,-0.264000000000
13.590677786000,-0.529000000000
13.598364838000,-0.283000000000
13.606051890000,-0.185000000000
13.613738942000,-0.216000000000
13.621425994000,-0.122000000000
13.629113046000,-0.067000000000
13.636800098000,-0.096000000000
13.644487150000,-0.079000000000
13.652174202000,-0.048000000000
13.659861254000,-0.048000000000
13.667548306000,-0.048000000000
13.675235358000,-0.036000000000
13.682922410000,-0.028000000000
13.690609462000,-0.024000000000
13.698296514000,-0.016000000000
13.705983566000,-0.012000000000
13.713670618000,-0.002000000000
13.721357670000,0.007000000000
13.729044722000,0.014000000000
13.736731792000,0.026000000000
13.744418565000,0.038000000000
13.752105338000,0.048000000000
13.759792111000,0.057000000000
13.767478884000,0.060000000000
13.775165657000,0.057000000000
13.782852430000,0.055000000000
13.790539203000,0.055000000000
13.798225976000,0.052000000000
13.805912749000,0.048000000000
13.813599522000,0.038000000000
13.821286295000,0.014000000000
13.828973068000,-0.014000000000
13.836659841000,-0.038000000000
13.844346614000,-0.069000000000
13.852033387000,-0.098000000000
13.859720160000,-0.110000000000
13.867406933000,-0.115000000000
13.875093706000,-0.117000000000
13.882780479000,-0.115000000000
13.890467252000,-0.113000000000
13.898154025000,-0.110000000000
13.905840798000,-0.105000000000
13.913527571000,-0.101000000000
13.921214344000,-0.098000000000
13.928901117000,-0.098000000000
13.936587890000,-0.101000000000
13.944274663000,-0.098000000000
13.951961436000,-0.096000000000
13.959648209000,-0.098000000000
13.967334982000,-0.098000000000
13.975021755000,-0.101000000000
13.982708528000,-0.105000000000
13.990395301000,-0.105000000000
13.998082074000,-0.105000000000
14.005768847000,-0.110000000000
14.013455620000,-0.122000000000
14.021142393000,-0.127000000000
14.028829166000,-0.127000000000
14.036515939000,-0.125000000000
14.044202712000,-0.113000000000
14.051889485000,-0.105000000000
14.059576258000,-0.098000000000
14.067263031000,-0.074000000000
14.074949804000,-0.060000000000
14.082636577000,-0.079000000000
14.090323350000,-0.093000000000
14.098010123000,-0.091000000000
14.105696896000,-0.093000000000
14.113383669000,-0.093000000000
14.121070442000,-0.086000000000
14.128757215000,-0.084000000000
14.136443988000,-0.103000000000
14.144130761000,-0.153000000000
14.151817534000,-0.120000000000
14.159504307000,0.233000000000
14.167191080000,0.769000000000
14.174877853000,0.858000000000
14.182564626000,0.230000000000
14.190251399000,-0.413000000000
14.197938172000,-0.413000000000
14.205624945000,-0.189000000000
14.213311718000,-0.192000000000
14.220998491000,-0.177000000000
14.228685264000,-0.086000000000
14.236372037000,-0.086000000000
14.244058810000,-0.105000000000
14.251745583000,-0.072000000000
14.259432356000,-0.057000000000
14.267119129000,-0.060000000000
14.274805902000,-0.048000000000
14.282492675000,-0.033000000000
14.290179448000,-0.033000000000
14.297866254000,-0.026000000000
14.305553445000,-0.014000000000
14.313240636000,-0.009000000000
14.320927827000,-0.004000000000
14.328615018000,0.002000000000
14.336302209000,0.012000000000
14.343989400000,0.021000000000
14.351676591000,0.031000000000
14.359363782000,0.040000000000
14.367050973000,0.040000000000
14.374738164000,0.040000000000
14.382425355000,0.043000000000
14.390112546000,0.036000000000
14.397799737000,0.026000000000
14.405486928000,0.024000000000
14.413174119000,0.021000000000
14.420861310000,0.002000000000
14.428548501000,-0.016000000000
14.436235692000,-0.036000000000
14.443922883000,-0.062000000000
14.451610074000,-0.091000000000
14.459297265000,-0.110000000000
14.466984456000,-0.120000000000
14.474671647000,-0.120000000000
14.482358838000,-0.117000000000
14.490046029000,-0.115000000000
14.497733220000,-0.113000000000
14.505420411000,-0.110000000000
14.513107602000,-0.105000000000
14.520794793000,-0.101000000000
14.528481984000,-0.101000000000
14.536169175000,-0.098000000000
14.543856366000,-0.098000000000
14.551543557000,-0.101000000000
14.559230748000,-0.101000000000
14.566917939000,-0.098000000000
14.574605130000,-0.098000000000
14.582292321000,-0.098000000000
14.589979512000,-0.098000000000
14.597666703000,-0.103000000000
14.605353894000,-0.108000000000
14.613041085000,-0.110000000000
14.620728276000,-0.115000000000
14.628415467000,-0.125000000000
14.636102658000,-0.125000000000
14.643789849000,-0.115000000000
14.651477040000,-0.105000000000
14.659164231000,-0.098000000000
14.666851422000,-0.081000000000
14.674538613000,-0.060000000000
14.682225804000,-0.067000000000
14.689912995000,-0.091000000000
14.697600186000,-0.098000000000
14.705287377000,-0.091000000000
14.712974568000,-0.096000000000
14.720661759000,-0.096000000000
14.728348950000,-0.088000000000
14.736036141000,-0.093000000000
14.743723332000,-0.125000000000
14.751410523000,-0.168000000000
14.759097714000,-0.026000000000
14.766784905000,0.456000000000
14.774472096000,0.865000000000
14.782159287000,0.579000000000
14.789846478000,-0.180000000000
14.797533669000,-0.536000000000
14.805220860000,-0.329000000000
14.812908051000,-0.194000000000
14.820595242000,-0.218000000000
14.828282433000,-0.137000000000
14.835969624000,-0.074000000000
14.843656815000,-0.103000000000
14.851344006000,-0.091000000000
14.859031242000,-0.060000000000
14.866718294000,-0.062000000000
14.874405346000,-0.060000000000
14.882092398000,-0.043000000000
14.889779450000,-0.036000000000
14.897466502000,-0.031000000000
14.905153554000,-0.024000000000
14.912840606000,-0.014000000000
14.920527658000,-0.004000000000
14.928214710000,0.000000000000
14.935901762000,0.009000000000
14.943588814000,0.024000000000
14.951275866000,0.033000000000
14.958962918000,0.036000000000
14.966649970000,0.043000000000
14.974337022000,0.045000000000
14.982024074000,0.043000000000
14.989711126000,0.043000000000
14.997398178000,0.040000000000
15.005085230000,0.040000000000
15.012772282000,0.038000000000
15.020459334000,0.028000000000
15.028146386000,0.007000000000
15.035833438000,-0.019000000000
15.043520490000,-0.050000000000
15.051207542000,-0.091000000000
15.058894594000,-0.122000000000
15.066581646000,-0.132000000000
15.074268698000,-0.139000000000
15.081955750000,-0.146000000000
15.089642802000,-0.141000000000
15.097329854000,-0.134000000000
15.105016906000,-0.137000000000
15.112703958000,-0.137000000000
15.120391010000,-0.129000000000
15.128078062000,-0.125000000000
15.135765114000,-0.125000000000
15.143452166000,-0.127000000000
15.151139218000,-0.132000000000
15.158826270000,-0.132000000000
15.166513322000,-0.129000000000
15.174200374000,-0.132000000000
15.181887426000,-0.132000000000
15.189574478000,-0.129000000000
15.197261530000,-0.137000000000
15.204948582000,-0.146000000000
15.212635634000,-0.149000000000
15.220322686000,-0.153000000000
15.228009738000,-0.156000000000
15.235696790000,-0.151000000000
15.243383842000,-0.144000000000
15.251070894000,-0.139000000000
15.258757946000,-0.117000000000
15.266444998000,-0.091000000000
15.274132050000,-0.098000000000
15.281819102000,-0.122000000000
15.289506154000,-0.125000000000
15.297193206000,-0.120000000000
15.304880258000,-0.125000000000
15.312567310000,-0.127000000000
15.320254362000,-0.122000000000
15.327941414000,-0.120000000000
15.335628466000,-0.144000000000
15.343315518000,-0.168000000000
15.351002570000,0.012000000000
15.358689622000,0.507000000000
15.366376674000,0.805000000000
15.374063726000,0.310000000000
15.381750778000,-0.480000000000
15.389437830000,-0.656000000000
15.397124882000,-0.372000000000
15.404811934000,-0.271000000000
15.412498986000,-0.266000000000
15.420186052000,-0.134000000000
15.427873173000,-0.069000000000
15.435560294000,-0.101000000000
15.443247415000,-0.086000000000
15.450934536000,-0.062000000000
15.458621657000,-0.062000000000
15.466308778000,-0.048000000000
15.473995899000,-0.033000000000
15.481683020000,-0.033000000000
15.489370141000,-0.028000000000
15.497057262000,-0.016000000000
15.504744383000,-0.007000000000
15.512431504000,0.002000000000
15.520118625000,0.014000000000
15.527805746000,0.031000000000
15.535492867000,0.045000000000
15.543179988000,0.055000000000
15.550867109000,0.072000000000
15.558554230000,0.084000000000
15.566241351000,0.086000000000
15.573928472000,0.081000000000
15.581615593000,0.081000000000
15.589302714000,0.091000000000
15.596989835000,0.103000000000
15.604676956000,0.091000000000
15.612364077000,0.067000000000
15.620051198000,0.048000000000
15.627738319000,0.004000000000
15.635425440000,-0.048000000000
15.643112561000,-0.086000000000
15.650799682000,-0.125000000000
15.658486803000,-0.156000000000
15.666173924000,-0.158000000000
15.673861045000,-0.153000000000
15.681548166000,-0.151000000000
15.689235287000,-0.146000000000
15.696922408000,-0.146000000000
15.704609529000,-0.149000000000
15.712296650000,-0.139000000000
15.719983771000,-0.132000000000
15.727670892000,-0.134000000000
15.735358013000,-0.132000000000
15.743045134000,-0.127000000000
15.750732255000,-0.132000000000
15.758419376000,-0.134000000000
15.766106497000,-0.134000000000
15.773793618000,-0.139000000000
15.781480739000,-0.139000000000
15.789167860000,-0.139000000000
15.796854981000,-0.151000000000
15.804542102000,-0.156000000000
15.812229223000,-0.156000000000
15.819916344000,-0.158000000000
15.827603465000,-0.153000000000
15.835290586000,-0.144000000000
15.842977707000,-0.132000000000
15.850664828000,-0.105000000000
15.858351949000,-0.091000000000
15.866039070000,-0.120000000000
15.873726191000,-0.139000000000
15.881413312000,-0.127000000000
15.889100433000,-0.127000000000
15.896787554000,-0.134000000000
15.904474675000,-0.115000000000
15.912161796000,-0.110000000000
15.919848917000,-0.149000000000
15.927536038000,-0.153000000000
15.935223159000,0.064000000000
15.942910280000,0.553000000000
15.950597401000,0.750000000000
15.958284522000,0.146000000000
15.965971643000,-0.613000000000
15.973658764000,-0.656000000000
15.981345949000,-0.324000000000
15.989032652000,-0.252000000000
15.996719355000,-0.245000000000
16.004406058000,-0.115000000000
16.012092761000,-0.074000000000
16.019779464000,-0.096000000000
16.027466167000,-0.074000000000
16.035152870000,-0.060000000000
16.042839573000,-0.060000000000
16.050526276000,-0.048000000000
16.058212979000,-0.040000000000
16.065899682000,-0.038000000000
16.073586385000,-0.028000000000
16.081273088000,-0.012000000000
16.088959791000,0.002000000000
16.096646494000,0.014000000000
16.104333197000,0.026000000000
16.112019900000,0.028000000000
16.119706603000,0.038000000000
16.127393306000,0.069000000000
16.135080009000,0.084000000000
16.142766712000,0.081000000000
16.150453415000,0.088000000000
16.158140118000,0.093000000000
16.165826821000,0.091000000000
16.173513524000,0.101000000000
16.181200227000,0.105000000000
16.188886930000,0.088000000000
16.196573633000,0.069000000000
16.204260336000,0.048000000000
16.211947039000,0.000000000000
16.219633742000,-0.050000000000
16.227320445000,-0.084000000000
16.235007148000,-0.115000000000
16.242693851000,-0.146000000000
16.250380554000,-0.156000000000
16.258067257000,-0.141000000000
16.265753960000,-0.139000000000
16.273440663000,-0.149000000000
16.281127366000,-0.141000000000
16.288814069000,-0.134000000000
16.296500772000,-0.132000000000
16.304187475000,-0.125000000000
16.311874178000,-0.122000000000
16.319560881000,-0.127000000000
16.327247584000,-0.122000000000
16.334934287000,-0.117000000000
16.342620990000,-0.122000000000
16.350307693000,-0.129000000000
16.357994396000,-0.132000000000
16.365681099000,-0.137000000000
16.373367802000,-0.146000000000
16.381054505000,-0.156000000000
16.388741208000,-0.158000000000
16.396427911000,-0.144000000000
16.404114614000,-0.127000000000
16.411801317000,-0.134000000000
16.419488020000,-0.137000000000
16.427174723000,-0.113000000000
16.434861426000,-0.103000000000
16.442548129000,-0.113000000000
16.450234832000,-0.117000000000
16.457921535000,-0.125000000000
16.465608238000,-0.129000000000
16.473294941000,-0.129000000000
16.480981644000,-0.122000000000
16.488668347000,-0.117000000000
16.496355050000,-0.153000000000
16.504041753000,-0.192000000000
16.511728456000,-0.031000000000
16.519415159000,0.442000000000
16.527101862000,0.762000000000
16.534788565000,0.351000000000
16.542475328000,-0.440000000000
16.550162449000,-0.649000000000
16.557849570000,-0.315000000000
16.565536691000,-0.202000000000
16.573223812000,-0.252000000000
16.580910933000,-0.132000000000
16.588598054000,-0.062000000000
16.596285175000,-0.108000000000
16.603972296000,-0.103000000000
16.611659417000,-0.062000000000
16.619346538000,-0.062000000000
16.627033659000,-0.069000000000
16.634720780000,-0.052000000000
16.642407901000,-0.043000000000
16.650095022000,-0.038000000000
16.657782143000,-0.024000000000
16.665469264000,-0.016000000000
16.673156385000,-0.021000000000
16.680843506000,-0.014000000000
16.688530627000,0.004000000000
16.696217748000,0.021000000000
16.703904869000,0.024000000000
16.711591990000,0.026000000000
16.719279111000,0.045000000000
16.726966232000,0.060000000000
16.734653353000,0.050000000000
16.742340474000,0.043000000000
16.750027595000,0.048000000000
16.757714716000,0.045000000000
16.765401837000,0.040000000000
16.773088958000,0.031000000000
16.780776079000,0.000000000000
16.788463200000,-0.040000000000
16.796150321000,-0.069000000000
16.803837442000,-0.096000000000
16.811524563000,-0.132000000000
16.819211684000,-0.163000000000
16.826898805000,-0.161000000000
16.834585926000,-0.141000000000
16.842273047000,-0.144000000000
16.849960168000,-0.153000000000
16.857647289000,-0.151000000000
16.865334410000,-0.144000000000
16.873021531000,-0.139000000000
16.880708652000,-0.134000000000
16.888395773000,-0.137000000000
16.896082894000,-0.139000000000
16.903770015000,-0.132000000000
16.911457136000,-0.129000000000
16.919144257000,-0.139000000000
16.926831378000,-0.146000000000
16.934518499000,-0.144000000000
16.942205620000,-0.149000000000
16.949892741000,-0.161000000000
16.957579862000,-0.168000000000
16.965266983000,-0.161000000000
16.972954104000,-0.146000000000
16.980641225000,-0.141000000000
16.988328346000,-0.144000000000
16.996015467000,-0.122000000000
17.003702588000,-0.103000000000
17.011389709000,-0.117000000000
17.019076830000,-0.134000000000
17.026763951000,-0.132000000000
17.034451072000,-0.132000000000
17.042138193000,-0.132000000000
17.049825314000,-0.127000000000
17.057512435000,-0.127000000000
17.065199556000,-0.151000000000
17.072886677000,-0.204000000000
17.080573798000,-0.137000000000
17.088260919000,0.269000000000
17.095948040000,0.719000000000
17.103635225000,0.529000000000
17.111322346000,-0.245000000000
17.119009467000,-0.656000000000
17.126696588000,-0.391000000000
17.134383709000,-0.187000000000
17.142070830000,-0.235000000000
17.149757951000,-0.168000000000
17.157445072000,-0.079000000000
17.165132193000,-0.103000000000
17.172819314000,-0.101000000000
17.180506435000,-0.064000000000
17.188193556000,-0.062000000000
17.195880677000,-0.062000000000
17.203567798000,-0.045000000000
17.211254919000,-0.038000000000
17.218942040000,-0.038000000000
17.226629161000,-0.026000000000
17.234316282000,-0.019000000000
17.242003403000,-0.016000000000
17.249690524000,-0.009000000000
17.257377645000,0.002000000000
17.265064766000,0.016000000000
17.272751887000,0.031000000000
17.280439008000,0.038000000000
17.288126129000,0.043000000000
17.295813250000,0.040000000000
17.303500371000,0.040000000000
17.311187492000,0.043000000000
17.318874613000,0.040000000000
17.326561734000,0.033000000000
17.334248855000,0.028000000000
17.341935976000,0.021000000000
17.349623097000,0.002000000000
17.357310218000,-0.028000000000
17.364997339000,-0.060000000000
17.372684460000,-0.091000000000
17.380371581000,-0.117000000000
17.388058702000,-0.134000000000
17.395745823000,-0.139000000000
17.403432944000,-0.137000000000
17.411120065000,-0.134000000000
17.418807186000,-0.129000000000
17.426494307000,-0.125000000000
17.434181428000,-0.122000000000
17.441868549000,-0.117000000000
17.449555670000,-0.115000000000
17.457242791000,-0.113000000000
17.464929912000,-0.108000000000
17.472617033000,-0.108000000000
17.480304154000,-0.108000000000
17.487991275000,-0.108000000000
17.495678396000,-0.113000000000
17.503365517000,-0.122000000000
17.511052638000,-0.129000000000
17.518739759000,-0.129000000000
17.526426880000,-0.125000000000
17.534114001000,-0.115000000000
17.541801122000,-0.110000000000
17.549488243000,-0.105000000000
17.557175364000,-0.084000000000
17.564862485000,-0.072000000000
17.572549606000,-0.088000000000
17.580236727000,-0.105000000000
17.587923848000,-0.103000000000
17.595610969000,-0.101000000000
17.603298090000,-0.101000000000
17.610985211000,-0.096000000000
17.618672332000,-0.096000000000
17.626359453000,-0.122000000000
17.634046574000,-0.182000000000
17.641733695000,-0.110000000000
17.649420816000,0.305000000000
17.657107937000,0.767000000000
17.664795122000,0.615000000000
17.672482243000,-0.129000000000
17.680169364000,-0.565000000000
17.687856485000,-0.341000000000
17.695543606000,-0.153000000000
17.703230727000,-0.197000000000
17.710917848000,-0.129000000000
17.718604969000,-0.050000000000
17.726292090000,-0.081000000000
17.733979211000,-0.084000000000
17.741666332000,-0.043000000000
17.749353453000,-0.040000000000
17.757040574000,-0.040000000000
17.764727695000,-0.024000000000
17.772414816000,-0.019000000000
17.780101937000,-0.016000000000
17.787789058000,-0.004000000000
17.795476179000,0.000000000000
17.803163300000,0.000000000000
17.810850421000,0.009000000000
17.818537542000,0.024000000000
17.826224663000,0.033000000000
17.833911784000,0.040000000000
17.841598905000,0.048000000000
17.849286026000,0.050000000000
17.856973147000,0.048000000000
17.864660268000,0.045000000000
17.872347389000,0.043000000000
17.880034510000,0.038000000000
17.887721631000,0.033000000000
17.895408752000,0.031000000000
17.903095873000,0.019000000000
17.910782994000,0.000000000000
17.918470115000,-0.019000000000
17.926157236000,-0.048000000000
17.933844357000,-0.081000000000
17.941531478000,-0.105000000000
17.949218599000,-0.115000000000
17.956905720000,-0.115000000000
17.964592841000,-0.113000000000
17.972279962000,-0.113000000000
17.979967083000,-0.110000000000
17.987654204000,-0.103000000000
17.995341325000,-0.098000000000
18.003028446000,-0.091000000000
18.010715567000,-0.086000000000
18.018402688000,-0.088000000000
18.026089809000,-0.091000000000
18.033776930000,-0.086000000000
18.041464051000,-0.088000000000
18.049151172000,-0.098000000000
18.056838293000,-0.105000000000
18.064525414000,-0.110000000000
18.072212535000,-0.110000000000
18.079899656000,-0.103000000000
18.087586777000,-0.096000000000
18.095273898000,-0.088000000000
18.102961019000,-0.072000000000
18.110648140000,-0.052000000000
18.118335261000,-0.064000000000
18.126022382000,-0.088000000000
18.133709503000,-0.091000000000
18.141396624000,-0.086000000000
18.149083745000,-0.091000000000
18.156770866000,-0.086000000000
18.164457987000,-0.081000000000
18.172145108000,-0.096000000000
18.179832229000,-0.149000000000
18.187519350000,-0.173000000000
18.195206471000,0.072000000000
18.202893592000,0.591000000000
18.210580713000,0.764000000000
18.218267834000,0.192000000000
18.225955023000,-0.480000000000
18.233642144000,-0.492000000000
18.241329265000,-0.202000000000
18.249016386000,-0.163000000000
18.256703507000,-0.158000000000
18.264390628000,-0.055000000000
18.272077749000,-0.043000000000
18.279764870000,-0.067000000000
18.287451991000,-0.045000000000
18.295139112000,-0.026000000000
18.302826233000,-0.028000000000
18.310513354000,-0.016000000000
18.318200475000,-0.004000000000
18.325887596000,0.000000000000
18.333574717000,0.004000000000
18.341261838000,0.009000000000
18.348948959000,0.016000000000
18.356636080000,0.026000000000
18.364323201000,0.038000000000
18.372010322000,0.045000000000
18.379697443000,0.057000000000
18.387384564000,0.062000000000
18.395071685000,0.067000000000
18.402758806000,0.069000000000
18.410445927000,0.069000000000
18.418133048000,0.064000000000
18.425820169000,0.062000000000
18.433507290000,0.064000000000
18.441194411000,0.057000000000
18.448881532000,0.045000000000
18.456568653000,0.033000000000
18.464255774000,0.007000000000
18.471942895000,-0.024000000000
18.479630016000,-0.055000000000
18.487317137000,-0.084000000000
18.495004258000,-0.103000000000
18.502691379000,-0.108000000000
18.510378500000,-0.108000000000
18.518065621000,-0.108000000000
18.525752742000,-0.101000000000
18.533439863000,-0.093000000000
18.541126984000,-0.093000000000
18.548814105000,-0.088000000000
18.556501226000,-0.086000000000
18.564188347000,-0.086000000000
18.571875468000,-0.084000000000
18.579562589000,-0.084000000000
18.587249710000,-0.093000000000
18.594936831000,-0.108000000000
18.602623952000,-0.115000000000
18.610311073000,-0.115000000000
18.617998194000,-0.108000000000
18.625685315000,-0.096000000000
18.633372436000,-0.091000000000
18.641059557000,-0.081000000000
18.648746678000,-0.060000000000
18.656433799000,-0.057000000000
18.664120920000,-0.081000000000
18.671808041000,-0.096000000000
18.679495162000,-0.093000000000
18.687182283000,-0.091000000000
18.694869404000,-0.091000000000
18.702556525000,-0.088000000000
18.710243646000,-0.096000000000
18.717930767000,-0.139000000000
18.725617888000,-0.194000000000
18.733305009000,-0.050000000000
18.740992130000,0.428000000000
18.748679251000,0.752000000000
18.756366372000,0.353000000000
18.764053493000,-0.377000000000
18.771740614000,-0.557000000000
18.779427735000,-0.264000000000
18.787114920000,-0.161000000000
18.794801832000,-0.177000000000
18.802488744000,-0.079000000000
18.810175656000,-0.038000000000
18.817862568000,-0.072000000000
18.825549480000,-0.055000000000
18.833236392000,-0.028000000000
18.840923304000,-0.036000000000
18.848610216000,-0.026000000000
18.856297128000,-0.009000000000
18.863984040000,-0.009000000000
18.871670952000,-0.004000000000
18.879357864000,0.007000000000
18.887044776000,0.012000000000
18.894731688000,0.014000000000
18.902418600000,0.026000000000
18.910105512000,0.038000000000
18.917792424000,0.045000000000
18.925479336000,0.052000000000
18.933166248000,0.057000000000
18.940853160000,0.060000000000
18.948540072000,0.057000000000
18.956226984000,0.057000000000
18.963913896000,0.057000000000
18.971600808000,0.060000000000
18.979287720000,0.060000000000
18.986974632000,0.055000000000
18.994661544000,0.033000000000
19.002348456000,0.007000000000
19.010035368000,-0.021000000000
19.017722280000,-0.055000000000
19.025409192000,-0.086000000000
19.033096104000,-0.103000000000
19.040783016000,-0.110000000000
19.048469928000,-0.115000000000
19.056156840000,-0.113000000000
19.063843752000,-0.108000000000
19.071530664000,-0.108000000000
19.079217576000,-0.105000000000
19.086904488000,-0.101000000000
19.094591400000,-0.098000000000
19.102278312000,-0.093000000000
19.109965224000,-0.088000000000
19.117652136000,-0.096000000000
19.125339048000,-0.108000000000
19.133025960000,-0.115000000000
19.140712872000,-0.115000000000
19.148399784000,-0.120000000000
19.156086696000,-0.115000000000
19.163773608000,-0.105000000000
19.171460520000,-0.101000000000
19.179147432000,-0.084000000000
19.186834344000,-0.062000000000
19.194521256000,-0.069000000000
19.202208168000,-0.098000000000
19.209895080000,-0.108000000000
19.217581992000,-0.105000000000
19.225268904000,-0.110000000000
19.232955816000,-0.110000000000
19.240642728000,-0.108000000000
19.248329640000,-0.117000000000
19.256016552000,-0.165000000000
19.263703464000,-0.158000000000
19.271390376000,0.146000000000
19.279077288000,0.637000000000
19.286764200000,0.634000000000
19.294451112000,-0.067000000000
19.302138024000,-0.627000000000
19.309824936000,-0.483000000000
19.317511848000,-0.214000000000
19.325198760000,-0.214000000000
19.332885672000,-0.170000000000
19.340572584000,-0.060000000000
19.348259560000,-0.064000000000
19.355946751000,-0.084000000000
19.363633942000,-0.055000000000
19.371321133000,-0.043000000000
19.379008324000,-0.045000000000
19.386695515000,-0.031000000000
19.394382706000,-0.024000000000
19.402069897000,-0.024000000000
19.409757088000,-0.007000000000
19.417444279000,0.007000000000
19.425131470000,0.012000000000
19.432818661000,0.021000000000
19.440505852000,0.033000000000
19.448193043000,0.043000000000
19.455880234000,0.055000000000
19.463567425000,0.064000000000
19.471254616000,0.069000000000
19.478941807000,0.072000000000
19.486628998000,0.074000000000
19.494316189000,0.076000000000
19.502003380000,0.084000000000
19.509690571000,0.088000000000
19.517377762000,0.086000000000
19.525064953000,0.069000000000
19.532752144000,0.040000000000
19.540439335000,0.000000000000
19.548126526000,-0.045000000000
19.555813717000,-0.088000000000
19.563500908000,-0.117000000000
19.571188099000,-0.134000000000
19.578875290000,-0.139000000000
19.586562481000,-0.141000000000
19.594249672000,-0.141000000000
19.601936863000,-0.134000000000
19.609624054000,-0.127000000000
19.617311245000,-0.125000000000
19.624998436000,-0.122000000000
19.632685627000,-0.122000000000
19.640372818000,-0.125000000000
19.648060009000,-0.127000000000
19.655747200000,-0.129000000000
19.663434391000,-0.132000000000
19.671121582000,-0.139000000000
19.678808773000,-0.144000000000
19.686495964000,-0.137000000000
19.694183155000,-0.129000000000
19.701870346000,-0.132000000000
19.709557537000,-0.120000000000
19.717244728000,-0.098000000000
19.724931919000,-0.096000000000
19.732619110000,-0.115000000000
19.740306301000,-0.122000000000
19.747993492000,-0.120000000000
19.755680683000,-0.122000000000
19.763367874000,-0.125000000000
19.771055065000,-0.127000000000
19.778742256000,-0.129000000000
19.786429447000,-0.151000000000
19.794116638000,-0.158000000000
19.801803829000,0.055000000000
19.809491020000,0.541000000000
19.817178211000,0.687000000000
19.824865402000,0.043000000000
19.832552593000,-0.670000000000
19.840239784000,-0.639000000000
19.847926975000,-0.315000000000
19.855614166000,-0.264000000000
19.863301357000,-0.233000000000
19.870988548000,-0.093000000000
19.878675739000,-0.060000000000
19.886362930000,-0.086000000000
19.894050121000,-0.055000000000
19.901737312000,-0.033000000000
19.909424544000,-0.040000000000
19.917111387000,-0.033000000000
19.924798230000,-0.021000000000
19.932485073000,-0.016000000000
19.940171916000,-0.012000000000
19.947858759000,0.000000000000
19.955545602000,0.016000000000
19.963232445000,0.031000000000
19.970919288000,0.038000000000
19.978606131000,0.045000000000
19.986292974000,0.062000000000
19.993979817000,0.079000000000
20.001666660000,0.086000000000
20.009353503000,0.093000000000
20.017040346000,0.098000000000
20.024727189000,0.103000000000
20.032414032000,0.113000000000
20.040100875000,0.115000000000
20.047787718000,0.115000000000
20.055474561000,0.105000000000
20.063161404000,0.076000000000
20.070848247000,0.028000000000
20.078535090000,-0.028000000000
20.086221933000,-0.074000000000
20.093908776000,-0.098000000000
20.101595619000,-0.127000000000
20.109282462000,-0.146000000000
20.116969305000,-0.149000000000
20.124656148000,-0.151000000000
20.132342991000,-0.151000000000
20.140029834000,-0.137000000000
20.147716677000,-0.132000000000
20.155403520000,-0.134000000000
20.163090363000,-0.127000000000
20.170777206000,-0.120000000000
20.178464049000,-0.122000000000
20.186150892000,-0.125000000000
20.193837735000,-0.125000000000
20.201524578000,-0.132000000000
20.209211421000,-0.139000000000
20.216898264000,-0.141000000000
20.224585107000,-0.139000000000
20.232271950000,-0.134000000000
20.239958793000,-0.132000000000
20.247645636000,-0.122000000000
20.255332479000,-0.098000000000
20.263019322000,-0.086000000000
20.270706165000,-0.105000000000
20.278393008000,-0.122000000000
20.286079851000,-0.120000000000
20.293766694000,-0.115000000000
20.301453537000,-0.117000000000
20.309140380000,-0.117000000000
20.316827223000,-0.127000000000
20.324514066000,-0.173000000000
20.332200909000,-0.185000000000
20.339887752000,0.088000000000
20.347574595000,0.606000000000
20.355261438000,0.699000000000
20.362948281000,0.026000000000
20.370635124000,-0.620000000000
20.378321967000,-0.526000000000
20.386008810000,-0.216000000000
20.393695653000,-0.204000000000
20.401382496000,-0.185000000000
20.409069339000,-0.062000000000
20.416756182000,-0.052000000000
20.424443025000,-0.079000000000
20.432129868000,-0.048000000000
20.439816711000,-0.026000000000
20.447503554000,-0.031000000000
20.455190397000,-0.021000000000
20.462877240000,-0.007000000000
20.470564093000,-0.007000000000
20.478251214000,0.000000000000
20.485938335000,0.007000000000
20.493625456000,0.014000000000
20.501312577000,0.024000000000
20.508999698000,0.033000000000
20.516686819000,0.040000000000
20.524373940000,0.050000000000
20.532061061000,0.060000000000
20.539748182000,0.064000000000
20.547435303000,0.069000000000
20.555122424000,0.074000000000
20.562809545000,0.076000000000
20.570496666000,0.081000000000
20.578183787000,0.084000000000
20.585870908000,0.084000000000
20.593558029000,0.079000000000
20.601245150000,0.060000000000
20.608932271000,0.026000000000
20.616619392000,-0.016000000000
20.624306513000,-0.055000000000
20.631993634000,-0.088000000000
20.639680755000,-0.108000000000
20.647367876000,-0.117000000000
20.655054997000,-0.117000000000
20.662742118000,-0.117000000000
20.670429239000,-0.113000000000
20.678116360000,-0.108000000000
20.685803481000,-0.103000000000
20.693490602000,-0.101000000000
20.701177723000,-0.098000000000
20.708864844000,-0.098000000000
20.716551965000,-0.098000000000
20.724239086000,-0.101000000000
20.731926207000,-0.103000000000
20.739613328000,-0.113000000000
20.747300449000,-0.122000000000
20.754987570000,-0.125000000000
20.762674691000,-0.120000000000
20.770361812000,-0.113000000000
20.778048933000,-0.108000000000
20.785736054000,-0.103000000000
20.793423175000,-0.079000000000
20.801110296000,-0.062000000000
20.808797417000,-0.076000000000
20.816484538000,-0.098000000000
20.824171659000,-0.101000000000
20.831858780000,-0.096000000000
20.839545901000,-0.093000000000
20.847233022000,-0.088000000000
20.854920143000,-0.093000000000
20.862607264000,-0.137000000000
20.870294385000,-0.206000000000
20.877981506000,-0.086000000000
20.885668627000,0.394000000000
20.893355748000,0.803000000000
20.901042869000,0.519000000000
20.908729990000,-0.223000000000
20.916417111000,-0.519000000000
20.924104232000,-0.257000000000
20.931791353000,-0.132000000000
20.939478474000,-0.180000000000
20.947165595000,-0.101000000000
20.954852716000,-0.043000000000
20.962539837000,-0.076000000000
20.970226958000,-0.067000000000
20.977914079000,-0.033000000000
20.985601200000,-0.033000000000
20.993288321000,-0.031000000000
21.000975442000,-0.012000000000
21.008662563000,-0.007000000000
21.016349684000,-0.007000000000
21.024036805000,0.000000000000
21.031723994000,0.004000000000
21.039410767000,0.012000000000
21.047097540000,0.019000000000
21.054784313000,0.026000000000
21.062471086000,0.031000000000
21.070157859000,0.038000000000
21.077844632000,0.038000000000
21.085531405000,0.038000000000
21.093218178000,0.038000000000
21.100904951000,0.033000000000
21.108591724000,0.031000000000
21.116278497000,0.028000000000
21.123965270000,0.026000000000
21.131652043000,0.024000000000
21.139338816000,0.016000000000
21.147025589000,-0.002000000000
21.154712362000,-0.026000000000
21.162399135000,-0.052000000000
21.170085908000,-0.081000000000
21.177772681000,-0.096000000000
21.185459454000,-0.101000000000
21.193146227000,-0.101000000000
21.200833000000,-0.103000000000
21.208519773000,-0.101000000000
21.216206546000,-0.096000000000
21.223893319000,-0.096000000000
21.231580092000,-0.091000000000
21.239266865000,-0.088000000000
21.246953638000,-0.091000000000
21.254640411000,-0.091000000000
21.262327184000,-0.091000000000
21.270013957000,-0.091000000000
21.277700730000,-0.093000000000
21.285387503000,-0.096000000000
21.293074276000,-0.105000000000
21.300761049000,-0.120000000000
21.308447822000,-0.122000000000
21.316134595000,-0.110000000000
21.323821368000,-0.101000000000
21.331508141000,-0.096000000000
21.339194914000,-0.084000000000
21.346881687000,-0.062000000000
21.354568460000,-0.055000000000
21.362255233000,-0.076000000000
21.369942006000,-0.091000000000
21.377628779000,-0.091000000000
21.385315552000,-0.091000000000
21.393002325000,-0.088000000000
21.400689098000,-0.084000000000
21.408375871000,-0.093000000000
21.416062644000,-0.149000000000
21.423749417000,-0.197000000000
21.431436190000,0.007000000000
21.439122963000,0.526000000000
21.446809736000,0.810000000000
21.454496509000,0.348000000000
21.462183282000,-0.370000000000
21.469870055000,-0.507000000000
21.477556828000,-0.230000000000
21.485243601000,-0.163000000000
21.492930374000,-0.180000000000
21.500617147000,-0.081000000000
21.508303920000,-0.052000000000
21.515990693000,-0.081000000000
21.523677466000,-0.060000000000
21.531364239000,-0.036000000000
21.539051012000,-0.036000000000
21.546737785000,-0.031000000000
21.554424558000,-0.016000000000
21.562111331000,-0.009000000000
21.569798104000,-0.009000000000
21.577484877000,-0.002000000000
21.585171650000,0.004000000000
21.592858460000,0.014000000000
21.600545651000,0.021000000000
21.608232842000,0.026000000000
21.615920033000,0.033000000000
21.623607224000,0.038000000000
21.631294415000,0.040000000000
21.638981606000,0.040000000000
21.646668797000,0.040000000000
21.654355988000,0.038000000000
21.662043179000,0.036000000000
21.669730370000,0.038000000000
21.677417561000,0.038000000000
21.685104752000,0.036000000000
21.692791943000,0.024000000000
21.700479134000,0.002000000000
21.708166325000,-0.026000000000
21.715853516000,-0.057000000000
21.723540707000,-0.084000000000
21.731227898000,-0.101000000000
21.738915089000,-0.105000000000
21.746602280000,-0.108000000000
21.754289471000,-0.110000000000
21.761976662000,-0.108000000000
21.769663853000,-0.101000000000
21.777351044000,-0.098000000000
21.785038235000,-0.098000000000
21.792725426000,-0.096000000000
21.800412617000,-0.096000000000
21.808099808000,-0.093000000000
21.815786999000,-0.096000000000
21.823474190000,-0.096000000000
21.831161381000,-0.098000000000
21.838848572000,-0.103000000000
21.846535763000,-0.110000000000
21.854222954000,-0.117000000000
21.861910145000,-0.122000000000
21.869597336000,-0.122000000000
21.877284527000,-0.117000000000
21.884971718000,-0.108000000000
21.892658909000,-0.101000000000
21.900346100000,-0.084000000000
21.908033291000,-0.062000000000
21.915720482000,-0.067000000000
21.923407673000,-0.093000000000
21.931094864000,-0.103000000000
21.938782055000,-0.096000000000
21.946469246000,-0.093000000000
21.954156437000,-0.093000000000
21.961843628000,-0.091000000000
21.969530819000,-0.115000000000
21.977218010000,-0.180000000000
21.984905201000,-0.146000000000
21.992592392000,0.233000000000
22.000279583000,0.714000000000
22.007966774000,0.613000000000
22.015653965000,-0.103000000000
22.023341156000,-0.572000000000
22.031028347000,-0.399000000000
22.038715538000,-0.189000000000
22.046402729000,-0.199000000000
22.054089920000,-0.132000000000
22.061777111000,-0.050000000000
22.069464302000,-0.074000000000
22.077151493000,-0.081000000000
22.084838684000,-0.043000000000
22.092525875000,-0.036000000000
22.100213066000,-0.040000000000
22.107900257000,-0.026000000000
22.115587448000,-0.016000000000
22.123274639000,-0.014000000000
22.130961830000,-0.009000000000
22.138649021000,0.000000000000
22.146336212000,0.007000000000
22.154023444000,0.014000000000
22.161710426000,0.021000000000
22.169397408000,0.031000000000
22.177084390000,0.038000000000
22.184771372000,0.043000000000
22.192458354000,0.048000000000
22.200145336000,0.048000000000
22.207832318000,0.050000000000
22.215519300000,0.052000000000
22.223206282000,0.055000000000
22.230893264000,0.060000000000
22.238580246000,0.062000000000
22.246267228000,0.048000000000
22.253954210000,0.021000000000
22.261641192000,-0.007000000000
22.269328174000,-0.045000000000
22.277015156000,-0.081000000000
22.284702138000,-0.103000000000
22.292389120000,-0.115000000000
22.300076102000,-0.120000000000
22.307763084000,-0.122000000000
22.315450066000,-0.117000000000
22.323137048000,-0.117000000000
22.330824030000,-0.115000000000
22.338511012000,-0.113000000000
22.346197994000,-0.110000000000
22.353884976000,-0.108000000000
22.361571958000,-0.108000000000
22.369258940000,-0.108000000000
22.376945922000,-0.105000000000
22.384632904000,-0.105000000000
22.392319886000,-0.110000000000
22.400006868000,-0.120000000000
22.407693850000,-0.125000000000
22.415380832000,-0.132000000000
22.423067814000,-0.137000000000
22.430754796000,-0.134000000000
22.438441778000,-0.125000000000
22.446128760000,-0.117000000000
22.453815742000,-0.105000000000
22.461502724000,-0.084000000000
22.469189706000,-0.072000000000
22.476876688000,-0.088000000000
22.484563670000,-0.108000000000
22.492250652000,-0.108000000000
22.499937634000,-0.108000000000
22.507624616000,-0.108000000000
22.515311598000,-0.101000000000
22.522998580000,-0.110000000000
22.530685562000,-0.161000000000
22.538372544000,-0.189000000000
22.546059526000,0.033000000000
22.553746508000,0.533000000000
22.561433490000,0.721000000000
22.569120472000,0.177000000000
22.576807454000,-0.492000000000
22.584494436000,-0.533000000000
22.592181418000,-0.257000000000
22.599868400000,-0.199000000000
22.607555382000,-0.182000000000
22.615242364000,-0.076000000000
22.622929346000,-0.060000000000
22.630616328000,-0.086000000000
22.638303310000,-0.060000000000
22.645990292000,-0.040000000000
22.653677274000,-0.043000000000
22.661364256000,-0.033000000000
22.669051238000,-0.019000000000
22.676738220000,-0.016000000000
22.684425202000,-0.012000000000
22.692112184000,-0.002000000000
22.699799166000,0.002000000000
22.707486148000,0.007000000000
22.715173167000,0.021000000000
22.722860288000,0.031000000000
22.730547409000,0.036000000000
22.738234530000,0.043000000000
22.745921651000,0.050000000000
22.753608772000,0.052000000000
22.761295893000,0.055000000000
22.768983014000,0.060000000000
22.776670135000,0.064000000000
22.784357256000,0.069000000000
22.792044377000,0.076000000000
22.799731498000,0.069000000000
22.807418619000,0.048000000000
22.815105740000,0.012000000000
22.822792861000,-0.028000000000
22.830479982000,-0.067000000000
22.838167103000,-0.096000000000
22.845854224000,-0.115000000000
22.853541345000,-0.120000000000
22.861228466000,-0.122000000000
22.868915587000,-0.122000000000
22.876602708000,-0.120000000000
22.884289829000,-0.115000000000
22.891976950000,-0.113000000000
22.899664071000,-0.110000000000
22.907351192000,-0.110000000000
22.915038313000,-0.108000000000
22.922725434000,-0.108000000000
22.930412555000,-0.108000000000
22.938099676000,-0.110000000000
22.945786797000,-0.110000000000
22.953473918000,-0.113000000000
22.961161039000,-0.122000000000
22.968848160000,-0.129000000000
22.976535281000,-0.137000000000
22.984222402000,-0.137000000000
22.991909523000,-0.127000000000
22.999596644000,-0.115000000000
23.007283765000,-0.110000000000
23.014970886000,-0.091000000000
23.022658007000,-0.074000000000
23.030345128000,-0.086000000000
23.038032249000,-0.110000000000
23.045719370000,-0.110000000000
23.053406491000,-0.105000000000
23.061093612000,-0.108000000000
23.068780733000,-0.105000000000
23.076467854000,-0.105000000000
23.084154975000,-0.141000000000
23.091842096000,-0.192000000000
23.099529217000,-0.045000000000
23.107216338000,0.425000000000
23.114903459000,0.740000000000
23.122590580000,0.336000000000
23.130277701000,-0.389000000000
23.137964822000,-0.574000000000
23.145651943000,-0.300000000000
23.153339064000,-0.192000000000
23.161026185000,-0.199000000000
23.168713306000,-0.096000000000
23.176400427000,-0.050000000000
23.184087548000,-0.081000000000
23.191774669000,-0.067000000000
23.199461790000,-0.038000000000
23.207148911000,-0.040000000000
23.214836032000,-0.033000000000
23.222523153000,-0.019000000000
23.230210274000,-0.014000000000
23.237897395000,-0.009000000000
23.245584516000,-0.002000000000
23.253271637000,0.004000000000
23.260958758000,0.012000000000
23.268645879000,0.024000000000
23.276333064000,0.033000000000
23.284020185000,0.038000000000
23.291707306000,0.048000000000
23.299394427000,0.055000000000
23.307081548000,0.060000000000
23.314768669000,0.062000000000
23.322455790000,0.064000000000
23.330142911000,0.069000000000
23.337830032000,0.076000000000
23.345517153000,0.081000000000
23.353204274000,0.076000000000
23.360891395000,0.055000000000
23.368578516000,0.021000000000
23.376265637000,-0.019000000000
23.383952758000,-0.060000000000
23.391639879000,-0.091000000000
23.399327000000,-0.113000000000
23.407014121000,-0.125000000000
23.414701242000,-0.129000000000
23.422388363000,-0.127000000000
23.430075484000,-0.125000000000
23.437762605000,-0.120000000000
23.445449726000,-0.115000000000
23.453136847000,-0.110000000000
23.460823968000,-0.113000000000
23.468511089000,-0.113000000000
23.476198210000,-0.113000000000
23.483885331000,-0.113000000000
23.491572452000,-0.113000000000
23.499259573000,-0.115000000000
23.506946694000,-0.122000000000
23.514633815000,-0.129000000000
23.522320936000,-0.134000000000
23.530008057000,-0.137000000000
23.537695178000,-0.132000000000
23.545382299000,-0.125000000000
23.553069420000,-0.120000000000
23.560756541000,-0.110000000000
23.568443662000,-0.084000000000
23.576130783000,-0.076000000000
23.583817904000,-0.098000000000
23.591505025000,-0.110000000000
23.599192146000,-0.105000000000
23.606879267000,-0.105000000000
23.614566388000,-0.110000000000
23.622253509000,-0.105000000000
23.629940630000,-0.115000000000
23.637627751000,-0.170000000000
23.645314872000,-0.177000000000
23.653001993000,0.117000000000
23.660689114000,0.615000000000
23.668376235000,0.654000000000
23.676063356000,-0.012000000000
23.683750477000,-0.586000000000
23.691437598000,-0.480000000000
23.699124719000,-0.221000000000
23.706811840000,-0.214000000000
23.714498961000,-0.170000000000
23.722186082000,-0.067000000000
23.729873203000,-0.069000000000
23.737560324000,-0.091000000000
23.745247445000,-0.062000000000
23.752934566000,-0.052000000000
23.760621687000,-0.057000000000
23.768308808000,-0.045000000000
23.775995929000,-0.031000000000
23.783683050000,-0.026000000000
23.791370171000,-0.021000000000
23.799057292000,-0.016000000000
23.806744413000,-0.009000000000
23.814431534000,0.002000000000
23.822118655000,0.012000000000
23.829805776000,0.021000000000
23.837492961000,0.031000000000
23.845180082000,0.040000000000
23.852867203000,0.048000000000
23.860554324000,0.048000000000
23.868241445000,0.050000000000
23.875928566000,0.062000000000
23.883615687000,0.072000000000
23.891302808000,0.074000000000
23.898989929000,0.074000000000
23.906677050000,0.062000000000
23.914364171000,0.036000000000
23.922051292000,-0.004000000000
23.929738413000,-0.050000000000
23.937425534000,-0.091000000000
23.945112655000,-0.117000000000
23.952799776000,-0.134000000000
23.960486897000,-0.141000000000
23.968174018000,-0.146000000000
23.975861139000,-0.144000000000
23.983548260000,-0.134000000000
23.991235381000,-0.129000000000
23.998922502000,-0.134000000000
24.006609623000,-0.137000000000
24.014296744000,-0.129000000000
24.021983865000,-0.125000000000
24.029670986000,-0.127000000000
24.037358107000,-0.132000000000
24.045045228000,-0.129000000000
24.052732349000,-0.137000000000
24.060419470000,-0.146000000000
24.068106591000,-0.149000000000
24.075793712000,-0.144000000000
24.083480833000,-0.139000000000
24.091167954000,-0.139000000000
24.098855075000,-0.134000000000
24.106542196000,-0.110000000000
24.114229317000,-0.091000000000
24.121916438000,-0.101000000000
24.129603559000,-0.122000000000
24.137290680000,-0.122000000000
24.144977801000,-0.117000000000
24.152664922000,-0.120000000000
24.160352043000,-0.122000000000
24.168039164000,-0.120000000000
24.175726285000,-0.141000000000
24.183413406000,-0.125000000000
24.191100527000,0.153000000000
24.198787648000,0.625000000000
24.206474769000,0.620000000000
24.214161890000,-0.125000000000
24.221849011000,-0.719000000000
24.229536132000,-0.557000000000
24.237223253000,-0.283000000000
24.244910374000,-0.276000000000
24.252597495000,-0.202000000000
24.260284616000,-0.064000000000
24.267971737000,-0.055000000000
24.275658858000,-0.072000000000
24.283345979000,-0.045000000000
24.291033100000,-0.031000000000
24.298720221000,-0.028000000000
24.306407342000,-0.024000000000
24.314094463000,-0.019000000000
24.321781584000,-0.004000000000
24.329468705000,0.012000000000
24.337155826000,0.016000000000
24.344842947000,0.024000000000
24.352530068000,0.040000000000
24.360217189000,0.055000000000
24.367904310000,0.067000000000
24.375591431000,0.076000000000
24.383278552000,0.088000000000
24.390965673000,0.103000000000
24.398652862000,0.115000000000
24.406339635000,0.122000000000
24.414026408000,0.132000000000
24.421713181000,0.144000000000
24.429399954000,0.146000000000
24.437086727000,0.139000000000
24.444773500000,0.117000000000
24.452460273000,0.079000000000
24.460147046000,0.026000000000
24.467833819000,-0.031000000000
24.475520592000,-0.081000000000
24.483207365000,-0.117000000000
24.490894138000,-0.139000000000
24.498580911000,-0.149000000000
24.506267684000,-0.156000000000
24.513954457000,-0.153000000000
24.521641230000,-0.146000000000
24.529328003000,-0.137000000000
24.537014776000,-0.132000000000
24.544701549000,-0.125000000000
24.552388322000,-0.122000000000
24.560075095000,-0.125000000000
24.567761868000,-0.120000000000
24.575448641000,-0.113000000000
24.583135414000,-0.117000000000
24.590822187000,-0.127000000000
24.598508960000,-0.129000000000
24.606195733000,-0.129000000000
24.613882506000,-0.132000000000
24.621569279000,-0.129000000000
24.629256052000,-0.125000000000
24.636942825000,-0.127000000000
24.644629598000,-0.110000000000
24.652316371000,-0.088000000000
24.660003144000,-0.093000000000
24.667689917000,-0.110000000000
24.675376690000,-0.115000000000
24.683063463000,-0.115000000000
24.690750236000,-0.113000000000
24.698437009000,-0.110000000000
24.706123782000,-0.127000000000
24.713810555000,-0.175000000000
24.721497328000,-0.182000000000
24.729184101000,0.088000000000
24.736870874000,0.586000000000
24.744557647000,0.654000000000
24.752244420000,-0.021000000000
24.759931193000,-0.646000000000
24.767617966000,-0.545000000000
24.775304739000,-0.252000000000
24.782991512000,-0.235000000000
24.790678285000,-0.202000000000
24.798365058000,-0.081000000000
24.806051831000,-0.074000000000
24.813738604000,-0.101000000000
24.821425377000,-0.074000000000
24.829112150000,-0.055000000000
24.836798923000,-0.057000000000
24.844485696000,-0.048000000000
24.852172469000,-0.038000000000
24.859859242000,-0.038000000000
24.867546015000,-0.031000000000
24.875232788000,-0.021000000000
24.882919561000,-0.014000000000
24.890606334000,-0.004000000000
24.898293107000,0.002000000000
24.905979880000,0.012000000000
24.913666653000,0.021000000000
24.921353426000,0.033000000000
24.929040199000,0.040000000000
24.936726972000,0.043000000000
24.944413745000,0.045000000000
24.952100518000,0.055000000000
24.959787328000,0.064000000000
24.967474519000,0.067000000000
24.975161710000,0.064000000000
24.982848901000,0.057000000000
24.990536092000,0.031000000000
24.998223283000,-0.012000000000
25.005910474000,-0.057000000000
25.013597665000,-0.103000000000
25.021284856000,-0.139000000000
25.028972047000,-0.156000000000
25.036659238000,-0.165000000000
25.044346429000,-0.168000000000
25.052033620000,-0.168000000000
25.059720811000,-0.165000000000
25.067408002000,-0.161000000000
25.075095193000,-0.156000000000
25.082782384000,-0.156000000000
25.090469575000,-0.153000000000
25.098156766000,-0.153000000000
25.105843957000,-0.151000000000
25.113531148000,-0.151000000000
25.121218339000,-0.158000000000
25.128905530000,-0.173000000000
25.136592721000,-0.182000000000
25.144279912000,-0.185000000000
25.151967103000,-0.180000000000
25.159654294000,-0.173000000000
25.167341485000,-0.173000000000
25.175028676000,-0.165000000000
25.182715867000,-0.141000000000
25.190403058000,-0.134000000000
25.198090249000,-0.156000000000
25.205777440000,-0.168000000000
25.213464631000,-0.163000000000
25.221151822000,-0.165000000000
25.228839013000,-0.165000000000
25.236526204000,-0.170000000000
25.244213395000,-0.202000000000
25.251900586000,-0.276000000000
25.259587777000,-0.238000000000
25.267274968000,0.163000000000
25.274962159000,0.656000000000
25.282649350000,0.557000000000
25.290336541000,-0.158000000000
25.298023732000,-0.625000000000
25.305710923000,-0.435000000000
25.313398114000,-0.228000000000
25.321085305000,-0.257000000000
25.328772496000,-0.206000000000
25.336459687000,-0.132000000000
25.344146878000,-0.153000000000
25.351834069000,-0.153000000000
25.359521260000,-0.122000000000
25.367208451000,-0.122000000000
25.374895642000,-0.120000000000
25.382582833000,-0.101000000000
25.390270024000,-0.096000000000
25.397957215000,-0.096000000000
25.405644406000,-0.088000000000
25.413331597000,-0.084000000000
25.421018788000,-0.081000000000
25.428705979000,-0.074000000000
25.436393170000,-0.064000000000
25.444080361000,-0.055000000000
25.451767552000,-0.048000000000
25.459454743000,-0.043000000000
25.467141934000,-0.045000000000
25.474829125000,-0.043000000000
25.482516316000,-0.043000000000
25.490203507000,-0.048000000000
25.497890698000,-0.048000000000
25.505577889000,-0.045000000000
25.513265080000,-0.048000000000
25.520952312000,-0.062000000000
25.528639294000,-0.081000000000
25.536326276000,-0.103000000000
25.544013258000,-0.129000000000
25.551700240000,-0.156000000000
25.559387222000,-0.180000000000
25.567074204000,-0.187000000000
25.574761186000,-0.187000000000
25.582448168000,-0.185000000000
25.590135150000,-0.180000000000
25.597822132000,-0.173000000000
25.605509114000,-0.168000000000
25.613196096000,-0.165000000000
25.620883078000,-0.163000000000
25.628570060000,-0.161000000000
25.636257042000,-0.156000000000
25.643944024000,-0.153000000000
25.651631006000,-0.158000000000
25.659317988000,-0.163000000000
25.667004970000,-0.170000000000
25.674691952000,-0.177000000000
25.682378934000,-0.175000000000
25.690065916000,-0.163000000000
25.697752898000,-0.151000000000
25.705439880000,-0.141000000000
25.713126862000,-0.120000000000
25.720813844000,-0.108000000000
25.728500826000,-0.122000000000
25.736187808000,-0.139000000000
25.743874790000,-0.139000000000
25.751561772000,-0.137000000000
25.759248754000,-0.137000000000
25.766935736000,-0.129000000000
25.774622718000,-0.137000000000
25.782309700000,-0.192000000000
25.789996682000,-0.230000000000
25.797683664000,0.012000000000
25.805370646000,0.533000000000
25.813057628000,0.707000000000
25.820744610000,0.134000000000
25.828431592000,-0.519000000000
25.836118574000,-0.519000000000
25.843805556000,-0.240000000000
25.851492538000,-0.206000000000
25.859179520000,-0.189000000000
25.866866502000,-0.084000000000
25.874553484000,-0.076000000000
25.882240466000,-0.103000000000
25.889927448000,-0.072000000000
25.897614430000,-0.050000000000
25.905301412000,-0.055000000000
25.912988394000,-0.048000000000
25.920675376000,-0.033000000000
25.928362358000,-0.028000000000
25.936049340000,-0.021000000000
25.943736322000,-0.009000000000
25.951423304000,-0.002000000000
25.959110286000,0.002000000000
25.966797268000,0.012000000000
25.974484250000,0.021000000000
25.982171232000,0.031000000000
25.989858214000,0.040000000000
25.997545196000,0.045000000000
26.005232178000,0.045000000000
26.012919160000,0.048000000000
26.020606142000,0.050000000000
26.028293124000,0.045000000000
26.035980106000,0.045000000000
26.043667088000,0.050000000000
26.051354070000,0.043000000000
26.059041052000,0.021000000000
26.066728034000,-0.004000000000
26.074415016000,-0.038000000000
26.082102035000,-0.074000000000
26.089789156000,-0.101000000000
26.097476277000,-0.113000000000
26.105163398000,-0.115000000000
26.112850519000,-0.115000000000
26.120537640000,-0.113000000000
26.128224761000,-0.110000000000
26.135911882000,-0.105000000000
26.143599003000,-0.101000000000
26.151286124000,-0.098000000000
26.158973245000,-0.093000000000
26.166660366000,-0.091000000000
26.174347487000,-0.093000000000
26.182034608000,-0.091000000000
26.189721729000,-0.091000000000
26.197408850000,-0.096000000000
26.205095971000,-0.108000000000
26.212783092000,-0.115000000000
26.220470213000,-0.113000000000
26.228157334000,-0.108000000000
26.235844455000,-0.101000000000
26.243531576000,-0.096000000000
26.251218697000,-0.081000000000
26.258905818000,-0.060000000000
26.266592939000,-0.052000000000
26.274280060000,-0.072000000000
26.281967181000,-0.086000000000
26.289654302000,-0.084000000000
26.297341423000,-0.081000000000
26.305028544000,-0.081000000000
26.312715665000,-0.079000000000
26.320402786000,-0.091000000000
26.328089907000,-0.151000000000
26.335777028000,-0.163000000000
26.343464149000,0.129000000000
26.351151270000,0.639000000000
26.358838391000,0.699000000000
26.366525512000,0.048000000000
26.374212633000,-0.538000000000
26.381899754000,-0.454000000000
26.389586875000,-0.192000000000
26.397273996000,-0.177000000000
26.404961117000,-0.141000000000
26.412648238000,-0.036000000000
26.420335359000,-0.033000000000
26.428022480000,-0.052000000000
26.435709601000,-0.024000000000
26.443396722000,-0.007000000000
26.451083843000,-0.012000000000
26.458770964000,0.002000000000
26.466458085000,0.016000000000
26.474145206000,0.016000000000
26.481832327000,0.021000000000
26.489519448000,0.028000000000
26.497206569000,0.038000000000
26.504893690000,0.050000000000
26.512580811000,0.060000000000
26.520267932000,0.069000000000
26.527955053000,0.076000000000
26.535642174000,0.084000000000
26.543329295000,0.091000000000
26.551016416000,0.091000000000
26.558703537000,0.091000000000
26.566390658000,0.096000000000
26.574077779000,0.103000000000
26.581764900000,0.108000000000
26.589452021000,0.108000000000
26.597139142000,0.098000000000
26.604826263000,0.074000000000
26.612513384000,0.040000000000
26.620200505000,0.000000000000
26.627887626000,-0.040000000000
26.635574747000,-0.069000000000
26.643261932000,-0.084000000000
26.650949053000,-0.091000000000
26.658636174000,-0.093000000000
26.666323295000,-0.091000000000
26.674010416000,-0.086000000000
26.681697537000,-0.079000000000
26.689384658000,-0.079000000000
26.697071779000,-0.079000000000
26.704758900000,-0.076000000000
26.712446021000,-0.076000000000
26.720133142000,-0.076000000000
26.727820263000,-0.076000000000
26.735507384000,-0.079000000000
26.743194505000,-0.076000000000
26.750881626000,-0.079000000000
26.758568747000,-0.081000000000
26.766255868000,-0.088000000000
26.773942989000,-0.096000000000
26.781630110000,-0.103000000000
26.789317231000,-0.101000000000
26.797004352000,-0.091000000000
26.804691473000,-0.084000000000
26.812378594000,-0.081000000000
26.820065715000,-0.060000000000
26.827752836000,-0.040000000000
26.835439957000,-0.052000000000
26.843127078000,-0.074000000000
26.850814199000,-0.076000000000
26.858501320000,-0.069000000000
26.866188441000,-0.069000000000
26.873875562000,-0.067000000000
26.881562683000,-0.072000000000
26.889249804000,-0.113000000000
26.896936925000,-0.158000000000
26.904624046000,0.014000000000
26.912311167000,0.509000000000
26.919998288000,0.800000000000
26.927685409000,0.348000000000
26.935372530000,-0.372000000000
26.943059651000,-0.529000000000
26.950746772000,-0.257000000000
26.958433893000,-0.165000000000
26.966121014000,-0.168000000000
26.973808135000,-0.060000000000
26.981495256000,-0.016000000000
26.989182377000,-0.045000000000
26.996869498000,-0.028000000000
27.004556619000,-0.004000000000
27.012243740000,-0.009000000000
27.019930861000,-0.004000000000
27.027617982000,0.012000000000
27.035305103000,0.019000000000
27.042992224000,0.021000000000
27.050679345000,0.021000000000
27.058366466000,0.024000000000
27.066053587000,0.033000000000
27.073740708000,0.048000000000
27.081427829000,0.060000000000
27.089114950000,0.067000000000
27.096802071000,0.074000000000
27.104489192000,0.084000000000
27.112176313000,0.086000000000
27.119863434000,0.088000000000
27.127550555000,0.093000000000
27.135237676000,0.098000000000
27.142924797000,0.108000000000
27.150611918000,0.115000000000
27.158299039000,0.110000000000
27.165986160000,0.088000000000
27.173673281000,0.057000000000
27.181360402000,0.019000000000
27.189047523000,-0.024000000000
27.196734644000,-0.060000000000
27.204421829000,-0.084000000000
27.212108950000,-0.096000000000
27.219796071000,-0.103000000000
27.227483192000,-0.105000000000
27.235170313000,-0.105000000000
27.242857434000,-0.105000000000
27.250544555000,-0.103000000000
27.258231676000,-0.101000000000
27.265918797000,-0.103000000000
27.273605918000,-0.103000000000
27.281293039000,-0.101000000000
27.288980160000,-0.098000000000
27.296667281000,-0.103000000000
27.304354402000,-0.105000000000
27.312041523000,-0.108000000000
27.319728644000,-0.108000000000
27.327415765000,-0.113000000000
27.335102886000,-0.120000000000
27.342790007000,-0.127000000000
27.350477128000,-0.134000000000
27.358164249000,-0.137000000000
27.365851370000,-0.132000000000
27.373538491000,-0.120000000000
27.381225612000,-0.115000000000
27.388912733000,-0.096000000000
27.396599854000,-0.072000000000
27.404286975000,-0.081000000000
27.411974096000,-0.105000000000
27.419661217000,-0.108000000000
27.427348338000,-0.103000000000
27.435035459000,-0.101000000000
27.442722580000,-0.098000000000
27.450409701000,-0.103000000000
27.458096822000,-0.139000000000
27.465783943000,-0.182000000000
27.473471064000,-0.019000000000
27.481158185000,0.476000000000
27.488845306000,0.795000000000
27.496532427000,0.370000000000
27.504219548000,-0.363000000000
27.511906669000,-0.550000000000
27.519593790000,-0.298000000000
27.527280911000,-0.214000000000
27.534968032000,-0.226000000000
27.542655153000,-0.122000000000
27.550342274000,-0.069000000000
27.558029395000,-0.096000000000
27.565716516000,-0.081000000000
27.573403637000,-0.052000000000
27.581090758000,-0.055000000000
27.588777879000,-0.050000000000
27.596465000000,-0.031000000000
27.604152121000,-0.024000000000
27.611839242000,-0.024000000000
27.619526363000,-0.012000000000
27.627213484000,0.000000000000
27.634900605000,0.007000000000
27.642587726000,0.019000000000
27.650274847000,0.033000000000
27.657961968000,0.045000000000
27.665649089000,0.052000000000
27.673336210000,0.062000000000
27.681023331000,0.074000000000
27.688710452000,0.079000000000
27.696397573000,0.088000000000
27.704084694000,0.108000000000
27.711771815000,0.125000000000
27.719458936000,0.127000000000
27.727146057000,0.117000000000
27.734833178000,0.101000000000
27.742520299000,0.067000000000
27.750207420000,0.019000000000
27.757894541000,-0.033000000000
27.765581726000,-0.084000000000
27.773268847000,-0.117000000000
27.780955968000,-0.129000000000
27.788643089000,-0.139000000000
27.796330210000,-0.141000000000
27.804017331000,-0.139000000000
27.811704452000,-0.134000000000
27.819391573000,-0.132000000000
27.827078694000,-0.129000000000
27.834765815000,-0.127000000000
27.842452936000,-0.117000000000
27.850140057000,-0.117000000000
27.857827178000,-0.120000000000
27.865514299000,-0.120000000000
27.873201420000,-0.122000000000
27.880888541000,-0.127000000000
27.888575662000,-0.127000000000
27.896262783000,-0.134000000000
27.903949904000,-0.141000000000
27.911637025000,-0.141000000000
27.919324146000,-0.137000000000
27.927011267000,-0.132000000000
27.934698388000,-0.132000000000
27.942385509000,-0.134000000000
27.950072630000,-0.120000000000
27.957759751000,-0.098000000000
27.965446872000,-0.098000000000
27.973133993000,-0.105000000000
27.980821114000,-0.108000000000
27.988508235000,-0.108000000000
27.996195356000,-0.105000000000
28.003882477000,-0.105000000000
28.011569598000,-0.113000000000
28.019256719000,-0.139000000000
28.026943840000,-0.165000000000
28.034630961000,0.002000000000
28.042318082000,0.495000000000
28.050005203000,0.800000000000
28.057692324000,0.327000000000
28.065379445000,-0.437000000000
28.073066566000,-0.601000000000
28.080753687000,-0.319000000000
28.088440808000,-0.221000000000
28.096127929000,-0.230000000000
28.103815050000,-0.117000000000
28.111502171000,-0.057000000000
28.119189292000,-0.088000000000
28.126876413000,-0.074000000000
28.134563534000,-0.040000000000
28.142250655000,-0.043000000000
28.149937776000,-0.038000000000
28.157624897000,-0.024000000000
28.165312018000,-0.019000000000
28.172999139000,-0.014000000000
28.180686260000,-0.004000000000
28.188373381000,0.000000000000
28.196060502000,0.012000000000
28.203747623000,0.028000000000
28.211434744000,0.036000000000
28.219121865000,0.048000000000
28.226808986000,0.064000000000
28.234496107000,0.076000000000
28.242183228000,0.084000000000
28.249870349000,0.091000000000
28.257557470000,0.103000000000
28.265244591000,0.110000000000
28.272931712000,0.120000000000
28.280618833000,0.129000000000
28.288305954000,0.127000000000
28.295993075000,0.105000000000
28.303680196000,0.062000000000
28.311367317000,0.012000000000
28.319054438000,-0.038000000000
28.326741627000,-0.086000000000
28.334428748000,-0.120000000000
28.342115869000,-0.132000000000
28.349802990000,-0.144000000000
28.357490111000,-0.151000000000
28.365177232000,-0.139000000000
28.372864353000,-0.129000000000
28.380551474000,-0.137000000000
28.388238595000,-0.132000000000
28.395925716000,-0.117000000000
28.403612837000,-0.115000000000
28.411299958000,-0.117000000000
28.418987079000,-0.113000000000
28.426674200000,-0.113000000000
28.434361321000,-0.117000000000
28.442048442000,-0.120000000000
28.449735563000,-0.120000000000
28.457422684000,-0.122000000000
28.465109805000,-0.137000000000
28.472796926000,-0.149000000000
28.480484047000,-0.139000000000
28.488171168000,-0.125000000000
28.495858289000,-0.127000000000
28.503545410000,-0.139000000000
28.511232531000,-0.132000000000
28.518919652000,-0.105000000000
28.526606773000,-0.088000000000
28.534293894000,-0.101000000000
28.541981015000,-0.115000000000
28.549668136000,-0.110000000000
28.557355257000,-0.108000000000
28.565042378000,-0.108000000000
28.572729499000,-0.103000000000
28.580416620000,-0.115000000000
28.588103741000,-0.165000000000
28.595790862000,-0.156000000000
28.603477983000,0.173000000000
28.611165104000,0.721000000000
28.618852225000,0.786000000000
28.626539346000,0.072000000000
28.634226467000,-0.584000000000
28.641913588000,-0.505000000000
28.649600709000,-0.226000000000
28.657287830000,-0.218000000000
28.664974951000,-0.194000000000
28.672662072000,-0.076000000000
28.680349193000,-0.067000000000
28.688036314000,-0.091000000000
28.695723435000,-0.060000000000
28.703410556000,-0.040000000000
28.711097677000,-0.048000000000
28.718784798000,-0.040000000000
28.726471919000,-0.026000000000
28.734159040000,-0.021000000000
28.741846161000,-0.012000000000
28.749533282000,-0.002000000000
28.757220403000,0.007000000000
28.764907524000,0.019000000000
28.772594645000,0.028000000000
28.780281766000,0.043000000000
28.787968887000,0.057000000000
28.795656008000,0.072000000000
28.803343129000,0.079000000000
28.811030250000,0.086000000000
28.818717371000,0.093000000000
28.826404492000,0.096000000000
28.834091613000,0.101000000000
28.841778734000,0.105000000000
28.849465855000,0.110000000000
28.857152976000,0.103000000000
28.864840097000,0.086000000000
28.872527218000,0.055000000000
28.880214339000,0.012000000000
28.887901524000,-0.033000000000
28.895588436000,-0.069000000000
28.903275348000,-0.093000000000
28.910962260000,-0.108000000000
28.918649172000,-0.113000000000
28.926336084000,-0.115000000000
28.934022996000,-0.110000000000
28.941709908000,-0.108000000000
28.949396820000,-0.105000000000
28.957083732000,-0.103000000000
28.964770644000,-0.101000000000
28.972457556000,-0.098000000000
28.980144468000,-0.098000000000
28.987831380000,-0.101000000000
28.995518292000,-0.103000000000
29.003205204000,-0.105000000000
29.010892116000,-0.108000000000
29.018579028000,-0.110000000000
29.026265940000,-0.113000000000
29.033952852000,-0.117000000000
29.041639764000,-0.132000000000
29.049326676000,-0.139000000000
29.057013588000,-0.137000000000
29.064700500000,-0.129000000000
29.072387412000,-0.125000000000
29.080074324000,-0.127000000000
29.087761236000,-0.115000000000
29.095448148000,-0.088000000000
29.103135060000,-0.081000000000
29.110821972000,-0.101000000000
29.118508884000,-0.108000000000
29.126195796000,-0.101000000000
29.133882708000,-0.098000000000
29.141569620000,-0.098000000000
29.149256532000,-0.096000000000
29.156943444000,-0.122000000000
29.164630356000,-0.189000000000
29.172317268000,-0.122000000000
29.180004180000,0.310000000000
29.187691092000,0.829000000000
29.195378004000,0.764000000000
29.203064916000,0.043000000000
29.210751828000,-0.478000000000
29.218438740000,-0.336000000000
29.226125652000,-0.153000000000
29.233812564000,-0.206000000000
29.241499476000,-0.156000000000
29.249186388000,-0.067000000000
29.256873300000,-0.088000000000
29.264560212000,-0.096000000000
29.272247124000,-0.057000000000
29.279934036000,-0.050000000000
29.287620948000,-0.052000000000
29.295307860000,-0.038000000000
29.302994772000,-0.031000000000
29.310681684000,-0.028000000000
29.318368596000,-0.021000000000
29.326055508000,-0.014000000000
29.333742420000,-0.012000000000
29.341429332000,-0.004000000000
29.349116244000,0.002000000000
29.356803156000,0.012000000000
