time,LSB
0.000000000000,-0.105000000000
0.007687121000,-0.142000000000
0.015374242000,-0.154000000000
0.023061363000,-0.144000000000
0.030748484000,-0.144000000000
0.038435605000,-0.142000000000
0.046122726000,-0.127000000000
0.053809847000,-0.127000000000
0.061496968000,-0.129000000000
0.069184089000,-0.117000000000
0.076871210000,-0.129000000000
0.084558331000,-0.169000000000
0.092245452000,-0.230000000000
0.099932573000,-0.264000000000
0.107619694000,0.019000000000
0.115306815000,0.781000000000
0.122993936000,1.592000000000
0.130681057000,1.815000000000
0.138368178000,0.940000000000
0.146055299000,-0.379000000000
0.153742420000,-0.619000000000
0.161429541000,-0.127000000000
0.169116662000,-0.110000000000
0.176803783000,-0.230000000000
0.184490904000,-0.120000000000
0.192178025000,-0.090000000000
0.199865146000,-0.129000000000
0.207552267000,-0.093000000000
0.215239388000,-0.056000000000
0.222926509000,-0.051000000000
0.230613630000,-0.024000000000
0.238300751000,0.000000000000
0.245987872000,0.024000000000
0.253674993000,0.058000000000
0.261362114000,0.090000000000
0.269049235000,0.112000000000
0.276736356000,0.149000000000
0.284423477000,0.188000000000
0.292110662000,0.215000000000
0.299797783000,0.252000000000
0.307484904000,0.279000000000
0.315172025000,0.276000000000
0.322859146000,0.276000000000
0.330546267000,0.276000000000
0.338233388000,0.254000000000
0.345920509000,0.222000000000
0.353607630000,0.195000000000
0.361294751000,0.156000000000
0.368981872000,0.093000000000
0.376668993000,0.019000000000
0.384356114000,-0.061000000000
0.392043235000,-0.144000000000
0.399730356000,-0.215000000000
0.407417477000,-0.262000000000
0.415104598000,-0.281000000000
0.422791719000,-0.286000000000
0.430478840000,-0.281000000000
0.438165961000,-0.271000000000
0.445853082000,-0.269000000000
0.453540203000,-0.254000000000
0.461227324000,-0.235000000000
0.468914445000,-0.230000000000
0.476601566000,-0.222000000000
0.484288687000,-0.213000000000
0.491975808000,-0.203000000000
0.499662929000,-0.195000000000
0.507350050000,-0.188000000000
0.515037171000,-0.181000000000
0.522724292000,-0.178000000000
0.530411413000,-0.178000000000
0.538098534000,-0.176000000000
0.545785655000,-0.173000000000
0.553472776000,-0.173000000000
0.561159897000,-0.176000000000
0.568847018000,-0.173000000000
0.576534139000,-0.171000000000
0.584221260000,-0.173000000000
0.591908381000,-0.173000000000
0.599595502000,-0.171000000000
0.607282623000,-0.173000000000
0.614969744000,-0.176000000000
0.622656865000,-0.161000000000
0.630343986000,-0.144000000000
0.638031107000,-0.134000000000
0.645718228000,-0.122000000000
0.653405349000,-0.107000000000
0.661092470000,-0.105000000000
0.668779591000,-0.122000000000
0.676466712000,-0.151000000000
0.684153833000,-0.164000000000
0.691840954000,-0.154000000000
0.699528075000,-0.144000000000
0.707215196000,-0.142000000000
0.714902317000,-0.137000000000
0.722589438000,-0.132000000000
0.730276559000,-0.129000000000
0.737963680000,-0.132000000000
0.745650801000,-0.154000000000
0.753337922000,-0.210000000000
0.761025043000,-0.276000000000
0.768712164000,-0.102000000000
0.776399285000,0.551000000000
0.784086406000,1.398000000000
0.791773527000,1.837000000000
0.799460648000,1.254000000000
0.807147769000,-0.120000000000
0.814834890000,-0.707000000000
0.822522011000,-0.247000000000
0.830209132000,-0.073000000000
0.837896253000,-0.240000000000
0.845583374000,-0.169000000000
0.853270563000,-0.093000000000
0.860958242000,-0.142000000000
0.868645921000,-0.127000000000
0.876333600000,-0.075000000000
0.884021279000,-0.073000000000
0.891708958000,-0.056000000000
0.899396637000,-0.022000000000
0.907084316000,-0.002000000000
0.914771995000,0.019000000000
0.922459674000,0.051000000000
0.930147353000,0.080000000000
0.937835032000,0.112000000000
0.945522711000,0.146000000000
0.953210390000,0.181000000000
0.960898069000,0.208000000000
0.968585748000,0.227000000000
0.976273427000,0.242000000000
0.983961106000,0.244000000000
0.991648785000,0.235000000000
0.999336464000,0.220000000000
1.007024143000,0.200000000000
1.014711822000,0.173000000000
1.022399501000,0.134000000000
1.030087180000,0.078000000000
1.037774859000,0.009000000000
1.045462538000,-0.063000000000
1.053150217000,-0.139000000000
1.060837896000,-0.205000000000
1.068525575000,-0.252000000000
1.076213254000,-0.274000000000
1.083900933000,-0.286000000000
1.091588612000,-0.286000000000
1.099276291000,-0.279000000000
1.106963970000,-0.269000000000
1.114651649000,-0.259000000000
1.122339328000,-0.247000000000
1.130027007000,-0.235000000000
1.137714686000,-0.222000000000
1.145402365000,-0.213000000000
1.153090044000,-0.203000000000
1.160777723000,-0.198000000000
1.168465402000,-0.193000000000
1.176153081000,-0.191000000000
1.183840760000,-0.191000000000
1.191528439000,-0.188000000000
1.199216118000,-0.186000000000
1.206903797000,-0.186000000000
1.214591476000,-0.183000000000
1.222279155000,-0.186000000000
1.229966834000,-0.186000000000
1.237654513000,-0.186000000000
1.245342192000,-0.183000000000
1.253029871000,-0.183000000000
1.260717550000,-0.183000000000
1.268405229000,-0.178000000000
1.276092908000,-0.176000000000
1.283780587000,-0.178000000000
1.291468266000,-0.181000000000
1.299155945000,-0.176000000000
1.306843624000,-0.161000000000
1.314531303000,-0.142000000000
1.322218982000,-0.124000000000
1.329906661000,-0.115000000000
1.337594340000,-0.110000000000
1.345282019000,-0.112000000000
1.352969698000,-0.134000000000
1.360657377000,-0.164000000000
1.368345056000,-0.166000000000
1.376032735000,-0.151000000000
1.383720414000,-0.151000000000
1.391408093000,-0.149000000000
1.399095772000,-0.142000000000
1.406783451000,-0.137000000000
1.414471152000,-0.137000000000
1.422157298000,-0.144000000000
1.429843444000,-0.176000000000
1.437529590000,-0.257000000000
1.445215736000,-0.284000000000
1.452901882000,0.051000000000
1.460588028000,0.845000000000
1.468274174000,1.685000000000
1.475960320000,1.925000000000
1.483646466000,0.965000000000
1.491332612000,-0.438000000000
1.499018758000,-0.639000000000
1.506704904000,-0.112000000000
1.514391050000,-0.127000000000
1.522077196000,-0.281000000000
1.529763342000,-0.169000000000
1.537449488000,-0.132000000000
1.545135634000,-0.176000000000
1.552821780000,-0.137000000000
1.560507926000,-0.095000000000
1.568194072000,-0.095000000000
1.575880218000,-0.073000000000
1.583566364000,-0.036000000000
1.591252510000,-0.017000000000
1.598938656000,0.004000000000
1.606624802000,0.039000000000
1.614310948000,0.071000000000
1.621997094000,0.102000000000
1.629683240000,0.137000000000
1.637369386000,0.169000000000
1.645055532000,0.198000000000
1.652741678000,0.222000000000
1.660427824000,0.235000000000
1.668113970000,0.235000000000
1.675800116000,0.227000000000
1.683486262000,0.213000000000
1.691172408000,0.195000000000
1.698858554000,0.169000000000
1.706544700000,0.129000000000
1.714230846000,0.068000000000
1.721916992000,-0.002000000000
1.729603138000,-0.078000000000
1.737289284000,-0.154000000000
1.744975430000,-0.218000000000
1.752661576000,-0.262000000000
1.760347722000,-0.284000000000
1.768033868000,-0.293000000000
1.775720014000,-0.291000000000
1.783406160000,-0.284000000000
1.791092306000,-0.274000000000
1.798778452000,-0.264000000000
1.806464598000,-0.252000000000
1.814150744000,-0.240000000000
1.821836890000,-0.227000000000
1.829523036000,-0.218000000000
1.837209182000,-0.210000000000
1.844895328000,-0.205000000000
1.852581474000,-0.203000000000
1.860267620000,-0.200000000000
1.867953766000,-0.198000000000
1.875639912000,-0.195000000000
1.883326058000,-0.195000000000
1.891012204000,-0.198000000000
1.898698350000,-0.195000000000
1.906384496000,-0.195000000000
1.914070642000,-0.195000000000
1.921756788000,-0.193000000000
1.929442934000,-0.191000000000
1.937129080000,-0.188000000000
1.944815226000,-0.186000000000
1.952501372000,-0.178000000000
1.960187518000,-0.178000000000
1.967873664000,-0.183000000000
1.975559839000,-0.183000000000
1.983247518000,-0.173000000000
1.990935197000,-0.151000000000
1.998622876000,-0.127000000000
2.006310555000,-0.115000000000
2.013998234000,-0.112000000000
2.021685913000,-0.110000000000
2.029373592000,-0.122000000000
2.037061271000,-0.156000000000
2.044748950000,-0.171000000000
2.052436629000,-0.159000000000
2.060124308000,-0.149000000000
2.067811987000,-0.151000000000
2.075499666000,-0.146000000000
2.083187345000,-0.142000000000
2.090875024000,-0.137000000000
2.098562703000,-0.134000000000
2.106250382000,-0.149000000000
2.113938061000,-0.191000000000
2.121625740000,-0.279000000000
2.129313419000,-0.257000000000
2.137001098000,0.188000000000
2.144688777000,1.050000000000
2.152376456000,1.844000000000
2.160064135000,1.864000000000
2.167751814000,0.654000000000
2.175439493000,-0.617000000000
2.183127172000,-0.529000000000
2.190814851000,-0.056000000000
2.198502530000,-0.183000000000
2.206190209000,-0.269000000000
2.213877888000,-0.137000000000
2.221565567000,-0.139000000000
2.229253246000,-0.173000000000
2.236940925000,-0.120000000000
2.244628604000,-0.090000000000
2.252316283000,-0.090000000000
2.260003962000,-0.058000000000
2.267691641000,-0.026000000000
2.275379320000,-0.007000000000
2.283066999000,0.019000000000
2.290754678000,0.053000000000
2.298442357000,0.083000000000
2.306130036000,0.117000000000
2.313817715000,0.154000000000
2.321505394000,0.188000000000
2.329193073000,0.215000000000
2.336880752000,0.240000000000
2.344568431000,0.247000000000
2.352256110000,0.244000000000
2.359943789000,0.237000000000
2.367631468000,0.222000000000
2.375319147000,0.200000000000
2.383006826000,0.169000000000
2.390694505000,0.124000000000
2.398382184000,0.068000000000
2.406069863000,-0.004000000000
2.413757542000,-0.088000000000
2.421445221000,-0.166000000000
2.429132900000,-0.225000000000
2.436820579000,-0.264000000000
2.444508258000,-0.286000000000
2.452195937000,-0.289000000000
2.459883616000,-0.284000000000
2.467571295000,-0.276000000000
2.475258974000,-0.269000000000
2.482946653000,-0.257000000000
2.490634332000,-0.247000000000
2.498322011000,-0.230000000000
2.506009690000,-0.220000000000
2.513697369000,-0.215000000000
2.521385048000,-0.208000000000
2.529072727000,-0.193000000000
2.536760428000,-0.188000000000
2.544446922000,-0.193000000000
2.552133416000,-0.193000000000
2.559819910000,-0.193000000000
2.567506404000,-0.195000000000
2.575192898000,-0.193000000000
2.582879392000,-0.188000000000
2.590565886000,-0.195000000000
2.598252380000,-0.195000000000
2.605938874000,-0.183000000000
2.613625368000,-0.173000000000
2.621311862000,-0.178000000000
2.628998356000,-0.176000000000
2.636684850000,-0.169000000000
2.644371344000,-0.176000000000
2.652057838000,-0.186000000000
2.659744332000,-0.178000000000
2.667430826000,-0.161000000000
2.675117320000,-0.137000000000
2.682803814000,-0.112000000000
2.690490308000,-0.100000000000
2.698176802000,-0.095000000000
2.705863296000,-0.102000000000
2.713549790000,-0.134000000000
2.721236284000,-0.164000000000
2.728922778000,-0.166000000000
2.736609272000,-0.156000000000
2.744295766000,-0.144000000000
2.751982260000,-0.142000000000
2.759668754000,-0.144000000000
2.767355248000,-0.132000000000
2.775041742000,-0.122000000000
2.782728236000,-0.134000000000
2.790414730000,-0.151000000000
2.798101224000,-0.200000000000
2.805787718000,-0.286000000000
2.813474212000,-0.154000000000
2.821160706000,0.477000000000
2.828847200000,1.364000000000
2.836533694000,1.913000000000
2.844220188000,1.455000000000
2.851906682000,0.041000000000
2.859593176000,-0.727000000000
2.867279670000,-0.293000000000
2.874966164000,-0.044000000000
2.882652658000,-0.232000000000
2.890339152000,-0.195000000000
2.898025646000,-0.097000000000
2.905712140000,-0.142000000000
2.913398634000,-0.137000000000
2.921085128000,-0.088000000000
2.928771622000,-0.080000000000
2.936458116000,-0.061000000000
2.944144610000,-0.026000000000
2.951831104000,-0.004000000000
2.959517598000,0.026000000000
2.967204092000,0.066000000000
2.974890586000,0.085000000000
2.982577080000,0.115000000000
2.990263574000,0.156000000000
2.997950068000,0.191000000000
3.005636562000,0.220000000000
3.013323056000,0.247000000000
3.021009550000,0.259000000000
3.028696044000,0.264000000000
3.036382538000,0.262000000000
3.044069032000,0.249000000000
3.051755526000,0.232000000000
3.059442020000,0.208000000000
3.067128514000,0.171000000000
3.074815008000,0.122000000000
3.082501502000,0.058000000000
3.090187996000,-0.022000000000
3.097874550000,-0.105000000000
3.105561323000,-0.178000000000
3.113248096000,-0.235000000000
3.120934869000,-0.271000000000
3.128621642000,-0.289000000000
3.136308415000,-0.281000000000
3.143995188000,-0.274000000000
3.151681961000,-0.274000000000
3.159368734000,-0.264000000000
3.167055507000,-0.249000000000
3.174742280000,-0.244000000000
3.182429053000,-0.237000000000
3.190115826000,-0.218000000000
3.197802599000,-0.203000000000
3.205489372000,-0.198000000000
3.213176145000,-0.193000000000
3.220862918000,-0.193000000000
3.228549691000,-0.191000000000
3.236236464000,-0.186000000000
3.243923237000,-0.188000000000
3.251610010000,-0.195000000000
3.259296783000,-0.191000000000
3.266983556000,-0.183000000000
3.274670329000,-0.181000000000
3.282357102000,-0.183000000000
3.290043875000,-0.186000000000
3.297730648000,-0.176000000000
3.305417421000,-0.176000000000
3.313104194000,-0.191000000000
3.320790967000,-0.191000000000
3.328477740000,-0.176000000000
3.336164513000,-0.164000000000
3.343851286000,-0.144000000000
3.351538059000,-0.124000000000
3.359224832000,-0.117000000000
3.366911605000,-0.112000000000
3.374598378000,-0.120000000000
3.382285151000,-0.149000000000
3.389971924000,-0.171000000000
3.397658697000,-0.161000000000
3.405345470000,-0.149000000000
3.413032243000,-0.149000000000
3.420719016000,-0.149000000000
3.428405789000,-0.146000000000
3.436092562000,-0.144000000000
3.443779335000,-0.137000000000
3.451466108000,-0.146000000000
3.459152881000,-0.183000000000
3.466839654000,-0.259000000000
3.474526427000,-0.240000000000
3.482213200000,0.208000000000
3.489899973000,1.036000000000
3.497586746000,1.702000000000
3.505273519000,1.592000000000
3.512960292000,0.440000000000
3.520647065000,-0.631000000000
3.528333838000,-0.470000000000
3.536020611000,-0.061000000000
3.543707384000,-0.186000000000
3.551394157000,-0.222000000000
3.559080930000,-0.097000000000
3.566767703000,-0.120000000000
3.574454476000,-0.142000000000
3.582141249000,-0.080000000000
3.589828022000,-0.058000000000
3.597514795000,-0.061000000000
3.605201568000,-0.026000000000
3.612888341000,0.000000000000
3.620575114000,0.017000000000
3.628261887000,0.046000000000
3.635948660000,0.080000000000
3.643635433000,0.110000000000
3.651322206000,0.144000000000
3.659009012000,0.178000000000
3.666696133000,0.208000000000
3.674383254000,0.232000000000
3.682070375000,0.247000000000
3.689757496000,0.249000000000
3.697444617000,0.247000000000
3.705131738000,0.235000000000
3.712818859000,0.215000000000
3.720505980000,0.193000000000
3.728193101000,0.161000000000
3.735880222000,0.115000000000
3.743567343000,0.051000000000
3.751254464000,-0.022000000000
3.758941585000,-0.100000000000
3.766628706000,-0.173000000000
3.774315827000,-0.230000000000
3.782002948000,-0.267000000000
3.789690069000,-0.286000000000
3.797377190000,-0.291000000000
3.805064311000,-0.286000000000
3.812751432000,-0.276000000000
3.820438553000,-0.264000000000
3.828125674000,-0.254000000000
3.835812795000,-0.240000000000
3.843499916000,-0.227000000000
3.851187037000,-0.218000000000
3.858874158000,-0.210000000000
3.866561279000,-0.200000000000
3.874248400000,-0.195000000000
3.881935521000,-0.195000000000
3.889622642000,-0.191000000000
3.897309763000,-0.186000000000
3.904996884000,-0.186000000000
3.912684005000,-0.188000000000
3.920371126000,-0.188000000000
3.928058247000,-0.188000000000
3.935745368000,-0.191000000000
3.943432489000,-0.188000000000
3.951119610000,-0.183000000000
3.958806731000,-0.183000000000
3.966493852000,-0.183000000000
3.974180973000,-0.181000000000
3.981868094000,-0.186000000000
3.989555215000,-0.191000000000
3.997242336000,-0.186000000000
4.004929457000,-0.169000000000
4.012616578000,-0.156000000000
4.020303699000,-0.146000000000
4.027990820000,-0.134000000000
4.035677941000,-0.120000000000
4.043365062000,-0.117000000000
4.051052183000,-0.142000000000
4.058739304000,-0.171000000000
4.066426425000,-0.173000000000
4.074113546000,-0.159000000000
4.081800667000,-0.154000000000
4.089487788000,-0.151000000000
4.097174909000,-0.146000000000
4.104862030000,-0.142000000000
4.112549151000,-0.139000000000
4.120236272000,-0.149000000000
4.127923393000,-0.181000000000
4.135610514000,-0.259000000000
4.143297635000,-0.271000000000
4.150984756000,0.093000000000
4.158671877000,0.886000000000
4.166358998000,1.675000000000
4.174046119000,1.817000000000
4.181733240000,0.776000000000
4.189420361000,-0.536000000000
4.197107482000,-0.590000000000
4.204794603000,-0.085000000000
4.212481724000,-0.151000000000
4.220168913000,-0.271000000000
4.227856034000,-0.149000000000
4.235543155000,-0.134000000000
4.243230276000,-0.173000000000
4.250917397000,-0.127000000000
4.258604518000,-0.093000000000
4.266291639000,-0.093000000000
4.273978760000,-0.066000000000
4.281665881000,-0.034000000000
4.289353002000,-0.017000000000
4.297040123000,0.007000000000
4.304727244000,0.039000000000
4.312414365000,0.068000000000
4.320101486000,0.100000000000
4.327788607000,0.134000000000
4.335475728000,0.166000000000
4.343162849000,0.193000000000
4.350849970000,0.213000000000
4.358537091000,0.222000000000
4.366224212000,0.222000000000
4.373911333000,0.215000000000
4.381598454000,0.200000000000
4.389285575000,0.183000000000
4.396972696000,0.156000000000
4.404659817000,0.120000000000
4.412346938000,0.061000000000
4.420034059000,-0.007000000000
4.427721180000,-0.080000000000
4.435408301000,-0.151000000000
4.443095422000,-0.213000000000
4.450782543000,-0.254000000000
4.458469664000,-0.274000000000
4.466156785000,-0.281000000000
4.473843906000,-0.279000000000
4.481531027000,-0.271000000000
4.489218148000,-0.259000000000
4.496905269000,-0.247000000000
4.504592390000,-0.235000000000
4.512279511000,-0.225000000000
4.519966632000,-0.213000000000
4.527653753000,-0.203000000000
4.535340874000,-0.198000000000
4.543027995000,-0.195000000000
4.550715116000,-0.193000000000
4.558402237000,-0.188000000000
4.566089358000,-0.188000000000
4.573776479000,-0.188000000000
4.581463600000,-0.188000000000
4.589150721000,-0.188000000000
4.596837842000,-0.188000000000
4.604524963000,-0.186000000000
4.612212084000,-0.186000000000
4.619899205000,-0.186000000000
4.627586326000,-0.183000000000
4.635273447000,-0.178000000000
4.642960568000,-0.176000000000
4.650647689000,-0.176000000000
4.658334810000,-0.181000000000
4.666021931000,-0.181000000000
4.673709052000,-0.169000000000
4.681396173000,-0.151000000000
4.689083294000,-0.139000000000
4.696770415000,-0.132000000000
4.704457536000,-0.117000000000
4.712144657000,-0.105000000000
4.719831778000,-0.120000000000
4.727518899000,-0.154000000000
4.735206020000,-0.164000000000
4.742893141000,-0.151000000000
4.750580262000,-0.146000000000
4.758267383000,-0.146000000000
4.765954504000,-0.139000000000
4.773641625000,-0.134000000000
4.781328810000,-0.132000000000
4.789015722000,-0.134000000000
4.796702634000,-0.151000000000
4.804389546000,-0.213000000000
4.812076458000,-0.291000000000
4.819763370000,-0.142000000000
4.827450282000,0.504000000000
4.835137194000,1.401000000000
4.842824106000,1.952000000000
4.850511018000,1.455000000000
4.858197930000,0.012000000000
4.865884842000,-0.729000000000
4.873571754000,-0.281000000000
4.881258666000,-0.053000000000
4.888945578000,-0.252000000000
4.896632490000,-0.215000000000
4.904319402000,-0.117000000000
4.912006314000,-0.161000000000
4.919693226000,-0.154000000000
4.927380138000,-0.097000000000
4.935067050000,-0.090000000000
4.942753962000,-0.078000000000
4.950440874000,-0.044000000000
4.958127786000,-0.019000000000
4.965814698000,0.002000000000
4.973501610000,0.031000000000
4.981188522000,0.061000000000
4.988875434000,0.090000000000
4.996562346000,0.124000000000
5.004249258000,0.159000000000
5.011936170000,0.188000000000
5.019623082000,0.213000000000
5.027309994000,0.230000000000
5.034996906000,0.232000000000
5.042683818000,0.227000000000
5.050370730000,0.215000000000
5.058057642000,0.200000000000
5.065744554000,0.178000000000
5.073431466000,0.146000000000
5.081118378000,0.100000000000
5.088805290000,0.036000000000
5.096492202000,-0.034000000000
5.104179114000,-0.107000000000
5.111866026000,-0.176000000000
5.119552938000,-0.230000000000
5.127239850000,-0.262000000000
5.134926762000,-0.276000000000
5.142613674000,-0.276000000000
5.150300586000,-0.271000000000
5.157987498000,-0.262000000000
5.165674410000,-0.249000000000
5.173361322000,-0.237000000000
5.181048234000,-0.227000000000
5.188735146000,-0.215000000000
5.196422058000,-0.205000000000
5.204108970000,-0.198000000000
5.211795882000,-0.193000000000
5.219482794000,-0.188000000000
5.227169706000,-0.188000000000
5.234856618000,-0.188000000000
5.242543530000,-0.186000000000
5.250230442000,-0.186000000000
5.257917354000,-0.186000000000
5.265604266000,-0.183000000000
5.273291178000,-0.183000000000
5.280978090000,-0.183000000000
5.288665002000,-0.183000000000
5.296351914000,-0.181000000000
5.304038826000,-0.178000000000
5.311725738000,-0.173000000000
5.319412650000,-0.178000000000
5.327099562000,-0.183000000000
5.334786474000,-0.181000000000
5.342473450000,-0.166000000000
5.350160641000,-0.146000000000
5.357847832000,-0.134000000000
5.365535023000,-0.127000000000
5.373222214000,-0.115000000000
5.380909405000,-0.105000000000
5.388596596000,-0.122000000000
5.396283787000,-0.154000000000
5.403970978000,-0.164000000000
5.411658169000,-0.154000000000
5.419345360000,-0.146000000000
5.427032551000,-0.142000000000
5.434719742000,-0.137000000000
5.442406933000,-0.134000000000
5.450094124000,-0.132000000000
5.457781315000,-0.137000000000
5.465468506000,-0.156000000000
5.473155697000,-0.218000000000
5.480842888000,-0.274000000000
5.488530079000,-0.048000000000
5.496217270000,0.661000000000
5.503904461000,1.535000000000
5.511591652000,1.952000000000
5.519278843000,1.224000000000
5.526966034000,-0.235000000000
5.534653225000,-0.698000000000
5.542340416000,-0.176000000000
5.550027607000,-0.075000000000
5.557714798000,-0.259000000000
5.565401989000,-0.176000000000
5.573089180000,-0.110000000000
5.580776371000,-0.156000000000
5.588463562000,-0.127000000000
5.596150753000,-0.075000000000
5.603837944000,-0.075000000000
5.611525135000,-0.063000000000
5.619212326000,-0.024000000000
5.626899517000,0.000000000000
5.634586708000,0.019000000000
5.642273899000,0.051000000000
5.649961090000,0.088000000000
5.657648281000,0.115000000000
5.665335472000,0.139000000000
5.673022663000,0.173000000000
5.680709854000,0.215000000000
5.688397045000,0.240000000000
5.696084236000,0.244000000000
5.703771427000,0.242000000000
5.711458618000,0.235000000000
5.719145809000,0.227000000000
5.726833000000,0.210000000000
5.734520191000,0.186000000000
5.742207382000,0.149000000000
5.749894573000,0.095000000000
5.757581764000,0.031000000000
5.765268955000,-0.039000000000
5.772956146000,-0.112000000000
5.780643337000,-0.183000000000
5.788330528000,-0.232000000000
5.796017719000,-0.254000000000
5.803704910000,-0.267000000000
5.811392101000,-0.276000000000
5.819079292000,-0.269000000000
5.826766483000,-0.247000000000
5.834453674000,-0.235000000000
5.842140865000,-0.235000000000
5.849828056000,-0.225000000000
5.857515247000,-0.205000000000
5.865202438000,-0.198000000000
5.872889629000,-0.195000000000
5.880576820000,-0.188000000000
5.888264011000,-0.183000000000
5.895951202000,-0.181000000000
5.903638434000,-0.181000000000
5.911325277000,-0.183000000000
5.919012120000,-0.178000000000
5.926698963000,-0.176000000000
5.934385806000,-0.181000000000
5.942072649000,-0.186000000000
5.949759492000,-0.186000000000
5.957446335000,-0.178000000000
5.965133178000,-0.176000000000
5.972820021000,-0.171000000000
5.980506864000,-0.169000000000
5.988193707000,-0.176000000000
5.995880550000,-0.178000000000
6.003567393000,-0.169000000000
6.011254236000,-0.154000000000
6.018941079000,-0.137000000000
6.026627922000,-0.129000000000
6.034314765000,-0.120000000000
6.042001608000,-0.102000000000
6.049688451000,-0.097000000000
6.057375294000,-0.127000000000
6.065062137000,-0.159000000000
6.072748980000,-0.154000000000
6.080435823000,-0.134000000000
6.088122666000,-0.129000000000
6.095809509000,-0.137000000000
6.103496352000,-0.137000000000
6.111183195000,-0.129000000000
6.118870038000,-0.127000000000
6.126556881000,-0.132000000000
6.134243724000,-0.154000000000
6.141930567000,-0.232000000000
6.149617410000,-0.244000000000
6.157304253000,0.134000000000
6.164991096000,0.925000000000
6.172677939000,1.650000000000
6.180364782000,1.702000000000
6.188051625000,0.651000000000
6.195738468000,-0.556000000000
6.203425311000,-0.531000000000
6.211112154000,-0.058000000000
6.218798997000,-0.139000000000
6.226485840000,-0.220000000000
6.234172683000,-0.102000000000
6.241859526000,-0.105000000000
6.249546369000,-0.134000000000
6.257233212000,-0.085000000000
6.264920055000,-0.051000000000
6.272606898000,-0.039000000000
6.280293741000,-0.019000000000
6.287980584000,0.000000000000
6.295667427000,0.024000000000
6.303354270000,0.053000000000
6.311041113000,0.080000000000
6.318727956000,0.112000000000
6.326414799000,0.144000000000
6.334101642000,0.173000000000
6.341788485000,0.198000000000
6.349475328000,0.222000000000
6.357162171000,0.252000000000
6.364849014000,0.257000000000
6.372535857000,0.242000000000
6.380222700000,0.230000000000
6.387909543000,0.218000000000
6.395596386000,0.198000000000
6.403283229000,0.171000000000
6.410970072000,0.127000000000
6.418656915000,0.071000000000
6.426343758000,0.012000000000
6.434030601000,-0.061000000000
6.441717444000,-0.146000000000
6.449404287000,-0.208000000000
6.457091130000,-0.237000000000
6.464777983000,-0.262000000000
6.472465104000,-0.274000000000
6.480152225000,-0.267000000000
6.487839346000,-0.262000000000
6.495526467000,-0.254000000000
6.503213588000,-0.240000000000
6.510900709000,-0.227000000000
6.518587830000,-0.222000000000
6.526274951000,-0.208000000000
6.533962072000,-0.198000000000
6.541649193000,-0.198000000000
6.549336314000,-0.193000000000
6.557023435000,-0.186000000000
6.564710556000,-0.186000000000
6.572397677000,-0.181000000000
6.580084798000,-0.178000000000
6.587771919000,-0.181000000000
6.595459040000,-0.186000000000
6.603146161000,-0.183000000000
6.610833282000,-0.176000000000
6.618520403000,-0.173000000000
6.626207524000,-0.183000000000
6.633894645000,-0.183000000000
6.641581766000,-0.181000000000
6.649268887000,-0.186000000000
6.656956008000,-0.183000000000
6.664643129000,-0.173000000000
6.672330250000,-0.159000000000
6.680017371000,-0.144000000000
6.687704492000,-0.134000000000
6.695391613000,-0.127000000000
6.703078734000,-0.117000000000
6.710765855000,-0.122000000000
6.718452976000,-0.154000000000
6.726140097000,-0.173000000000
6.733827218000,-0.164000000000
6.741514339000,-0.156000000000
6.749201460000,-0.151000000000
6.756888581000,-0.144000000000
6.764575702000,-0.139000000000
6.772262823000,-0.139000000000
6.779949944000,-0.144000000000
6.787637065000,-0.154000000000
6.795324186000,-0.191000000000
6.803011307000,-0.264000000000
6.810698428000,-0.203000000000
6.818385549000,0.301000000000
6.826072670000,1.136000000000
6.833759791000,1.746000000000
6.841446912000,1.491000000000
6.849134033000,0.230000000000
6.856821154000,-0.707000000000
6.864508275000,-0.409000000000
6.872195396000,-0.061000000000
6.879882517000,-0.218000000000
6.887569638000,-0.215000000000
6.895256759000,-0.102000000000
6.902943880000,-0.137000000000
6.910631001000,-0.146000000000
6.918318122000,-0.088000000000
6.926005243000,-0.075000000000
6.933692364000,-0.073000000000
6.941379485000,-0.039000000000
6.949066606000,-0.014000000000
6.956753727000,0.002000000000
6.964440848000,0.029000000000
6.972127969000,0.058000000000
6.979815090000,0.085000000000
6.987502211000,0.112000000000
6.995189332000,0.144000000000
7.002876453000,0.173000000000
7.010563574000,0.193000000000
7.018250695000,0.203000000000
7.025937880000,0.205000000000
7.033625001000,0.200000000000
7.041312122000,0.186000000000
7.048999243000,0.169000000000
7.056686364000,0.149000000000
7.064373485000,0.120000000000
7.072060606000,0.075000000000
7.079747727000,0.022000000000
7.087434848000,-0.041000000000
7.095121969000,-0.110000000000
7.102809090000,-0.176000000000
7.110496211000,-0.227000000000
7.118183332000,-0.259000000000
7.125870453000,-0.271000000000
7.133557574000,-0.276000000000
7.141244695000,-0.276000000000
7.148931816000,-0.269000000000
7.156618937000,-0.254000000000
7.164306058000,-0.242000000000
7.171993179000,-0.232000000000
7.179680300000,-0.220000000000
7.187367421000,-0.210000000000
7.195054542000,-0.203000000000
7.202741663000,-0.198000000000
7.210428784000,-0.195000000000
7.218115905000,-0.193000000000
7.225803026000,-0.191000000000
7.233490147000,-0.191000000000
7.241177268000,-0.188000000000
7.248864389000,-0.188000000000
7.256551510000,-0.191000000000
7.264238631000,-0.191000000000
7.271925752000,-0.188000000000
7.279612873000,-0.188000000000
7.287299994000,-0.188000000000
7.294987115000,-0.186000000000
7.302674236000,-0.183000000000
7.310361357000,-0.183000000000
7.318048478000,-0.186000000000
7.325735599000,-0.188000000000
7.333422720000,-0.183000000000
7.341109841000,-0.166000000000
7.348796962000,-0.149000000000
7.356484083000,-0.139000000000
7.364171204000,-0.129000000000
7.371858325000,-0.117000000000
7.379545446000,-0.115000000000
7.387232567000,-0.142000000000
7.394919688000,-0.169000000000
7.402606809000,-0.164000000000
7.410293930000,-0.149000000000
7.417981051000,-0.149000000000
7.425668172000,-0.146000000000
7.433355293000,-0.139000000000
7.441042414000,-0.137000000000
7.448729535000,-0.134000000000
7.456416656000,-0.144000000000
7.464103777000,-0.183000000000
7.471790898000,-0.267000000000
7.479478019000,-0.252000000000
7.487165140000,0.166000000000
7.494852261000,0.996000000000
7.502539382000,1.758000000000
7.510226503000,1.768000000000
7.517913624000,0.595000000000
7.525600745000,-0.619000000000
7.533287866000,-0.516000000000
7.540974987000,-0.051000000000
7.548662108000,-0.173000000000
7.556349229000,-0.262000000000
7.564036350000,-0.134000000000
7.571723471000,-0.134000000000
7.579410592000,-0.169000000000
7.587097781000,-0.112000000000
7.594784902000,-0.083000000000
7.602472023000,-0.083000000000
7.610159144000,-0.056000000000
7.617846265000,-0.026000000000
7.625533386000,-0.007000000000
7.633220507000,0.019000000000
7.640907628000,0.048000000000
7.648594749000,0.075000000000
7.656281870000,0.105000000000
7.663968991000,0.137000000000
7.671656112000,0.164000000000
7.679343233000,0.186000000000
7.687030354000,0.203000000000
7.694717475000,0.213000000000
7.702404596000,0.208000000000
7.710091717000,0.195000000000
7.717778838000,0.181000000000
7.725465959000,0.161000000000
7.733153080000,0.139000000000
7.740840201000,0.102000000000
7.748527322000,0.048000000000
7.756214443000,-0.014000000000
7.763901564000,-0.083000000000
7.771588685000,-0.151000000000
7.779275806000,-0.210000000000
7.786962927000,-0.247000000000
7.794650048000,-0.267000000000
7.802337169000,-0.276000000000
7.810024290000,-0.274000000000
7.817711411000,-0.267000000000
7.825398532000,-0.254000000000
7.833085653000,-0.242000000000
7.840772774000,-0.230000000000
7.848459895000,-0.218000000000
7.856147016000,-0.208000000000
7.863834137000,-0.200000000000
7.871521258000,-0.195000000000
7.879208379000,-0.193000000000
7.886895500000,-0.191000000000
7.894582621000,-0.191000000000
7.902269742000,-0.188000000000
7.909956863000,-0.188000000000
7.917643984000,-0.191000000000
7.925331105000,-0.191000000000
7.933018226000,-0.188000000000
7.940705347000,-0.188000000000
7.948392468000,-0.188000000000
7.956079589000,-0.186000000000
7.963766710000,-0.183000000000
7.971453831000,-0.181000000000
7.979140952000,-0.178000000000
7.986828073000,-0.181000000000
7.994515194000,-0.186000000000
8.002202315000,-0.183000000000
8.009889436000,-0.166000000000
8.017576557000,-0.149000000000
8.025263678000,-0.139000000000
8.032950799000,-0.132000000000
8.040637920000,-0.117000000000
8.048325041000,-0.107000000000
8.056012162000,-0.129000000000
8.063699283000,-0.161000000000
8.071386404000,-0.166000000000
8.079073525000,-0.151000000000
8.086760646000,-0.149000000000
8.094447767000,-0.146000000000
8.102134888000,-0.139000000000
8.109822009000,-0.137000000000
8.117509130000,-0.134000000000
8.125196251000,-0.139000000000
8.132883372000,-0.161000000000
8.140570493000,-0.227000000000
8.148257678000,-0.289000000000
8.155944590000,-0.063000000000
8.163631502000,0.649000000000
8.171318414000,1.528000000000
8.179005326000,1.940000000000
8.186692238000,1.214000000000
8.194379150000,-0.237000000000
8.202066062000,-0.707000000000
8.209752974000,-0.188000000000
8.217439886000,-0.085000000000
8.225126798000,-0.271000000000
8.232813710000,-0.188000000000
8.240500622000,-0.120000000000
8.248187534000,-0.171000000000
8.255874446000,-0.144000000000
8.263561358000,-0.093000000000
8.271248270000,-0.090000000000
8.278935182000,-0.075000000000
8.286622094000,-0.039000000000
8.294309006000,-0.019000000000
8.301995918000,0.002000000000
8.309682830000,0.034000000000
8.317369742000,0.063000000000
8.325056654000,0.093000000000
8.332743566000,0.122000000000
8.340430478000,0.154000000000
8.348117390000,0.181000000000
8.355804302000,0.203000000000
8.363491214000,0.215000000000
8.371178126000,0.215000000000
8.378865038000,0.208000000000
8.386551950000,0.193000000000
8.394238862000,0.176000000000
8.401925774000,0.154000000000
8.409612686000,0.122000000000
8.417299598000,0.075000000000
8.424986510000,0.012000000000
8.432673422000,-0.053000000000
8.440360334000,-0.122000000000
8.448047246000,-0.186000000000
8.455734158000,-0.235000000000
8.463421070000,-0.262000000000
8.471107982000,-0.274000000000
8.478794894000,-0.274000000000
8.486481806000,-0.267000000000
8.494168718000,-0.257000000000
8.501855630000,-0.244000000000
8.509542542000,-0.232000000000
8.517229454000,-0.220000000000
8.524916366000,-0.210000000000
8.532603278000,-0.203000000000
8.540290190000,-0.198000000000
8.547977102000,-0.193000000000
8.555664014000,-0.191000000000
8.563350926000,-0.188000000000
8.571037838000,-0.188000000000
8.578724750000,-0.188000000000
8.586411662000,-0.188000000000
8.594098574000,-0.186000000000
8.601785486000,-0.186000000000
8.609472398000,-0.186000000000
8.617159310000,-0.186000000000
8.624846222000,-0.183000000000
8.632533134000,-0.181000000000
8.640220046000,-0.183000000000
8.647906958000,-0.178000000000
8.655593870000,-0.176000000000
8.663280782000,-0.178000000000
8.670967694000,-0.181000000000
8.678654606000,-0.176000000000
8.686341518000,-0.161000000000
8.694028430000,-0.142000000000
8.701715342000,-0.124000000000
8.709402318000,-0.117000000000
8.717089509000,-0.112000000000
8.724776700000,-0.112000000000
8.732463891000,-0.132000000000
8.740151082000,-0.161000000000
8.747838273000,-0.164000000000
8.755525464000,-0.146000000000
8.763212655000,-0.144000000000
8.770899846000,-0.146000000000
8.778587037000,-0.137000000000
8.786274228000,-0.134000000000
8.793961419000,-0.134000000000
8.801648610000,-0.139000000000
8.809335801000,-0.166000000000
8.817022992000,-0.240000000000
8.824710183000,-0.274000000000
8.832397374000,0.034000000000
8.840084565000,0.808000000000
8.847771756000,1.650000000000
8.855458947000,1.891000000000
8.863146138000,0.933000000000
8.870833329000,-0.455000000000
8.878520520000,-0.629000000000
8.886207711000,-0.097000000000
8.893894902000,-0.120000000000
8.901582093000,-0.267000000000
8.909269284000,-0.146000000000
8.916956475000,-0.115000000000
8.924643666000,-0.164000000000
8.932330857000,-0.120000000000
8.940018048000,-0.078000000000
8.947705239000,-0.080000000000
8.955392430000,-0.058000000000
8.963079621000,-0.024000000000
8.970766812000,-0.002000000000
8.978454003000,0.022000000000
8.986141194000,0.053000000000
8.993828385000,0.088000000000
9.001515576000,0.117000000000
9.009202767000,0.144000000000
9.016889958000,0.171000000000
9.024577149000,0.198000000000
9.032264340000,0.218000000000
9.039951531000,0.227000000000
9.047638722000,0.227000000000
9.055325913000,0.215000000000
9.063013104000,0.195000000000
9.070700295000,0.178000000000
9.078387486000,0.161000000000
9.086074677000,0.129000000000
9.093761868000,0.078000000000
9.101449059000,0.009000000000
9.109136250000,-0.061000000000
9.116823441000,-0.129000000000
9.124510632000,-0.186000000000
9.132197823000,-0.230000000000
9.139885014000,-0.264000000000
9.147572205000,-0.279000000000
9.155259396000,-0.274000000000
9.162946587000,-0.262000000000
9.170633778000,-0.252000000000
9.178320969000,-0.242000000000
9.186008160000,-0.230000000000
9.193695351000,-0.218000000000
9.201382542000,-0.210000000000
9.209069733000,-0.203000000000
9.216756924000,-0.195000000000
9.224444115000,-0.193000000000
9.232131306000,-0.188000000000
9.239818497000,-0.186000000000
9.247505688000,-0.186000000000
9.255192879000,-0.186000000000
9.262880070000,-0.183000000000
9.270567302000,-0.178000000000
9.278254145000,-0.181000000000
9.285940988000,-0.183000000000
9.293627831000,-0.178000000000
9.301314674000,-0.178000000000
9.309001517000,-0.181000000000
9.316688360000,-0.173000000000
9.324375203000,-0.173000000000
9.332062046000,-0.176000000000
9.339748889000,-0.176000000000
9.347435732000,-0.166000000000
9.355122575000,-0.151000000000
9.362809418000,-0.137000000000
9.370496261000,-0.129000000000
9.378183104000,-0.122000000000
9.385869947000,-0.110000000000
9.393556790000,-0.107000000000
9.401243633000,-0.134000000000
9.408930476000,-0.159000000000
9.416617319000,-0.154000000000
9.424304162000,-0.139000000000
9.431991005000,-0.132000000000
9.439677848000,-0.129000000000
9.447364691000,-0.132000000000
9.455051534000,-0.134000000000
9.462738377000,-0.132000000000
9.470425220000,-0.137000000000
9.478112063000,-0.169000000000
9.485798906000,-0.247000000000
9.493485749000,-0.247000000000
9.501172592000,0.137000000000
9.508859435000,0.935000000000
9.516546278000,1.673000000000
9.524233121000,1.707000000000
9.531919964000,0.631000000000
9.539606807000,-0.568000000000
9.547293650000,-0.534000000000
9.554980493000,-0.073000000000
9.562667336000,-0.161000000000
9.570354179000,-0.235000000000
9.578041022000,-0.107000000000
9.585727865000,-0.112000000000
9.593414708000,-0.142000000000
9.601101551000,-0.083000000000
9.608788394000,-0.058000000000
9.616475237000,-0.063000000000
9.624162080000,-0.029000000000
9.631848923000,-0.002000000000
9.639535766000,0.004000000000
9.647222609000,0.034000000000
9.654909452000,0.075000000000
9.662596295000,0.100000000000
9.670283138000,0.122000000000
9.677969981000,0.154000000000
9.685656824000,0.188000000000
9.693343667000,0.213000000000
9.701030510000,0.225000000000
9.708717353000,0.230000000000
9.716404196000,0.225000000000
9.724091039000,0.213000000000
9.731777882000,0.193000000000
9.739464725000,0.171000000000
9.747151568000,0.146000000000
9.754838411000,0.110000000000
9.762525254000,0.056000000000
9.770212097000,-0.007000000000
9.777898940000,-0.075000000000
9.785585783000,-0.144000000000
9.793272626000,-0.205000000000
9.800959469000,-0.244000000000
9.808646312000,-0.267000000000
9.816333155000,-0.276000000000
9.824019998000,-0.276000000000
9.831706851000,-0.264000000000
9.839393972000,-0.254000000000
9.847081093000,-0.244000000000
9.854768214000,-0.232000000000
9.862455335000,-0.220000000000
9.870142456000,-0.213000000000
9.877829577000,-0.205000000000
9.885516698000,-0.198000000000
9.893203819000,-0.195000000000
9.900890940000,-0.191000000000
9.908578061000,-0.188000000000
9.916265182000,-0.188000000000
9.923952303000,-0.188000000000
9.931639424000,-0.186000000000
9.939326545000,-0.186000000000
9.947013666000,-0.186000000000
9.954700787000,-0.186000000000
9.962387908000,-0.186000000000
9.970075029000,-0.186000000000
9.977762150000,-0.183000000000
9.985449271000,-0.181000000000
9.993136392000,-0.183000000000
10.000823513000,-0.188000000000
10.008510634000,-0.186000000000
10.016197755000,-0.171000000000
10.023884876000,-0.156000000000
10.031571997000,-0.144000000000
10.039259118000,-0.134000000000
10.046946239000,-0.122000000000
10.054633360000,-0.115000000000
10.062320481000,-0.129000000000
10.070007602000,-0.161000000000
10.077694723000,-0.169000000000
10.085381844000,-0.154000000000
10.093068965000,-0.149000000000
10.100756086000,-0.149000000000
10.108443207000,-0.142000000000
10.116130328000,-0.137000000000
10.123817449000,-0.134000000000
10.131504570000,-0.139000000000
10.139191691000,-0.164000000000
10.146878812000,-0.227000000000
10.154565933000,-0.274000000000
10.162253054000,-0.007000000000
10.169940175000,0.739000000000
10.177627296000,1.575000000000
10.185314417000,1.846000000000
10.193001538000,0.982000000000
10.200688659000,-0.387000000000
10.208375780000,-0.658000000000
10.216062901000,-0.146000000000
10.223750022000,-0.117000000000
10.231437143000,-0.264000000000
10.239124264000,-0.159000000000
10.246811385000,-0.117000000000
10.254498506000,-0.164000000000
10.262185627000,-0.129000000000
10.269872748000,-0.088000000000
10.277559869000,-0.085000000000
10.285246990000,-0.063000000000
10.292934111000,-0.031000000000
10.300621232000,-0.012000000000
10.308308353000,0.009000000000
10.315995474000,0.041000000000
10.323682595000,0.066000000000
10.331369716000,0.095000000000
10.339056837000,0.124000000000
10.346743958000,0.151000000000
10.354431079000,0.176000000000
10.362118200000,0.193000000000
10.369805321000,0.203000000000
10.377492442000,0.200000000000
10.385179563000,0.191000000000
10.392866748000,0.173000000000
10.400553869000,0.156000000000
10.408240990000,0.134000000000
10.415928111000,0.102000000000
10.423615232000,0.053000000000
10.431302353000,-0.007000000000
10.438989474000,-0.071000000000
10.446676595000,-0.139000000000
10.454363716000,-0.198000000000
10.462050837000,-0.240000000000
10.469737958000,-0.262000000000
10.477425079000,-0.274000000000
10.485112200000,-0.274000000000
10.492799321000,-0.267000000000
10.500486442000,-0.254000000000
10.508173563000,-0.242000000000
10.515860684000,-0.230000000000
10.523547805000,-0.220000000000
10.531234926000,-0.210000000000
10.538922047000,-0.203000000000
10.546609168000,-0.195000000000
10.554296289000,-0.193000000000
10.561983410000,-0.191000000000
10.569670531000,-0.188000000000
10.577357652000,-0.186000000000
10.585044773000,-0.186000000000
10.592731894000,-0.186000000000
10.600419015000,-0.186000000000
10.608106136000,-0.186000000000
10.615793257000,-0.186000000000
10.623480378000,-0.183000000000
10.631167499000,-0.183000000000
10.638854620000,-0.183000000000
10.646541741000,-0.181000000000
10.654228862000,-0.176000000000
10.661915983000,-0.181000000000
10.669603104000,-0.186000000000
10.677290225000,-0.183000000000
10.684977346000,-0.169000000000
10.692664467000,-0.151000000000
10.700351588000,-0.142000000000
10.708038709000,-0.134000000000
10.715725830000,-0.120000000000
10.723412951000,-0.110000000000
10.731100072000,-0.129000000000
10.738787193000,-0.159000000000
10.746474314000,-0.164000000000
10.754161435000,-0.151000000000
10.761848556000,-0.146000000000
10.769535677000,-0.144000000000
10.777222798000,-0.139000000000
10.784909919000,-0.134000000000
10.792597040000,-0.132000000000
10.800284161000,-0.137000000000
10.807971282000,-0.164000000000
10.815658403000,-0.235000000000
10.823345524000,-0.269000000000
10.831032645000,0.036000000000
10.838719766000,0.808000000000
10.846406887000,1.650000000000
10.854094008000,1.895000000000
10.861781129000,0.950000000000
10.869468250000,-0.433000000000
10.877155371000,-0.634000000000
10.884842492000,-0.117000000000
10.892529613000,-0.127000000000
10.900216734000,-0.271000000000
10.907903855000,-0.159000000000
10.915590976000,-0.124000000000
10.923278097000,-0.171000000000
10.930965218000,-0.129000000000
10.938652339000,-0.088000000000
10.946339460000,-0.088000000000
10.954026649000,-0.066000000000
10.961713492000,-0.031000000000
10.969400335000,-0.014000000000
10.977087178000,0.007000000000
10.984774021000,0.039000000000
10.992460864000,0.068000000000
11.000147707000,0.097000000000
11.007834550000,0.127000000000
11.015521393000,0.156000000000
11.023208236000,0.181000000000
11.030895079000,0.198000000000
11.038581922000,0.208000000000
11.046268765000,0.205000000000
11.053955608000,0.195000000000
11.061642451000,0.181000000000
11.069329294000,0.161000000000
11.077016137000,0.137000000000
11.084702980000,0.105000000000
11.092389823000,0.058000000000
11.100076666000,-0.002000000000
11.107763509000,-0.071000000000
11.115450352000,-0.137000000000
11.123137195000,-0.198000000000
11.130824038000,-0.240000000000
11.138510881000,-0.264000000000
11.146197724000,-0.274000000000
11.153884567000,-0.274000000000
11.161571410000,-0.267000000000
11.169258253000,-0.257000000000
11.176945096000,-0.247000000000
11.184631939000,-0.235000000000
11.192318782000,-0.222000000000
11.200005625000,-0.213000000000
11.207692468000,-0.205000000000
11.215379311000,-0.200000000000
11.223066154000,-0.195000000000
11.230752997000,-0.193000000000
11.238439840000,-0.193000000000
11.246126683000,-0.191000000000
11.253813526000,-0.188000000000
11.261500369000,-0.191000000000
11.269187212000,-0.188000000000
11.276874055000,-0.188000000000
11.284560898000,-0.188000000000
11.292247741000,-0.188000000000
11.299934584000,-0.186000000000
11.307621427000,-0.183000000000
11.315308270000,-0.178000000000
11.322995113000,-0.176000000000
11.330681956000,-0.176000000000
11.338368799000,-0.181000000000
11.346055642000,-0.183000000000
11.353742485000,-0.173000000000
11.361429328000,-0.156000000000
11.369116171000,-0.139000000000
11.376803014000,-0.132000000000
11.384489857000,-0.122000000000
11.392176700000,-0.107000000000
11.399863543000,-0.107000000000
11.407550386000,-0.142000000000
11.415237229000,-0.164000000000
11.422924072000,-0.154000000000
11.430610915000,-0.144000000000
11.438297758000,-0.144000000000
11.445984601000,-0.139000000000
11.453671444000,-0.132000000000
11.461358287000,-0.129000000000
11.469045130000,-0.129000000000
11.476731973000,-0.142000000000
11.484418816000,-0.188000000000
11.492105659000,-0.271000000000
11.499792502000,-0.198000000000
11.507479345000,0.330000000000
11.515166202000,1.210000000000
11.522853393000,1.900000000000
11.530540584000,1.665000000000
11.538227775000,0.306000000000
11.545914966000,-0.703000000000
11.553602157000,-0.396000000000
11.561289348000,-0.044000000000
11.568976539000,-0.222000000000
11.576663730000,-0.237000000000
11.584350921000,-0.117000000000
11.592038112000,-0.149000000000
11.599725303000,-0.161000000000
11.607412494000,-0.102000000000
11.615099685000,-0.088000000000
11.622786876000,-0.083000000000
11.630474067000,-0.048000000000
11.638161258000,-0.024000000000
11.645848449000,-0.007000000000
11.653535640000,0.022000000000
11.661222831000,0.053000000000
11.668910022000,0.080000000000
11.676597213000,0.112000000000
11.684284404000,0.142000000000
11.691971595000,0.169000000000
11.699658786000,0.193000000000
11.707345977000,0.210000000000
11.715033168000,0.213000000000
11.722720359000,0.205000000000
11.730407550000,0.195000000000
11.738094741000,0.178000000000
11.745781932000,0.159000000000
11.753469123000,0.132000000000
11.761156314000,0.093000000000
11.768843505000,0.039000000000
11.776530696000,-0.024000000000
11.784217887000,-0.093000000000
11.791905078000,-0.159000000000
11.799592269000,-0.213000000000
11.807279460000,-0.249000000000
11.814966651000,-0.267000000000
11.822653842000,-0.269000000000
11.830341033000,-0.264000000000
11.838028224000,-0.257000000000
11.845715415000,-0.244000000000
11.853402606000,-0.232000000000
11.861089797000,-0.220000000000
11.868776988000,-0.215000000000
11.876464179000,-0.205000000000
11.884151370000,-0.195000000000
11.891838561000,-0.193000000000
11.899525752000,-0.191000000000
11.907212943000,-0.186000000000
11.914900134000,-0.183000000000
11.922587325000,-0.186000000000
11.930274516000,-0.183000000000
11.937961707000,-0.181000000000
11.945648898000,-0.183000000000
11.953336089000,-0.181000000000
11.961023280000,-0.176000000000
11.968710471000,-0.181000000000
11.976397662000,-0.181000000000
11.984084853000,-0.173000000000
11.991772044000,-0.171000000000
11.999459235000,-0.171000000000
12.007146426000,-0.171000000000
12.014833617000,-0.171000000000
12.022520808000,-0.171000000000
12.030207999000,-0.164000000000
12.037895190000,-0.146000000000
12.045582381000,-0.132000000000
12.053269572000,-0.122000000000
12.060956763000,-0.112000000000
12.068643954000,-0.100000000000
12.076331186000,-0.105000000000
12.084018098000,-0.139000000000
12.091705010000,-0.159000000000
12.099391922000,-0.146000000000
12.107078834000,-0.142000000000
12.114765746000,-0.139000000000
12.122452658000,-0.129000000000
12.130139570000,-0.129000000000
12.137826482000,-0.132000000000
12.145513394000,-0.127000000000
12.153200306000,-0.137000000000
12.160887218000,-0.191000000000
12.168574130000,-0.269000000000
12.176261042000,-0.144000000000
12.183947954000,0.453000000000
12.191634866000,1.320000000000
12.199321778000,1.876000000000
12.207008690000,1.425000000000
12.214695602000,0.031000000000
12.222382514000,-0.717000000000
12.230069426000,-0.291000000000
12.237756338000,-0.053000000000
12.245443250000,-0.235000000000
12.253130162000,-0.191000000000
12.260817074000,-0.100000000000
12.268503986000,-0.142000000000
12.276190898000,-0.124000000000
12.283877810000,-0.068000000000
12.291564722000,-0.068000000000
12.299251634000,-0.063000000000
12.306938546000,-0.024000000000
12.314625458000,0.004000000000
12.322312370000,0.022000000000
12.329999282000,0.048000000000
12.337686194000,0.083000000000
12.345373106000,0.115000000000
12.353060018000,0.139000000000
12.360746930000,0.161000000000
12.368433842000,0.191000000000
12.376120754000,0.213000000000
12.383807666000,0.230000000000
12.391494578000,0.235000000000
12.399181490000,0.222000000000
12.406868402000,0.205000000000
12.414555314000,0.193000000000
12.422242226000,0.173000000000
12.429929138000,0.132000000000
12.437616050000,0.083000000000
12.445302962000,0.029000000000
12.452989874000,-0.031000000000
12.460676786000,-0.093000000000
12.468363698000,-0.161000000000
12.476050610000,-0.225000000000
12.483737522000,-0.257000000000
12.491424434000,-0.262000000000
12.499111346000,-0.269000000000
12.506798258000,-0.274000000000
12.514485170000,-0.262000000000
12.522172082000,-0.242000000000
12.529858994000,-0.235000000000
12.537545906000,-0.227000000000
12.545232818000,-0.215000000000
12.552919730000,-0.198000000000
12.560606642000,-0.193000000000
12.568293554000,-0.198000000000
12.575980466000,-0.198000000000
12.583667378000,-0.191000000000
12.591354290000,-0.181000000000
12.599041202000,-0.176000000000
12.606728114000,-0.181000000000
12.614415026000,-0.183000000000
12.622101938000,-0.178000000000
12.629788850000,-0.171000000000
12.637475822000,-0.171000000000
12.645162943000,-0.178000000000
12.652850064000,-0.181000000000
12.660537185000,-0.176000000000
12.668224306000,-0.176000000000
12.675911427000,-0.183000000000
12.683598548000,-0.181000000000
12.691285669000,-0.164000000000
12.698972790000,-0.146000000000
12.706659911000,-0.142000000000
12.714347032000,-0.134000000000
12.722034153000,-0.117000000000
12.729721274000,-0.105000000000
12.737408395000,-0.127000000000
12.745095516000,-0.161000000000
12.752782637000,-0.164000000000
12.760469758000,-0.149000000000
12.768156879000,-0.144000000000
12.775844000000,-0.144000000000
12.783531121000,-0.137000000000
12.791218242000,-0.134000000000
12.798905363000,-0.132000000000
12.806592484000,-0.137000000000
12.814279605000,-0.161000000000
12.821966726000,-0.220000000000
12.829653847000,-0.257000000000
12.837340968000,0.029000000000
12.845028089000,0.783000000000
12.852715210000,1.560000000000
12.860402331000,1.724000000000
12.868089452000,0.815000000000
12.875776573000,-0.453000000000
12.883463694000,-0.605000000000
12.891150815000,-0.115000000000
12.898837936000,-0.129000000000
12.906525057000,-0.237000000000
12.914212178000,-0.112000000000
12.921899299000,-0.090000000000
12.929586420000,-0.142000000000
12.937273541000,-0.097000000000
12.944960662000,-0.056000000000
12.952647783000,-0.056000000000
12.960334904000,-0.031000000000
12.968022025000,0.000000000000
12.975709146000,0.017000000000
12.983396267000,0.044000000000
12.991083388000,0.078000000000
12.998770509000,0.102000000000
13.006457630000,0.127000000000
13.014144751000,0.161000000000
13.021831872000,0.193000000000
13.029518993000,0.215000000000
13.037206114000,0.230000000000
13.044893235000,0.235000000000
13.052580356000,0.227000000000
13.060267477000,0.213000000000
13.067954598000,0.193000000000
13.075641719000,0.173000000000
13.083328840000,0.146000000000
13.091015961000,0.105000000000
13.098703082000,0.051000000000
13.106390203000,-0.007000000000
13.114077324000,-0.075000000000
13.121764445000,-0.151000000000
13.129451566000,-0.213000000000
13.137138687000,-0.247000000000
13.144825808000,-0.267000000000
13.152512929000,-0.274000000000
13.160200050000,-0.276000000000
13.167887171000,-0.269000000000
13.175574292000,-0.259000000000
13.183261413000,-0.249000000000
13.190948534000,-0.235000000000
13.198635719000,-0.222000000000
13.206322840000,-0.213000000000
13.214009961000,-0.203000000000
13.221697082000,-0.198000000000
13.229384203000,-0.195000000000
13.237071324000,-0.191000000000
13.244758445000,-0.186000000000
13.252445566000,-0.186000000000
13.260132687000,-0.186000000000
13.267819808000,-0.183000000000
13.275506929000,-0.181000000000
13.283194050000,-0.181000000000
13.290881171000,-0.181000000000
13.298568292000,-0.181000000000
13.306255413000,-0.183000000000
13.313942534000,-0.181000000000
13.321629655000,-0.176000000000
13.329316776000,-0.178000000000
13.337003897000,-0.183000000000
13.344691018000,-0.183000000000
13.352378139000,-0.173000000000
13.360065260000,-0.161000000000
13.367752381000,-0.149000000000
13.375439502000,-0.139000000000
13.383126623000,-0.127000000000
13.390813744000,-0.112000000000
13.398500865000,-0.117000000000
13.406187986000,-0.149000000000
13.413875107000,-0.169000000000
13.421562228000,-0.159000000000
13.429249349000,-0.149000000000
13.436936470000,-0.146000000000
13.444623591000,-0.142000000000
13.452310712000,-0.137000000000
13.459997833000,-0.134000000000
13.467684954000,-0.137000000000
13.475372075000,-0.154000000000
13.483059196000,-0.203000000000
13.490746317000,-0.274000000000
13.498433438000,-0.144000000000
13.506120559000,0.470000000000
13.513807680000,1.335000000000
13.521494801000,1.866000000000
13.529181922000,1.406000000000
13.536869043000,0.024000000000
13.544556164000,-0.722000000000
13.552243285000,-0.298000000000
13.559930406000,-0.056000000000
13.567617527000,-0.242000000000
13.575304648000,-0.208000000000
13.582991769000,-0.112000000000
13.590678890000,-0.154000000000
13.598366011000,-0.149000000000
13.606053132000,-0.093000000000
13.613740253000,-0.085000000000
13.621427374000,-0.078000000000
13.629114495000,-0.041000000000
13.636801616000,-0.017000000000
13.644488737000,-0.002000000000
13.652175858000,0.026000000000
13.659862979000,0.058000000000
13.667550100000,0.085000000000
13.675237221000,0.115000000000
13.682924342000,0.144000000000
13.690611463000,0.171000000000
13.698298584000,0.191000000000
13.705985705000,0.205000000000
13.713672826000,0.208000000000
13.721359947000,0.198000000000
13.729047068000,0.183000000000
13.736734189000,0.169000000000
13.744421310000,0.146000000000
13.752108431000,0.117000000000
13.759795620000,0.073000000000
13.767482393000,0.014000000000
13.775169166000,-0.051000000000
13.782855939000,-0.120000000000
13.790542712000,-0.186000000000
13.798229485000,-0.232000000000
13.805916258000,-0.262000000000
13.813603031000,-0.276000000000
13.821289804000,-0.279000000000
13.828976577000,-0.274000000000
13.836663350000,-0.264000000000
13.844350123000,-0.249000000000
13.852036896000,-0.237000000000
13.859723669000,-0.227000000000
13.867410442000,-0.215000000000
13.875097215000,-0.205000000000
13.882783988000,-0.198000000000
13.890470761000,-0.193000000000
13.898157534000,-0.191000000000
13.905844307000,-0.188000000000
13.913531080000,-0.188000000000
13.921217853000,-0.188000000000
13.928904626000,-0.186000000000
13.936591399000,-0.186000000000
13.944278172000,-0.186000000000
13.951964945000,-0.183000000000
13.959651718000,-0.183000000000
13.967338491000,-0.183000000000
13.975025264000,-0.183000000000
13.982712037000,-0.181000000000
13.990398810000,-0.178000000000
13.998085583000,-0.173000000000
14.005772356000,-0.176000000000
14.013459129000,-0.181000000000
14.021145902000,-0.178000000000
14.028832675000,-0.166000000000
14.036519448000,-0.149000000000
14.044206221000,-0.134000000000
14.051892994000,-0.127000000000
14.059579767000,-0.115000000000
14.067266540000,-0.105000000000
14.074953313000,-0.117000000000
14.082640086000,-0.149000000000
14.090326859000,-0.161000000000
14.098013632000,-0.149000000000
14.105700405000,-0.144000000000
14.113387178000,-0.142000000000
14.121073951000,-0.137000000000
14.128760724000,-0.132000000000
14.136447497000,-0.127000000000
14.144134270000,-0.132000000000
14.151821043000,-0.154000000000
14.159507816000,-0.215000000000
14.167194589000,-0.284000000000
14.174881362000,-0.097000000000
14.182568135000,0.575000000000
14.190254908000,1.467000000000
14.197941681000,1.962000000000
14.205628454000,1.359000000000
14.213315227000,-0.100000000000
14.221002000000,-0.720000000000
14.228688773000,-0.235000000000
14.236375546000,-0.066000000000
14.244062319000,-0.262000000000
14.251749092000,-0.200000000000
14.259435865000,-0.117000000000
14.267122638000,-0.164000000000
14.274809411000,-0.149000000000
14.282496184000,-0.093000000000
14.290182957000,-0.088000000000
14.297869730000,-0.073000000000
14.305556503000,-0.039000000000
14.313243276000,-0.017000000000
14.320930086000,0.004000000000
14.328617138000,0.034000000000
14.336304190000,0.063000000000
14.343991242000,0.093000000000
14.351678294000,0.127000000000
14.359365346000,0.159000000000
14.367052398000,0.183000000000
14.374739450000,0.208000000000
14.382426502000,0.222000000000
14.390113554000,0.220000000000
14.397800606000,0.210000000000
14.405487658000,0.198000000000
14.413174710000,0.181000000000
14.420861762000,0.159000000000
14.428548814000,0.127000000000
14.436235866000,0.080000000000
14.443922918000,0.019000000000
14.451609970000,-0.048000000000
14.459297022000,-0.120000000000
14.466984074000,-0.186000000000
14.474671126000,-0.235000000000
14.482358178000,-0.264000000000
14.490045230000,-0.274000000000
14.497732282000,-0.276000000000
14.505419334000,-0.271000000000
14.513106386000,-0.262000000000
14.520793438000,-0.249000000000
14.528480490000,-0.235000000000
14.536167542000,-0.222000000000
14.543854594000,-0.213000000000
14.551541646000,-0.205000000000
14.559228698000,-0.195000000000
14.566915750000,-0.193000000000
14.574602802000,-0.188000000000
14.582289854000,-0.186000000000
14.589976906000,-0.183000000000
14.597663958000,-0.186000000000
14.605351010000,-0.186000000000
14.613038062000,-0.186000000000
14.620725114000,-0.186000000000
14.628412166000,-0.186000000000
14.636099218000,-0.186000000000
14.643786270000,-0.183000000000
14.651473322000,-0.181000000000
14.659160374000,-0.178000000000
14.666847426000,-0.176000000000
14.674534478000,-0.171000000000
14.682221530000,-0.169000000000
14.689908582000,-0.171000000000
14.697595634000,-0.176000000000
14.705282686000,-0.173000000000
14.712969738000,-0.164000000000
14.720656790000,-0.144000000000
14.728343842000,-0.127000000000
14.736030894000,-0.117000000000
14.743717946000,-0.110000000000
14.751404998000,-0.105000000000
14.759092050000,-0.117000000000
14.766779102000,-0.149000000000
14.774466154000,-0.159000000000
14.782153206000,-0.144000000000
14.789840258000,-0.139000000000
14.797527310000,-0.139000000000
14.805214362000,-0.132000000000
14.812901414000,-0.124000000000
14.820588466000,-0.124000000000
14.828275518000,-0.129000000000
14.835962570000,-0.151000000000
14.843649622000,-0.215000000000
14.851336674000,-0.289000000000
14.859023726000,-0.115000000000
14.866710778000,0.558000000000
14.874397830000,1.462000000000
14.882084896000,1.981000000000
14.889772017000,1.386000000000
14.897459138000,-0.090000000000
14.905146259000,-0.725000000000
14.912833380000,-0.237000000000
14.920520501000,-0.063000000000
14.928207622000,-0.262000000000
14.935894743000,-0.203000000000
14.943581864000,-0.117000000000
14.951268985000,-0.164000000000
14.958956106000,-0.146000000000
14.966643227000,-0.093000000000
14.974330348000,-0.088000000000
14.982017469000,-0.075000000000
14.989704590000,-0.039000000000
14.997391711000,-0.014000000000
15.005078832000,0.009000000000
15.012765953000,0.039000000000
15.020453074000,0.066000000000
15.028140195000,0.100000000000
15.035827316000,0.137000000000
15.043514437000,0.166000000000
15.051201558000,0.191000000000
15.058888679000,0.213000000000
15.066575800000,0.222000000000
15.074262921000,0.222000000000
15.081950042000,0.220000000000
15.089637163000,0.213000000000
15.097324284000,0.191000000000
15.105011405000,0.166000000000
15.112698526000,0.137000000000
15.120385647000,0.093000000000
15.128072768000,0.031000000000
15.135759889000,-0.039000000000
15.143447010000,-0.115000000000
15.151134131000,-0.181000000000
15.158821252000,-0.225000000000
15.166508373000,-0.259000000000
15.174195494000,-0.281000000000
15.181882615000,-0.286000000000
15.189569736000,-0.276000000000
15.197256857000,-0.262000000000
15.204943978000,-0.249000000000
15.212631099000,-0.237000000000
15.220318220000,-0.227000000000
15.228005341000,-0.218000000000
15.235692462000,-0.208000000000
15.243379583000,-0.198000000000
15.251066704000,-0.200000000000
15.258753825000,-0.198000000000
15.266440946000,-0.188000000000
15.274128067000,-0.186000000000
15.281815188000,-0.186000000000
15.289502309000,-0.183000000000
15.297189430000,-0.191000000000
15.304876551000,-0.188000000000
15.312563672000,-0.181000000000
15.320250793000,-0.183000000000
15.327937914000,-0.186000000000
15.335625035000,-0.181000000000
15.343312156000,-0.178000000000
15.350999277000,-0.181000000000
15.358686398000,-0.171000000000
15.366373519000,-0.166000000000
15.374060640000,-0.173000000000
15.381747761000,-0.176000000000
15.389434882000,-0.169000000000
15.397122003000,-0.151000000000
15.404809124000,-0.129000000000
15.412496245000,-0.112000000000
15.420183366000,-0.110000000000
15.427870487000,-0.107000000000
15.435557608000,-0.107000000000
15.443244793000,-0.129000000000
15.450931914000,-0.159000000000
15.458619035000,-0.161000000000
15.466306156000,-0.146000000000
15.473993277000,-0.139000000000
15.481680398000,-0.134000000000
15.489367519000,-0.124000000000
15.497054640000,-0.120000000000
15.504741761000,-0.132000000000
15.512428882000,-0.146000000000
15.520116003000,-0.176000000000
15.527803124000,-0.254000000000
15.535490245000,-0.218000000000
15.543177366000,0.257000000000
15.550864487000,1.102000000000
15.558551608000,1.778000000000
15.566238729000,1.621000000000
15.573925850000,0.394000000000
15.581612971000,-0.651000000000
15.589300092000,-0.433000000000
15.596987213000,-0.046000000000
15.604674334000,-0.193000000000
15.612361455000,-0.222000000000
15.620048576000,-0.102000000000
15.627735697000,-0.127000000000
15.635422818000,-0.142000000000
15.643109939000,-0.080000000000
15.650797060000,-0.066000000000
15.658484181000,-0.063000000000
15.666171302000,-0.022000000000
15.673858423000,0.009000000000
15.681545544000,0.022000000000
15.689232665000,0.041000000000
15.696919786000,0.071000000000
15.704606907000,0.105000000000
15.712294028000,0.134000000000
15.719981149000,0.164000000000
15.727668270000,0.195000000000
15.735355391000,0.220000000000
15.743042512000,0.242000000000
15.750729633000,0.249000000000
15.758416754000,0.237000000000
15.766103875000,0.218000000000
15.773790996000,0.198000000000
15.781478117000,0.178000000000
15.789165238000,0.154000000000
15.796852359000,0.107000000000
15.804539480000,0.048000000000
15.812226601000,-0.012000000000
15.819913722000,-0.088000000000
15.827600843000,-0.161000000000
15.835287964000,-0.215000000000
15.842975085000,-0.257000000000
15.850662206000,-0.276000000000
15.858349327000,-0.281000000000
15.866036448000,-0.279000000000
15.873723569000,-0.269000000000
15.881410690000,-0.257000000000
15.889097811000,-0.244000000000
15.896784932000,-0.235000000000
15.904472053000,-0.227000000000
15.912159174000,-0.218000000000
15.919846295000,-0.208000000000
15.927533416000,-0.198000000000
15.935220537000,-0.193000000000
15.942907658000,-0.191000000000
15.950594779000,-0.188000000000
15.958281900000,-0.181000000000
15.965969021000,-0.181000000000
15.973656142000,-0.181000000000
15.981343263000,-0.178000000000
15.989030384000,-0.178000000000
15.996717505000,-0.181000000000
16.004404690000,-0.181000000000
16.012091393000,-0.181000000000
16.019778096000,-0.173000000000
16.027464799000,-0.171000000000
16.035151502000,-0.178000000000
16.042838205000,-0.186000000000
16.050524908000,-0.178000000000
16.058211611000,-0.166000000000
16.065898314000,-0.151000000000
16.073585017000,-0.139000000000
16.081271720000,-0.132000000000
16.088958423000,-0.122000000000
16.096645126000,-0.110000000000
16.104331829000,-0.129000000000
16.112018532000,-0.166000000000
16.119705235000,-0.171000000000
16.127391938000,-0.156000000000
16.135078641000,-0.151000000000
16.142765344000,-0.149000000000
16.150452047000,-0.142000000000
16.158138750000,-0.139000000000
16.165825453000,-0.137000000000
16.173512156000,-0.144000000000
16.181198859000,-0.164000000000
16.188885562000,-0.220000000000
16.196572265000,-0.271000000000
16.204258968000,-0.039000000000
16.211945671000,0.673000000000
16.219632374000,1.501000000000
16.227319077000,1.820000000000
16.235005780000,1.058000000000
16.242692483000,-0.303000000000
16.250379186000,-0.685000000000
16.258065889000,-0.191000000000
16.265752592000,-0.112000000000
16.273439295000,-0.262000000000
16.281125998000,-0.166000000000
16.288812701000,-0.115000000000
16.296499404000,-0.159000000000
16.304186107000,-0.129000000000
16.311872810000,-0.085000000000
16.319559513000,-0.085000000000
16.327246216000,-0.066000000000
16.334932919000,-0.031000000000
16.342619622000,-0.012000000000
16.350306325000,0.007000000000
16.357993028000,0.036000000000
16.365679731000,0.068000000000
16.373366434000,0.097000000000
16.381053137000,0.127000000000
16.388739840000,0.156000000000
16.396426543000,0.181000000000
16.404113246000,0.200000000000
16.411799949000,0.210000000000
16.419486652000,0.205000000000
16.427173355000,0.195000000000
16.434860058000,0.183000000000
16.442546761000,0.161000000000
16.450233464000,0.137000000000
16.457920167000,0.105000000000
16.465606870000,0.056000000000
16.473293573000,-0.004000000000
16.480980276000,-0.073000000000
16.488666979000,-0.144000000000
16.496353682000,-0.205000000000
16.504040385000,-0.244000000000
16.511727088000,-0.271000000000
16.519413791000,-0.279000000000
16.527100494000,-0.276000000000
16.534787197000,-0.271000000000
16.542473900000,-0.262000000000
16.550160603000,-0.249000000000
16.557847306000,-0.240000000000
16.565534069000,-0.227000000000
16.573221190000,-0.215000000000
16.580908311000,-0.208000000000
16.588595432000,-0.200000000000
16.596282553000,-0.193000000000
16.603969674000,-0.191000000000
16.611656795000,-0.188000000000
16.619343916000,-0.188000000000
16.627031037000,-0.188000000000
16.634718158000,-0.186000000000
16.642405279000,-0.183000000000
16.650092400000,-0.183000000000
16.657779521000,-0.181000000000
16.665466642000,-0.183000000000
16.673153763000,-0.181000000000
16.680840884000,-0.178000000000
16.688528005000,-0.178000000000
16.696215126000,-0.176000000000
16.703902247000,-0.171000000000
16.711589368000,-0.176000000000
16.719276489000,-0.181000000000
16.726963610000,-0.178000000000
16.734650731000,-0.164000000000
16.742337852000,-0.144000000000
16.750024973000,-0.134000000000
16.757712094000,-0.127000000000
16.765399215000,-0.112000000000
16.773086336000,-0.105000000000
16.780773457000,-0.127000000000
16.788460578000,-0.159000000000
16.796147699000,-0.159000000000
16.803834820000,-0.146000000000
16.811521941000,-0.142000000000
16.819209062000,-0.142000000000
16.826896183000,-0.137000000000
16.834583304000,-0.132000000000
16.842270425000,-0.129000000000
16.849957546000,-0.137000000000
16.857644667000,-0.171000000000
16.865331788000,-0.247000000000
16.873018909000,-0.257000000000
16.880706030000,0.115000000000
16.888393151000,0.923000000000
16.896080272000,1.736000000000
16.903767393000,1.876000000000
16.911454514000,0.805000000000
16.919141635000,-0.524000000000
16.926828756000,-0.578000000000
16.934515877000,-0.073000000000
16.942202998000,-0.146000000000
16.949890119000,-0.267000000000
16.957577240000,-0.144000000000
16.965264361000,-0.127000000000
16.972951482000,-0.169000000000
16.980638603000,-0.120000000000
16.988325724000,-0.085000000000
16.996012845000,-0.085000000000
17.003699966000,-0.058000000000
17.011387087000,-0.024000000000
17.019074208000,-0.007000000000
17.026761329000,0.014000000000
17.034448450000,0.046000000000
17.042135571000,0.075000000000
17.049822692000,0.107000000000
17.057509813000,0.142000000000
17.065196934000,0.171000000000
17.072884055000,0.195000000000
17.080571176000,0.215000000000
17.088258297000,0.225000000000
17.095945418000,0.222000000000
17.103632539000,0.213000000000
17.111319660000,0.198000000000
17.119006781000,0.176000000000
17.126693966000,0.149000000000
17.134381087000,0.112000000000
17.142068208000,0.058000000000
17.149755329000,-0.007000000000
17.157442450000,-0.078000000000
17.165129571000,-0.149000000000
17.172816692000,-0.210000000000
17.180503813000,-0.249000000000
17.188190934000,-0.269000000000
17.195878055000,-0.276000000000
17.203565176000,-0.276000000000
17.211252297000,-0.269000000000
17.218939418000,-0.259000000000
17.226626539000,-0.247000000000
17.234313660000,-0.235000000000
17.242000781000,-0.222000000000
17.249687902000,-0.213000000000
17.257375023000,-0.203000000000
17.265062144000,-0.198000000000
17.272749265000,-0.193000000000
17.280436386000,-0.188000000000
17.288123507000,-0.188000000000
17.295810628000,-0.186000000000
17.303497749000,-0.186000000000
17.311184870000,-0.186000000000
17.318871991000,-0.186000000000
17.326559112000,-0.183000000000
17.334246233000,-0.181000000000
17.341933354000,-0.181000000000
17.349620475000,-0.181000000000
17.357307596000,-0.178000000000
17.364994717000,-0.176000000000
17.372681838000,-0.173000000000
17.380368959000,-0.171000000000
17.388056080000,-0.176000000000
17.395743201000,-0.178000000000
17.403430322000,-0.171000000000
17.411117443000,-0.156000000000
17.418804564000,-0.137000000000
17.426491685000,-0.127000000000
17.434178806000,-0.117000000000
17.441865927000,-0.105000000000
17.449553048000,-0.107000000000
17.457240169000,-0.132000000000
17.464927290000,-0.159000000000
17.472614411000,-0.154000000000
17.480301532000,-0.144000000000
17.487988653000,-0.142000000000
17.495675774000,-0.137000000000
17.503362895000,-0.132000000000
17.511050016000,-0.129000000000
17.518737137000,-0.129000000000
17.526424258000,-0.142000000000
17.534111379000,-0.181000000000
17.541798500000,-0.259000000000
17.549485621000,-0.222000000000
17.557172742000,0.244000000000
17.564859863000,1.107000000000
17.572546984000,1.859000000000
17.580234105000,1.800000000000
17.587921226000,0.548000000000
17.595608347000,-0.644000000000
17.603295468000,-0.485000000000
17.610982589000,-0.046000000000
17.618669710000,-0.193000000000
17.626356831000,-0.259000000000
17.634043952000,-0.129000000000
17.641731073000,-0.139000000000
17.649418194000,-0.169000000000
17.657105315000,-0.112000000000
17.664792436000,-0.085000000000
17.672479557000,-0.083000000000
17.680166678000,-0.053000000000
17.687853867000,-0.026000000000
17.695540710000,-0.007000000000
17.703227553000,0.019000000000
17.710914396000,0.053000000000
17.718601239000,0.083000000000
17.726288082000,0.112000000000
17.733974925000,0.144000000000
17.741661768000,0.173000000000
17.749348611000,0.200000000000
17.757035454000,0.218000000000
17.764722297000,0.225000000000
17.772409140000,0.220000000000
17.780095983000,0.210000000000
17.787782826000,0.193000000000
17.795469669000,0.173000000000
17.803156512000,0.146000000000
17.810843355000,0.102000000000
17.818530198000,0.044000000000
17.826217041000,-0.024000000000
17.833903884000,-0.095000000000
17.841590727000,-0.166000000000
17.849277570000,-0.222000000000
17.856964413000,-0.259000000000
17.864651256000,-0.279000000000
17.872338099000,-0.284000000000
17.880024942000,-0.281000000000
17.887711785000,-0.274000000000
17.895398628000,-0.264000000000
17.903085471000,-0.252000000000
17.910772314000,-0.237000000000
17.918459157000,-0.225000000000
17.926146000000,-0.218000000000
17.933832843000,-0.210000000000
17.941519686000,-0.200000000000
17.949206529000,-0.198000000000
17.956893372000,-0.198000000000
17.964580215000,-0.195000000000
17.972267058000,-0.195000000000
17.979953901000,-0.193000000000
17.987640744000,-0.191000000000
17.995327587000,-0.191000000000
18.003014430000,-0.188000000000
18.010701273000,-0.188000000000
18.018388116000,-0.188000000000
18.026074959000,-0.191000000000
18.033761802000,-0.186000000000
18.041448645000,-0.183000000000
18.049135488000,-0.183000000000
18.056822331000,-0.181000000000
18.064509174000,-0.178000000000
18.072196017000,-0.178000000000
18.079882860000,-0.178000000000
18.087569703000,-0.166000000000
18.095256546000,-0.144000000000
18.102943389000,-0.124000000000
18.110630232000,-0.120000000000
18.118317075000,-0.112000000000
18.126003918000,-0.105000000000
18.133690761000,-0.122000000000
18.141377604000,-0.156000000000
18.149064447000,-0.164000000000
18.156751290000,-0.154000000000
18.164438133000,-0.149000000000
18.172124976000,-0.142000000000
18.179811819000,-0.134000000000
18.187498662000,-0.129000000000
18.195185505000,-0.132000000000
18.202872348000,-0.142000000000
18.210559191000,-0.161000000000
18.218246034000,-0.220000000000
18.225932877000,-0.281000000000
18.233619720000,-0.068000000000
18.241306563000,0.629000000000
18.248993420000,1.508000000000
18.256680402000,1.942000000000
18.264367384000,1.239000000000
18.272054366000,-0.213000000000
18.279741348000,-0.712000000000
18.287428330000,-0.203000000000
18.295115312000,-0.085000000000
18.302802294000,-0.264000000000
18.310489276000,-0.178000000000
18.318176258000,-0.110000000000
18.325863240000,-0.161000000000
18.333550222000,-0.134000000000
18.341237204000,-0.088000000000
18.348924186000,-0.085000000000
18.356611168000,-0.068000000000
18.364298150000,-0.031000000000
18.371985132000,-0.007000000000
18.379672114000,0.012000000000
18.387359096000,0.041000000000
18.395046078000,0.075000000000
18.402733060000,0.105000000000
18.410420042000,0.142000000000
18.418107024000,0.178000000000
18.425794006000,0.203000000000
18.433480988000,0.220000000000
18.441167970000,0.232000000000
18.448854952000,0.240000000000
18.456541934000,0.230000000000
18.464228916000,0.208000000000
18.471915898000,0.191000000000
18.479602880000,0.178000000000
18.487289862000,0.144000000000
18.494976844000,0.085000000000
18.502663826000,0.022000000000
18.510350808000,-0.046000000000
18.518037790000,-0.120000000000
18.525724772000,-0.186000000000
18.533411754000,-0.235000000000
18.541098736000,-0.267000000000
18.548785718000,-0.281000000000
18.556472700000,-0.279000000000
18.564159682000,-0.271000000000
18.571846664000,-0.262000000000
18.579533646000,-0.252000000000
18.587220628000,-0.242000000000
18.594907610000,-0.227000000000
18.602594592000,-0.210000000000
18.610281574000,-0.203000000000
18.617968556000,-0.198000000000
18.625655538000,-0.198000000000
18.633342520000,-0.193000000000
18.641029502000,-0.186000000000
18.648716484000,-0.181000000000
18.656403466000,-0.181000000000
18.664090448000,-0.183000000000
18.671777430000,-0.181000000000
18.679464412000,-0.176000000000
18.687151394000,-0.176000000000
18.694838376000,-0.178000000000
18.702525358000,-0.176000000000
18.710212340000,-0.173000000000
18.717899322000,-0.173000000000
18.725586304000,-0.169000000000
18.733273286000,-0.166000000000
18.740960268000,-0.166000000000
18.748647250000,-0.169000000000
18.756334232000,-0.171000000000
18.764021214000,-0.159000000000
18.771708196000,-0.134000000000
18.779395178000,-0.115000000000
18.787082160000,-0.110000000000
18.794769142000,-0.105000000000
18.802456124000,-0.095000000000
18.810143143000,-0.110000000000
18.817830264000,-0.144000000000
18.825517385000,-0.156000000000
18.833204506000,-0.142000000000
18.840891627000,-0.134000000000
18.848578748000,-0.132000000000
18.856265869000,-0.124000000000
18.863952990000,-0.122000000000
18.871640111000,-0.124000000000
18.879327232000,-0.129000000000
18.887014353000,-0.139000000000
18.894701474000,-0.183000000000
18.902388595000,-0.259000000000
18.910075716000,-0.137000000000
18.917762837000,0.462000000000
18.925449958000,1.308000000000
18.933137079000,1.820000000000
18.940824200000,1.369000000000
18.948511321000,0.024000000000
18.956198442000,-0.705000000000
18.963885563000,-0.284000000000
18.971572684000,-0.039000000000
18.979259805000,-0.215000000000
18.986946926000,-0.173000000000
18.994634047000,-0.078000000000
19.002321168000,-0.122000000000
19.010008289000,-0.115000000000
19.017695410000,-0.061000000000
19.025382531000,-0.056000000000
19.033069652000,-0.046000000000
19.040756773000,-0.007000000000
19.048443894000,0.019000000000
19.056131015000,0.036000000000
19.063818136000,0.063000000000
19.071505257000,0.097000000000
19.079192378000,0.132000000000
19.086879499000,0.161000000000
19.094566620000,0.191000000000
19.102253741000,0.218000000000
19.109940862000,0.235000000000
19.117627983000,0.247000000000
19.125315104000,0.252000000000
19.133002225000,0.244000000000
19.140689346000,0.230000000000
19.148376467000,0.210000000000
19.156063588000,0.188000000000
19.163750709000,0.156000000000
19.171437830000,0.102000000000
19.179124951000,0.034000000000
19.186812072000,-0.029000000000
19.194499193000,-0.105000000000
19.202186314000,-0.176000000000
19.209873435000,-0.225000000000
19.217560556000,-0.257000000000
19.225247677000,-0.271000000000
19.232934798000,-0.271000000000
19.240621919000,-0.267000000000
19.248309040000,-0.259000000000
19.255996161000,-0.244000000000
19.263683282000,-0.235000000000
19.271370403000,-0.225000000000
19.279057524000,-0.215000000000
19.286744645000,-0.213000000000
19.294431766000,-0.205000000000
19.302118887000,-0.188000000000
19.309806008000,-0.186000000000
19.317493129000,-0.186000000000
19.325180250000,-0.181000000000
19.332867371000,-0.181000000000
19.340554492000,-0.181000000000
19.348241613000,-0.176000000000
19.355928734000,-0.171000000000
19.363615855000,-0.173000000000
19.371303040000,-0.173000000000
19.378990161000,-0.171000000000
19.386677282000,-0.171000000000
19.394364403000,-0.173000000000
19.402051524000,-0.171000000000
19.409738645000,-0.166000000000
19.417425766000,-0.161000000000
19.425112887000,-0.166000000000
19.432800008000,-0.171000000000
19.440487129000,-0.169000000000
19.448174250000,-0.156000000000
19.455861371000,-0.137000000000
19.463548492000,-0.120000000000
19.471235613000,-0.105000000000
19.478922734000,-0.097000000000
19.486609855000,-0.097000000000
19.494296976000,-0.107000000000
19.501984097000,-0.134000000000
19.509671218000,-0.151000000000
19.517358339000,-0.144000000000
19.525045460000,-0.134000000000
19.532732581000,-0.132000000000
19.540419702000,-0.129000000000
19.548106823000,-0.127000000000
19.555793944000,-0.124000000000
19.563481065000,-0.124000000000
19.571168186000,-0.142000000000
19.578855307000,-0.186000000000
19.586542428000,-0.264000000000
19.594229549000,-0.183000000000
19.601916670000,0.364000000000
19.609603791000,1.222000000000
19.617290912000,1.820000000000
19.624978033000,1.504000000000
19.632665154000,0.188000000000
19.640352275000,-0.698000000000
19.648039396000,-0.360000000000
19.655726517000,-0.048000000000
19.663413638000,-0.215000000000
19.671100759000,-0.203000000000
19.678787880000,-0.097000000000
19.686475001000,-0.134000000000
19.694162122000,-0.139000000000
19.701849243000,-0.083000000000
19.709536364000,-0.071000000000
19.717223485000,-0.063000000000
19.724910606000,-0.031000000000
19.732597727000,-0.007000000000
19.740284848000,0.012000000000
19.747971969000,0.039000000000
19.755659090000,0.071000000000
19.763346211000,0.097000000000
19.771033332000,0.127000000000
19.778720453000,0.156000000000
19.786407574000,0.183000000000
19.794094695000,0.205000000000
19.801781816000,0.220000000000
19.809468937000,0.222000000000
19.817156058000,0.215000000000
19.824843179000,0.203000000000
19.832530300000,0.183000000000
19.840217421000,0.164000000000
19.847904542000,0.134000000000
19.855591663000,0.090000000000
19.863278784000,0.031000000000
19.870965905000,-0.031000000000
19.878653026000,-0.100000000000
19.886340147000,-0.169000000000
19.894027268000,-0.220000000000
19.901714389000,-0.252000000000
19.909401510000,-0.269000000000
19.917088631000,-0.274000000000
19.924775752000,-0.271000000000
19.932462937000,-0.262000000000
19.940150058000,-0.249000000000
19.947837179000,-0.240000000000
19.955524300000,-0.227000000000
19.963211421000,-0.218000000000
19.970898542000,-0.208000000000
19.978585663000,-0.200000000000
19.986272784000,-0.191000000000
19.993959905000,-0.188000000000
20.001647026000,-0.186000000000
20.009334147000,-0.181000000000
20.017021268000,-0.178000000000
20.024708389000,-0.178000000000
20.032395510000,-0.181000000000
20.040082631000,-0.178000000000
20.047769752000,-0.178000000000
20.055456873000,-0.178000000000
20.063143994000,-0.178000000000
20.070831115000,-0.176000000000
20.078518236000,-0.176000000000
20.086205357000,-0.173000000000
20.093892478000,-0.173000000000
20.101579599000,-0.169000000000
20.109266720000,-0.166000000000
20.116953841000,-0.161000000000
20.124640962000,-0.159000000000
20.132328083000,-0.161000000000
20.140015204000,-0.161000000000
20.147702325000,-0.154000000000
20.155389446000,-0.129000000000
20.163076567000,-0.107000000000
20.170763688000,-0.097000000000
20.178450809000,-0.093000000000
20.186137930000,-0.090000000000
20.193825051000,-0.105000000000
20.201512172000,-0.137000000000
20.209199293000,-0.154000000000
20.216886414000,-0.142000000000
20.224573535000,-0.132000000000
20.232260656000,-0.134000000000
20.239947777000,-0.129000000000
20.247634898000,-0.122000000000
20.255322019000,-0.122000000000
20.263009140000,-0.124000000000
20.270696261000,-0.139000000000
20.278383382000,-0.188000000000
20.286070503000,-0.271000000000
20.293757624000,-0.200000000000
20.301444745000,0.320000000000
20.309131866000,1.195000000000
20.316818987000,1.903000000000
20.324506108000,1.719000000000
20.332193229000,0.387000000000
20.339880350000,-0.680000000000
20.347567471000,-0.411000000000
20.355254592000,-0.031000000000
20.362941713000,-0.208000000000
20.370628834000,-0.240000000000
20.378315955000,-0.115000000000
20.386003076000,-0.139000000000
20.393690197000,-0.159000000000
20.401377318000,-0.100000000000
20.409064439000,-0.078000000000
20.416751560000,-0.075000000000
20.424438681000,-0.044000000000
20.432125802000,-0.014000000000
20.439812923000,0.004000000000
20.447500044000,0.031000000000
20.455187165000,0.063000000000
20.462874286000,0.090000000000
20.470561407000,0.122000000000
20.478248528000,0.156000000000
20.485935649000,0.186000000000
20.493622838000,0.210000000000
20.501309611000,0.230000000000
20.508996384000,0.235000000000
20.516683157000,0.230000000000
20.524369930000,0.218000000000
20.532056703000,0.200000000000
20.539743476000,0.178000000000
20.547430249000,0.151000000000
20.555117022000,0.110000000000
20.562803795000,0.053000000000
20.570490568000,-0.014000000000
20.578177341000,-0.085000000000
20.585864114000,-0.154000000000
20.593550887000,-0.210000000000
20.601237660000,-0.249000000000
20.608924433000,-0.267000000000
20.616611206000,-0.274000000000
20.624297979000,-0.274000000000
20.631984752000,-0.264000000000
20.639671525000,-0.252000000000
20.647358298000,-0.242000000000
20.655045071000,-0.232000000000
20.662731844000,-0.220000000000
20.670418617000,-0.208000000000
20.678105390000,-0.198000000000
20.685792163000,-0.193000000000
20.693478936000,-0.191000000000
20.701165709000,-0.186000000000
20.708852482000,-0.183000000000
20.716539255000,-0.183000000000
20.724226028000,-0.183000000000
20.731912801000,-0.183000000000
20.739599574000,-0.181000000000
20.747286347000,-0.181000000000
20.754973120000,-0.181000000000
20.762659893000,-0.181000000000
20.770346666000,-0.181000000000
20.778033439000,-0.178000000000
20.785720212000,-0.176000000000
20.793406985000,-0.173000000000
20.801093758000,-0.169000000000
20.808780531000,-0.166000000000
20.816467304000,-0.161000000000
20.824154077000,-0.159000000000
20.831840850000,-0.159000000000
20.839527623000,-0.161000000000
20.847214396000,-0.156000000000
20.854901169000,-0.139000000000
20.862587942000,-0.115000000000
20.870274715000,-0.097000000000
20.877961488000,-0.095000000000
20.885648261000,-0.090000000000
20.893335034000,-0.093000000000
20.901021807000,-0.122000000000
20.908708580000,-0.154000000000
20.916395353000,-0.151000000000
20.924082126000,-0.139000000000
20.931768899000,-0.134000000000
20.939455672000,-0.134000000000
20.947142445000,-0.129000000000
20.954829218000,-0.127000000000
20.962515991000,-0.122000000000
20.970202764000,-0.127000000000
20.977889537000,-0.151000000000
20.985576310000,-0.215000000000
20.993263083000,-0.284000000000
21.000949856000,-0.124000000000
21.008636629000,0.524000000000
21.016323402000,1.430000000000
21.024010175000,2.006000000000
21.031696948000,1.511000000000
21.039383721000,0.034000000000
21.047070494000,-0.729000000000
21.054757304000,-0.279000000000
21.062444356000,-0.051000000000
21.070131408000,-0.257000000000
21.077818460000,-0.213000000000
21.085505512000,-0.115000000000
21.093192564000,-0.161000000000
21.100879616000,-0.154000000000
21.108566668000,-0.097000000000
21.116253720000,-0.088000000000
21.123940772000,-0.078000000000
21.131627824000,-0.044000000000
21.139314876000,-0.019000000000
21.147001928000,0.000000000000
21.154688980000,0.031000000000
21.162376032000,0.063000000000
21.170063084000,0.093000000000
21.177750136000,0.124000000000
21.185437188000,0.156000000000
21.193124240000,0.188000000000
21.200811292000,0.213000000000
21.208498344000,0.225000000000
21.216185396000,0.230000000000
21.223872448000,0.227000000000
21.231559500000,0.215000000000
21.239246552000,0.195000000000
21.246933604000,0.176000000000
21.254620656000,0.146000000000
21.262307708000,0.097000000000
21.269994760000,0.036000000000
21.277681812000,-0.031000000000
21.285368864000,-0.105000000000
21.293055916000,-0.176000000000
21.300742968000,-0.232000000000
21.308430020000,-0.264000000000
21.316117072000,-0.279000000000
21.323804124000,-0.281000000000
21.331491176000,-0.279000000000
21.339178228000,-0.274000000000
21.346865280000,-0.262000000000
21.354552332000,-0.247000000000
21.362239384000,-0.232000000000
21.369926436000,-0.218000000000
21.377613488000,-0.213000000000
21.385300540000,-0.208000000000
21.392987592000,-0.200000000000
21.400674644000,-0.193000000000
21.408361696000,-0.188000000000
21.416048748000,-0.188000000000
21.423735800000,-0.188000000000
21.431422852000,-0.188000000000
21.439109904000,-0.183000000000
21.446796956000,-0.181000000000
21.454484008000,-0.181000000000
21.462171060000,-0.186000000000
21.469858112000,-0.186000000000
21.477545164000,-0.183000000000
21.485232216000,-0.178000000000
21.492919268000,-0.173000000000
21.500606320000,-0.173000000000
21.508293372000,-0.176000000000
21.515980424000,-0.171000000000
21.523667476000,-0.164000000000
21.531354528000,-0.156000000000
21.539041580000,-0.154000000000
21.546728632000,-0.156000000000
21.554415684000,-0.151000000000
21.562102736000,-0.132000000000
21.569789788000,-0.112000000000
21.577476840000,-0.100000000000
21.585163892000,-0.090000000000
21.592850944000,-0.090000000000
21.600537996000,-0.112000000000
21.608225048000,-0.149000000000
21.615912114000,-0.156000000000
21.623599235000,-0.139000000000
21.631286356000,-0.134000000000
21.638973477000,-0.139000000000
21.646660598000,-0.132000000000
21.654347719000,-0.124000000000
21.662034840000,-0.127000000000
21.669721961000,-0.124000000000
21.677409082000,-0.134000000000
21.685096203000,-0.181000000000
21.692783324000,-0.267000000000
21.700470445000,-0.235000000000
21.708157566000,0.222000000000
21.715844687000,1.068000000000
21.723531808000,1.807000000000
21.731218929000,1.768000000000
21.738906050000,0.558000000000
21.746593171000,-0.634000000000
21.754280292000,-0.494000000000
21.761967413000,-0.044000000000
21.769654534000,-0.173000000000
21.777341655000,-0.235000000000
21.785028776000,-0.107000000000
21.792715897000,-0.127000000000
21.800403018000,-0.159000000000
21.808090139000,-0.097000000000
21.815777260000,-0.073000000000
21.823464381000,-0.078000000000
21.831151502000,-0.039000000000
21.838838623000,0.002000000000
21.846525744000,0.019000000000
21.854212865000,0.044000000000
21.861899986000,0.075000000000
21.869587107000,0.097000000000
21.877274228000,0.132000000000
21.884961349000,0.173000000000
21.892648470000,0.198000000000
21.900335591000,0.220000000000
21.908022712000,0.247000000000
21.915709833000,0.254000000000
21.923396954000,0.249000000000
21.931084075000,0.247000000000
21.938771196000,0.225000000000
21.946458317000,0.198000000000
21.954145438000,0.178000000000
21.961832559000,0.137000000000
21.969519680000,0.071000000000
21.977206801000,0.002000000000
21.984893922000,-0.068000000000
21.992581043000,-0.144000000000
22.000268164000,-0.205000000000
22.007955285000,-0.252000000000
22.015642406000,-0.279000000000
22.023329527000,-0.276000000000
22.031016648000,-0.274000000000
22.038703769000,-0.279000000000
22.046390890000,-0.267000000000
22.054078011000,-0.247000000000
22.061765132000,-0.237000000000
22.069452253000,-0.230000000000
22.077139374000,-0.215000000000
22.084826495000,-0.205000000000
22.092513616000,-0.203000000000
22.100200737000,-0.193000000000
22.107887858000,-0.183000000000
22.115574979000,-0.188000000000
22.123262100000,-0.186000000000
22.130949221000,-0.176000000000
22.138636342000,-0.171000000000
22.146323463000,-0.178000000000
22.154010584000,-0.181000000000
22.161697705000,-0.176000000000
22.169384826000,-0.173000000000
22.177072011000,-0.173000000000
22.184758993000,-0.169000000000
22.192445975000,-0.166000000000
22.200132957000,-0.176000000000
22.207819939000,-0.171000000000
22.215506921000,-0.156000000000
22.223193903000,-0.164000000000
22.230880885000,-0.173000000000
22.238567867000,-0.161000000000
22.246254849000,-0.134000000000
22.253941831000,-0.115000000000
22.261628813000,-0.105000000000
22.269315795000,-0.097000000000
22.277002777000,-0.095000000000
22.284689759000,-0.107000000000
22.292376741000,-0.142000000000
22.300063723000,-0.161000000000
22.307750705000,-0.151000000000
22.315437687000,-0.139000000000
22.323124669000,-0.134000000000
22.330811651000,-0.132000000000
22.338498633000,-0.129000000000
22.346185615000,-0.124000000000
22.353872597000,-0.120000000000
22.361559579000,-0.132000000000
22.369246561000,-0.169000000000
22.376933543000,-0.235000000000
22.384620525000,-0.249000000000
22.392307507000,0.080000000000
22.399994489000,0.854000000000
22.407681471000,1.606000000000
22.415368453000,1.714000000000
22.423055435000,0.764000000000
22.430742417000,-0.467000000000
22.438429399000,-0.575000000000
22.446116381000,-0.102000000000
22.453803363000,-0.132000000000
22.461490345000,-0.230000000000
22.469177327000,-0.115000000000
22.476864309000,-0.097000000000
22.484551291000,-0.134000000000
22.492238273000,-0.085000000000
22.499925255000,-0.048000000000
22.507612237000,-0.053000000000
22.515299219000,-0.029000000000
22.522986201000,0.004000000000
22.530673183000,0.024000000000
22.538360165000,0.051000000000
22.546047147000,0.085000000000
22.553734129000,0.117000000000
22.561421111000,0.142000000000
22.569108093000,0.173000000000
22.576795075000,0.210000000000
22.584482057000,0.235000000000
22.592169039000,0.257000000000
22.599856021000,0.269000000000
22.607543003000,0.257000000000
22.615229985000,0.237000000000
22.622916967000,0.230000000000
22.630603949000,0.213000000000
22.638290931000,0.176000000000
22.645977913000,0.132000000000
22.653664895000,0.080000000000
22.661351877000,0.012000000000
22.669038859000,-0.068000000000
22.676725841000,-0.144000000000
22.684412823000,-0.210000000000
22.692099805000,-0.254000000000
22.699786787000,-0.274000000000
22.707473769000,-0.284000000000
22.715160751000,-0.286000000000
22.722847733000,-0.279000000000
22.730534715000,-0.271000000000
22.738221738000,-0.259000000000
22.745908581000,-0.244000000000
22.753595424000,-0.232000000000
22.761282267000,-0.222000000000
22.768969110000,-0.213000000000
22.776655953000,-0.208000000000
22.784342796000,-0.198000000000
22.792029639000,-0.191000000000
22.799716482000,-0.186000000000
22.807403325000,-0.186000000000
22.815090168000,-0.181000000000
22.822777011000,-0.181000000000
22.830463854000,-0.183000000000
22.838150697000,-0.181000000000
22.845837540000,-0.176000000000
22.853524383000,-0.176000000000
22.861211226000,-0.178000000000
22.868898069000,-0.178000000000
22.876584912000,-0.178000000000
22.884271755000,-0.173000000000
22.891958598000,-0.171000000000
22.899645441000,-0.166000000000
22.907332284000,-0.169000000000
22.915019127000,-0.178000000000
22.922705970000,-0.173000000000
22.930392813000,-0.156000000000
22.938079656000,-0.142000000000
22.945766499000,-0.132000000000
22.953453342000,-0.122000000000
22.961140185000,-0.107000000000
22.968827028000,-0.100000000000
22.976513871000,-0.117000000000
22.984200714000,-0.146000000000
22.991887557000,-0.156000000000
22.999574400000,-0.146000000000
23.007261243000,-0.144000000000
23.014948086000,-0.142000000000
23.022634929000,-0.137000000000
23.030321772000,-0.132000000000
23.038008615000,-0.127000000000
23.045695458000,-0.129000000000
23.053382301000,-0.151000000000
23.061069144000,-0.213000000000
23.068755987000,-0.274000000000
23.076442830000,-0.075000000000
23.084129673000,0.605000000000
23.091816516000,1.462000000000
23.099503359000,1.878000000000
23.107190202000,1.232000000000
23.114877045000,-0.164000000000
23.122563888000,-0.695000000000
23.130250731000,-0.218000000000
23.137937574000,-0.073000000000
23.145624417000,-0.249000000000
23.153311260000,-0.178000000000
23.160998103000,-0.107000000000
23.168684946000,-0.154000000000
23.176371789000,-0.132000000000
23.184058632000,-0.080000000000
23.191745475000,-0.078000000000
23.199432318000,-0.066000000000
23.207119161000,-0.031000000000
23.214806004000,-0.009000000000
23.222492847000,0.009000000000
23.230179690000,0.039000000000
23.237866533000,0.068000000000
23.245553376000,0.095000000000
23.253240219000,0.129000000000
23.260927062000,0.161000000000
23.268613905000,0.191000000000
23.276300748000,0.215000000000
23.283987591000,0.227000000000
23.291674434000,0.227000000000
23.299361287000,0.220000000000
23.307048408000,0.208000000000
23.314735529000,0.188000000000
23.322422650000,0.164000000000
23.330109771000,0.129000000000
23.337796892000,0.078000000000
23.345484013000,0.014000000000
23.353171134000,-0.056000000000
23.360858255000,-0.129000000000
23.368545376000,-0.195000000000
23.376232497000,-0.244000000000
23.383919618000,-0.271000000000
23.391606739000,-0.286000000000
23.399293860000,-0.289000000000
23.406980981000,-0.284000000000
23.414668102000,-0.274000000000
23.422355223000,-0.264000000000
23.430042344000,-0.252000000000
23.437729465000,-0.240000000000
23.445416586000,-0.227000000000
23.453103707000,-0.218000000000
23.460790828000,-0.208000000000
23.468477949000,-0.203000000000
23.476165070000,-0.198000000000
23.483852191000,-0.195000000000
23.491539312000,-0.195000000000
23.499226433000,-0.193000000000
23.506913554000,-0.191000000000
23.514600675000,-0.191000000000
23.522287796000,-0.191000000000
23.529974917000,-0.191000000000
23.537662038000,-0.191000000000
23.545349159000,-0.191000000000
23.553036280000,-0.188000000000
23.560723401000,-0.188000000000
23.568410522000,-0.186000000000
23.576097643000,-0.181000000000
23.583784764000,-0.178000000000
23.591471885000,-0.176000000000
23.599159006000,-0.173000000000
23.606846127000,-0.173000000000
23.614533248000,-0.178000000000
23.622220369000,-0.176000000000
23.629907490000,-0.164000000000
23.637594611000,-0.142000000000
23.645281732000,-0.127000000000
23.652968853000,-0.117000000000
23.660655974000,-0.107000000000
23.668343095000,-0.105000000000
23.676030216000,-0.122000000000
23.683717337000,-0.149000000000
23.691404458000,-0.156000000000
23.699091579000,-0.146000000000
23.706778700000,-0.142000000000
23.714465821000,-0.139000000000
23.722152942000,-0.134000000000
23.729840063000,-0.129000000000
23.737527184000,-0.124000000000
23.745214305000,-0.132000000000
23.752901426000,-0.161000000000
23.760588547000,-0.230000000000
23.768275668000,-0.276000000000
23.775962789000,-0.024000000000
23.783649910000,0.705000000000
23.791337031000,1.577000000000
23.799024152000,1.969000000000
23.806711273000,1.212000000000
23.814398394000,-0.247000000000
23.822085515000,-0.695000000000
23.829772636000,-0.181000000000
23.837459757000,-0.090000000000
23.845146878000,-0.276000000000
23.852833999000,-0.191000000000
23.860521184000,-0.124000000000
23.868208305000,-0.173000000000
23.875895426000,-0.146000000000
23.883582547000,-0.097000000000
23.891269668000,-0.095000000000
23.898956789000,-0.075000000000
23.906643910000,-0.041000000000
23.914331031000,-0.019000000000
23.922018152000,0.000000000000
23.929705273000,0.034000000000
23.937392394000,0.066000000000
23.945079515000,0.095000000000
23.952766636000,0.129000000000
23.960453757000,0.166000000000
23.968140878000,0.193000000000
23.975827999000,0.218000000000
23.983515120000,0.235000000000
23.991202241000,0.240000000000
23.998889362000,0.230000000000
24.006576483000,0.215000000000
24.014263604000,0.198000000000
24.021950725000,0.173000000000
24.029637846000,0.139000000000
24.037324967000,0.088000000000
24.045012088000,0.019000000000
24.052699209000,-0.053000000000
24.060386330000,-0.127000000000
24.068073451000,-0.195000000000
24.075760572000,-0.247000000000
24.083447693000,-0.276000000000
24.091134814000,-0.289000000000
24.098821935000,-0.291000000000
24.106509056000,-0.289000000000
24.114196177000,-0.279000000000
24.121883298000,-0.264000000000
24.129570419000,-0.252000000000
24.137257540000,-0.242000000000
24.144944661000,-0.230000000000
24.152631782000,-0.220000000000
24.160318903000,-0.213000000000
24.168006024000,-0.205000000000
24.175693145000,-0.200000000000
24.183380266000,-0.198000000000
24.191067387000,-0.195000000000
24.198754508000,-0.195000000000
24.206441629000,-0.195000000000
24.214128750000,-0.193000000000
24.221815871000,-0.193000000000
24.229502992000,-0.193000000000
24.237190113000,-0.191000000000
24.244877234000,-0.188000000000
24.252564355000,-0.188000000000
24.260251476000,-0.188000000000
24.267938597000,-0.186000000000
24.275625718000,-0.183000000000
24.283312839000,-0.178000000000
24.290999960000,-0.178000000000
24.298687081000,-0.181000000000
24.306374202000,-0.183000000000
24.314061323000,-0.181000000000
24.321748444000,-0.169000000000
24.329435565000,-0.146000000000
24.337122686000,-0.129000000000
24.344809807000,-0.122000000000
24.352496928000,-0.112000000000
24.360184049000,-0.110000000000
24.367871170000,-0.129000000000
24.375558291000,-0.156000000000
24.383245412000,-0.161000000000
24.390932533000,-0.149000000000
24.398619654000,-0.144000000000
24.406306775000,-0.142000000000
24.413993896000,-0.137000000000
24.421681085000,-0.132000000000
24.429367928000,-0.127000000000
24.437054771000,-0.134000000000
24.444741614000,-0.161000000000
24.452428457000,-0.230000000000
24.460115300000,-0.291000000000
24.467802143000,-0.066000000000
24.475488986000,0.654000000000
24.483175829000,1.548000000000
24.490862672000,1.998000000000
24.498549515000,1.308000000000
24.506236358000,-0.178000000000
24.513923201000,-0.717000000000
24.521610044000,-0.208000000000
24.529296887000,-0.080000000000
24.536983730000,-0.271000000000
24.544670573000,-0.198000000000
24.552357416000,-0.122000000000
24.560044259000,-0.171000000000
24.567731102000,-0.151000000000
24.575417945000,-0.100000000000
24.583104788000,-0.095000000000
24.590791631000,-0.078000000000
24.598478474000,-0.044000000000
24.606165317000,-0.022000000000
24.613852160000,0.000000000000
24.621539003000,0.034000000000
24.629225846000,0.066000000000
24.636912689000,0.095000000000
24.644599532000,0.132000000000
24.652286375000,0.166000000000
24.659973218000,0.198000000000
24.667660061000,0.222000000000
24.675346904000,0.237000000000
24.683033747000,0.240000000000
24.690720590000,0.235000000000
24.698407433000,0.222000000000
24.706094276000,0.203000000000
24.713781119000,0.181000000000
24.721467962000,0.144000000000
24.729154805000,0.090000000000
24.736841648000,0.024000000000
24.744528491000,-0.048000000000
24.752215334000,-0.127000000000
24.759902177000,-0.195000000000
24.767589020000,-0.244000000000
24.775275863000,-0.271000000000
24.782962706000,-0.286000000000
24.790649549000,-0.291000000000
24.798336392000,-0.289000000000
24.806023235000,-0.279000000000
24.813710078000,-0.264000000000
24.821396921000,-0.252000000000
24.829083764000,-0.242000000000
24.836770607000,-0.230000000000
24.844457450000,-0.220000000000
24.852144293000,-0.213000000000
24.859831136000,-0.205000000000
24.867517979000,-0.200000000000
24.875204822000,-0.195000000000
24.882891665000,-0.193000000000
24.890578508000,-0.193000000000
24.898265351000,-0.193000000000
24.905952194000,-0.193000000000
24.913639037000,-0.191000000000
24.921325880000,-0.188000000000
24.929012723000,-0.188000000000
24.936699566000,-0.188000000000
24.944386409000,-0.186000000000
24.952073252000,-0.186000000000
24.959760095000,-0.183000000000
24.967446938000,-0.181000000000
24.975133781000,-0.176000000000
24.982820638000,-0.173000000000
24.990507620000,-0.171000000000
24.998194602000,-0.169000000000
25.005881584000,-0.173000000000
25.013568566000,-0.173000000000
25.021255548000,-0.161000000000
25.028942530000,-0.144000000000
25.036629512000,-0.124000000000
25.044316494000,-0.115000000000
25.052003476000,-0.107000000000
25.059690458000,-0.102000000000
25.067377440000,-0.112000000000
25.075064422000,-0.144000000000
25.082751404000,-0.159000000000
25.090438386000,-0.146000000000
25.098125368000,-0.139000000000
25.105812350000,-0.139000000000
25.113499332000,-0.134000000000
25.121186314000,-0.132000000000
25.128873296000,-0.129000000000
25.136560278000,-0.127000000000
25.144247260000,-0.142000000000
25.151934242000,-0.191000000000
25.159621224000,-0.271000000000
25.167308206000,-0.220000000000
25.174995188000,0.271000000000
25.182682170000,1.143000000000
25.190369152000,1.891000000000
25.198056134000,1.793000000000
25.205743116000,0.489000000000
25.213430098000,-0.668000000000
25.221117080000,-0.458000000000
25.228804062000,-0.039000000000
25.236491044000,-0.200000000000
25.244178026000,-0.249000000000
25.251865008000,-0.120000000000
25.259551990000,-0.142000000000
25.267238972000,-0.164000000000
25.274925954000,-0.105000000000
25.282612936000,-0.083000000000
25.290299918000,-0.083000000000
25.297986900000,-0.051000000000
25.305673882000,-0.022000000000
25.313360864000,-0.004000000000
25.321047846000,0.024000000000
25.328734828000,0.056000000000
25.336421810000,0.085000000000
25.344108792000,0.120000000000
25.351795774000,0.154000000000
25.359482756000,0.186000000000
25.367169738000,0.215000000000
25.374856720000,0.235000000000
25.382543702000,0.242000000000
25.390230684000,0.242000000000
25.397917666000,0.232000000000
25.405604648000,0.215000000000
25.413291630000,0.193000000000
25.420978612000,0.166000000000
25.428665594000,0.124000000000
25.436352576000,0.063000000000
25.444039558000,-0.007000000000
25.451726540000,-0.083000000000
25.459413522000,-0.156000000000
25.467100504000,-0.218000000000
25.474787486000,-0.257000000000
25.482474468000,-0.279000000000
25.490161450000,-0.286000000000
25.497848432000,-0.286000000000
25.505535414000,-0.279000000000
25.513222396000,-0.267000000000
25.520909378000,-0.254000000000
25.528596360000,-0.242000000000
25.536283342000,-0.230000000000
25.543970361000,-0.222000000000
25.551657482000,-0.213000000000
25.559344603000,-0.203000000000
25.567031724000,-0.198000000000
25.574718845000,-0.193000000000
25.582405966000,-0.188000000000
25.590093087000,-0.188000000000
25.597780208000,-0.191000000000
25.605467329000,-0.186000000000
25.613154450000,-0.183000000000
25.620841571000,-0.186000000000
25.628528692000,-0.186000000000
25.636215813000,-0.183000000000
25.643902934000,-0.183000000000
25.651590055000,-0.181000000000
25.659277176000,-0.173000000000
25.666964297000,-0.173000000000
25.674651418000,-0.176000000000
25.682338539000,-0.171000000000
25.690025660000,-0.169000000000
25.697712781000,-0.166000000000
25.705399902000,-0.164000000000
25.713087023000,-0.164000000000
25.720774144000,-0.164000000000
25.728461265000,-0.154000000000
25.736148386000,-0.137000000000
25.743835507000,-0.115000000000
25.751522628000,-0.097000000000
25.759209749000,-0.093000000000
25.766896870000,-0.090000000000
25.774583991000,-0.100000000000
25.782271112000,-0.132000000000
25.789958233000,-0.159000000000
25.797645354000,-0.149000000000
25.805332475000,-0.134000000000
25.813019596000,-0.137000000000
25.820706717000,-0.132000000000
25.828393838000,-0.117000000000
25.836080959000,-0.115000000000
25.843768080000,-0.122000000000
25.851455201000,-0.137000000000
25.859142322000,-0.164000000000
25.866829443000,-0.232000000000
25.874516564000,-0.279000000000
25.882203685000,-0.019000000000
25.889890806000,0.727000000000
25.897577927000,1.604000000000
25.905265048000,1.940000000000
25.912952169000,1.099000000000
25.920639290000,-0.323000000000
25.928326411000,-0.656000000000
25.936013532000,-0.139000000000
25.943700653000,-0.095000000000
25.951387774000,-0.252000000000
25.959074895000,-0.151000000000
25.966762016000,-0.107000000000
25.974449137000,-0.154000000000
25.982136258000,-0.112000000000
25.989823379000,-0.063000000000
25.997510500000,-0.061000000000
26.005197621000,-0.044000000000
26.012884742000,-0.014000000000
26.020571863000,0.000000000000
26.028258984000,0.019000000000
26.035946105000,0.058000000000
26.043633226000,0.100000000000
26.051320347000,0.129000000000
26.059007468000,0.161000000000
26.066694589000,0.198000000000
26.074381710000,0.227000000000
26.082068831000,0.244000000000
26.089755952000,0.254000000000
26.097443073000,0.259000000000
26.105130258000,0.257000000000
26.112817310000,0.240000000000
26.120504362000,0.222000000000
26.128191414000,0.210000000000
26.135878466000,0.169000000000
26.143565518000,0.097000000000
26.151252570000,0.036000000000
26.158939622000,-0.026000000000
26.166626674000,-0.110000000000
26.174313726000,-0.186000000000
26.182000778000,-0.235000000000
26.189687830000,-0.264000000000
26.197374882000,-0.276000000000
26.205061934000,-0.279000000000
26.212748986000,-0.276000000000
26.220436038000,-0.269000000000
26.228123090000,-0.249000000000
26.235810142000,-0.237000000000
26.243497194000,-0.232000000000
26.251184246000,-0.218000000000
26.258871298000,-0.200000000000
26.266558350000,-0.191000000000
26.274245402000,-0.191000000000
26.281932454000,-0.191000000000
26.289619506000,-0.183000000000
26.297306558000,-0.181000000000
26.304993610000,-0.178000000000
26.312680662000,-0.171000000000
26.320367714000,-0.166000000000
26.328054766000,-0.171000000000
26.335741818000,-0.171000000000
26.343428870000,-0.171000000000
26.351115922000,-0.171000000000
26.358802974000,-0.173000000000
26.366490026000,-0.171000000000
26.374177078000,-0.164000000000
26.381864130000,-0.161000000000
26.389551182000,-0.164000000000
26.397238234000,-0.159000000000
26.404925286000,-0.154000000000
26.412612338000,-0.159000000000
26.420299390000,-0.156000000000
26.427986442000,-0.149000000000
26.435673494000,-0.132000000000
26.443360546000,-0.112000000000
26.451047598000,-0.102000000000
26.458734650000,-0.097000000000
26.466421702000,-0.093000000000
26.474108754000,-0.107000000000
26.481795806000,-0.134000000000
26.489482858000,-0.142000000000
26.497169910000,-0.132000000000
26.504856962000,-0.137000000000
26.512544014000,-0.134000000000
26.520231066000,-0.122000000000
26.527918118000,-0.124000000000
26.535605170000,-0.124000000000
26.543292222000,-0.117000000000
26.550979274000,-0.129000000000
26.558666326000,-0.169000000000
26.566353378000,-0.235000000000
26.574040430000,-0.215000000000
26.581727482000,0.205000000000
26.589414534000,1.016000000000
26.597101586000,1.695000000000
26.604788638000,1.624000000000
26.612475690000,0.504000000000
26.620162742000,-0.597000000000
26.627849794000,-0.475000000000
26.635536846000,-0.056000000000
26.643223898000,-0.171000000000
26.650910950000,-0.218000000000
26.658598002000,-0.090000000000
26.666285072000,-0.107000000000
26.673971845000,-0.134000000000
26.681658618000,-0.071000000000
26.689345391000,-0.041000000000
26.697032164000,-0.046000000000
26.704718937000,-0.022000000000
26.712405710000,0.009000000000
26.720092483000,0.029000000000
26.727779256000,0.051000000000
26.735466029000,0.088000000000
26.743152802000,0.124000000000
26.750839575000,0.151000000000
26.758526348000,0.178000000000
26.766213121000,0.218000000000
26.773899894000,0.254000000000
26.781586667000,0.271000000000
26.789273440000,0.271000000000
26.796960213000,0.267000000000
26.804646986000,0.257000000000
26.812333759000,0.237000000000
26.820020532000,0.210000000000
26.827707305000,0.181000000000
26.835394078000,0.134000000000
26.843080851000,0.066000000000
26.850767624000,-0.004000000000
26.858454397000,-0.073000000000
26.866141170000,-0.146000000000
26.873827943000,-0.213000000000
26.881514716000,-0.257000000000
26.889201489000,-0.281000000000
26.896888262000,-0.293000000000
26.904575035000,-0.286000000000
26.912261808000,-0.276000000000
26.919948581000,-0.274000000000
26.927635354000,-0.267000000000
26.935322127000,-0.252000000000
26.943008900000,-0.235000000000
26.950695673000,-0.222000000000
26.958382446000,-0.213000000000
26.966069219000,-0.208000000000
26.973755992000,-0.198000000000
26.981442765000,-0.188000000000
26.989129538000,-0.191000000000
26.996816311000,-0.191000000000
27.004503084000,-0.181000000000
27.012189857000,-0.173000000000
27.019876630000,-0.176000000000
27.027563403000,-0.176000000000
27.035250176000,-0.178000000000
27.042936949000,-0.178000000000
27.050623722000,-0.178000000000
27.058310495000,-0.178000000000
27.065997268000,-0.176000000000
27.073684041000,-0.173000000000
27.081370814000,-0.171000000000
27.089057587000,-0.166000000000
27.096744360000,-0.169000000000
27.104431133000,-0.176000000000
27.112117906000,-0.171000000000
27.119804679000,-0.156000000000
27.127491452000,-0.142000000000
27.135178225000,-0.127000000000
27.142864998000,-0.124000000000
27.150551771000,-0.112000000000
27.158238544000,-0.102000000000
27.165925317000,-0.124000000000
27.173612090000,-0.156000000000
27.181298863000,-0.156000000000
27.188985636000,-0.144000000000
27.196672409000,-0.144000000000
27.204359182000,-0.142000000000
27.212045955000,-0.132000000000
27.219732728000,-0.132000000000
27.227419534000,-0.134000000000
27.235107701000,-0.139000000000
27.242795868000,-0.164000000000
27.250484035000,-0.230000000000
27.258172202000,-0.276000000000
27.265860369000,-0.026000000000
27.273548536000,0.693000000000
27.281236703000,1.523000000000
27.288924870000,1.839000000000
27.296613037000,1.070000000000
27.304301204000,-0.306000000000
27.311989371000,-0.683000000000
27.319677538000,-0.173000000000
27.327365705000,-0.100000000000
27.335053872000,-0.259000000000
27.342742039000,-0.166000000000
27.350430206000,-0.115000000000
27.358118373000,-0.164000000000
27.365806540000,-0.129000000000
27.373494707000,-0.083000000000
27.381182874000,-0.083000000000
27.388871041000,-0.066000000000
27.396559208000,-0.031000000000
27.404247375000,-0.012000000000
27.411935542000,0.009000000000
27.419623709000,0.039000000000
27.427311876000,0.068000000000
27.435000043000,0.097000000000
27.442688210000,0.132000000000
27.450376377000,0.164000000000
27.458064544000,0.191000000000
27.465752711000,0.215000000000
27.473440878000,0.227000000000
27.481129045000,0.230000000000
27.488817212000,0.222000000000
27.496505379000,0.208000000000
27.504193546000,0.186000000000
27.511881713000,0.161000000000
27.519569880000,0.127000000000
27.527258047000,0.075000000000
27.534946214000,0.009000000000
27.542634381000,-0.063000000000
27.550322548000,-0.134000000000
27.558010715000,-0.200000000000
27.565698882000,-0.247000000000
27.573387049000,-0.271000000000
27.581075216000,-0.284000000000
27.588763383000,-0.286000000000
27.596451550000,-0.281000000000
27.604139717000,-0.271000000000
27.611827884000,-0.262000000000
27.619516051000,-0.249000000000
27.627204218000,-0.237000000000
27.634892385000,-0.222000000000
27.642580552000,-0.210000000000
27.650268719000,-0.205000000000
27.657956886000,-0.198000000000
27.665645053000,-0.193000000000
27.673333220000,-0.191000000000
27.681021387000,-0.186000000000
27.688709554000,-0.186000000000
27.696397721000,-0.186000000000
27.704085888000,-0.186000000000
27.711774055000,-0.183000000000
27.719462222000,-0.181000000000
27.727150389000,-0.181000000000
27.734838556000,-0.181000000000
27.742526723000,-0.178000000000
27.750214890000,-0.178000000000
27.757903057000,-0.176000000000
27.765591224000,-0.173000000000
27.773279391000,-0.171000000000
27.780967558000,-0.166000000000
27.788655730000,-0.161000000000
27.796341806000,-0.164000000000
27.804027882000,-0.171000000000
27.811713958000,-0.169000000000
27.819400034000,-0.154000000000
27.827086110000,-0.137000000000
27.834772186000,-0.122000000000
27.842458262000,-0.115000000000
27.850144338000,-0.102000000000
27.857830414000,-0.095000000000
27.865516490000,-0.115000000000
27.873202566000,-0.146000000000
27.880888642000,-0.154000000000
27.888574718000,-0.142000000000
27.896260794000,-0.137000000000
27.903946870000,-0.134000000000
27.911632946000,-0.129000000000
27.919319022000,-0.124000000000
27.927005098000,-0.122000000000
27.934691174000,-0.124000000000
27.942377250000,-0.144000000000
27.950063326000,-0.208000000000
27.957749402000,-0.276000000000
27.965435478000,-0.102000000000
27.973121554000,0.551000000000
27.980807630000,1.432000000000
27.988493706000,1.962000000000
27.996179782000,1.445000000000
28.003865858000,0.000000000000
28.011551934000,-0.717000000000
28.019238010000,-0.264000000000
28.026924086000,-0.046000000000
28.034610162000,-0.249000000000
28.042296238000,-0.208000000000
28.049982314000,-0.110000000000
28.057668390000,-0.154000000000
28.065354466000,-0.146000000000
28.073040542000,-0.090000000000
28.080726618000,-0.083000000000
28.088412694000,-0.073000000000
28.096098770000,-0.036000000000
28.103784846000,-0.014000000000
28.111470922000,0.004000000000
28.119156998000,0.036000000000
28.126843074000,0.066000000000
28.134529150000,0.095000000000
28.142215226000,0.129000000000
28.149901302000,0.164000000000
28.157587378000,0.195000000000
28.165273454000,0.220000000000
28.172959530000,0.240000000000
28.180645606000,0.244000000000
28.188331682000,0.240000000000
28.196017758000,0.230000000000
28.203703834000,0.213000000000
28.211389910000,0.188000000000
28.219075986000,0.156000000000
28.226762062000,0.107000000000
28.234448138000,0.046000000000
28.242134214000,-0.026000000000
28.249820290000,-0.102000000000
28.257506366000,-0.176000000000
28.265192442000,-0.232000000000
28.272878518000,-0.267000000000
28.280564594000,-0.281000000000
28.288250670000,-0.286000000000
28.295936746000,-0.281000000000
28.303622822000,-0.274000000000
28.311308898000,-0.262000000000
28.318994974000,-0.249000000000
28.326681050000,-0.237000000000
28.334367126000,-0.225000000000
28.342053202000,-0.213000000000
28.349739332000,-0.205000000000
28.357426662000,-0.198000000000
28.365113992000,-0.193000000000
28.372801322000,-0.188000000000
28.380488652000,-0.186000000000
28.388175982000,-0.186000000000
28.395863312000,-0.186000000000
28.403550642000,-0.186000000000
28.411237972000,-0.186000000000
28.418925302000,-0.186000000000
28.426612632000,-0.186000000000
28.434299962000,-0.183000000000
28.441987292000,-0.181000000000
28.449674622000,-0.178000000000
28.457361952000,-0.178000000000
28.465049282000,-0.173000000000
28.472736612000,-0.171000000000
28.480423942000,-0.166000000000
28.488111272000,-0.164000000000
28.495798602000,-0.164000000000
28.503485932000,-0.166000000000
28.511173262000,-0.169000000000
28.518860592000,-0.159000000000
28.526547922000,-0.144000000000
28.534235252000,-0.127000000000
28.541922582000,-0.112000000000
28.549609912000,-0.102000000000
28.557297242000,-0.095000000000
28.564984572000,-0.100000000000
28.572671902000,-0.127000000000
28.580359232000,-0.151000000000
28.588046562000,-0.142000000000
28.595733892000,-0.132000000000
28.603421222000,-0.134000000000
28.611108552000,-0.129000000000
28.618795882000,-0.122000000000
28.626483212000,-0.120000000000
28.634170542000,-0.120000000000
28.641857872000,-0.129000000000
28.649545202000,-0.169000000000
28.657232532000,-0.249000000000
28.664919862000,-0.259000000000
28.672607192000,0.115000000000
28.680294522000,0.940000000000
28.687981852000,1.778000000000
28.695669182000,1.942000000000
28.703356512000,0.869000000000
28.711043842000,-0.502000000000
28.718731172000,-0.585000000000
28.726418502000,-0.075000000000
28.734105832000,-0.144000000000
28.741793162000,-0.269000000000
28.749480492000,-0.144000000000
28.757167822000,-0.127000000000
28.764855152000,-0.169000000000
28.772542482000,-0.122000000000
28.780229812000,-0.085000000000
28.787917142000,-0.085000000000
28.795604472000,-0.061000000000
28.803291802000,-0.026000000000
28.810979132000,-0.007000000000
28.818666462000,0.017000000000
28.826353792000,0.051000000000
28.834041122000,0.080000000000
28.841728452000,0.112000000000
28.849415782000,0.146000000000
28.857103112000,0.178000000000
28.864790442000,0.208000000000
28.872477772000,0.230000000000
28.880165102000,0.244000000000
28.887852432000,0.247000000000
28.895539762000,0.240000000000
28.903227092000,0.222000000000
28.910914488000,0.203000000000
28.918601261000,0.178000000000
28.926288034000,0.139000000000
28.933974807000,0.083000000000
28.941661580000,0.014000000000
28.949348353000,-0.061000000000
28.957035126000,-0.134000000000
28.964721899000,-0.198000000000
28.972408672000,-0.244000000000
28.980095445000,-0.274000000000
28.987782218000,-0.284000000000
28.995468991000,-0.284000000000
29.003155764000,-0.279000000000
29.010842537000,-0.269000000000
29.018529310000,-0.254000000000
29.026216083000,-0.244000000000
29.033902856000,-0.235000000000
29.041589629000,-0.222000000000
29.049276402000,-0.210000000000
29.056963175000,-0.208000000000
29.064649948000,-0.200000000000
29.072336721000,-0.188000000000
29.080023494000,-0.186000000000
29.087710267000,-0.193000000000
29.095397040000,-0.191000000000
29.103083813000,-0.178000000000
29.110770586000,-0.178000000000
29.118457359000,-0.181000000000
29.126144132000,-0.183000000000
29.133830905000,-0.186000000000
29.141517678000,-0.183000000000
29.149204451000,-0.178000000000
29.156891224000,-0.176000000000
29.164577997000,-0.173000000000
29.172264770000,-0.169000000000
29.179951543000,-0.166000000000
29.187638316000,-0.161000000000
29.195325089000,-0.161000000000
29.203011862000,-0.164000000000
29.210698635000,-0.164000000000
29.218385408000,-0.164000000000
29.226072181000,-0.151000000000
29.233758954000,-0.129000000000
29.241445727000,-0.107000000000
29.249132500000,-0.100000000000
29.256819273000,-0.097000000000
29.264506046000,-0.100000000000
29.272192819000,-0.124000000000
29.279879592000,-0.149000000000
29.287566365000,-0.144000000000
29.295253138000,-0.132000000000
29.302939911000,-0.129000000000
29.310626684000,-0.129000000000
29.318313457000,-0.120000000000
29.326000230000,-0.117000000000
29.333687003000,-0.122000000000
29.341373776000,-0.124000000000
29.349060549000,-0.149000000000
