time,LSB
0.000000000000,-0.199000000000
0.007687121000,-0.199000000000
0.015374242000,-0.194000000000
0.023061363000,-0.187000000000
0.030748484000,-0.189000000000
0.038435605000,-0.196000000000
0.046122726000,-0.194000000000
0.053809847000,-0.189000000000
0.061496968000,-0.184000000000
0.069184089000,-0.179000000000
0.076871210000,-0.177000000000
0.084558331000,-0.177000000000
0.092245452000,-0.174000000000
0.099932573000,-0.164000000000
0.107619694000,-0.162000000000
0.115306815000,-0.169000000000
0.122993936000,-0.179000000000
0.130681057000,-0.174000000000
0.138368178000,-0.155000000000
0.146055299000,-0.132000000000
0.153742420000,-0.125000000000
0.161429541000,-0.120000000000
0.169116662000,-0.113000000000
0.176803783000,-0.110000000000
0.184490904000,-0.132000000000
0.192178025000,-0.164000000000
0.199865146000,-0.172000000000
0.207552267000,-0.160000000000
0.215239388000,-0.157000000000
0.222926509000,-0.157000000000
0.230613630000,-0.145000000000
0.238300751000,-0.140000000000
0.245987872000,-0.160000000000
0.253674993000,-0.206000000000
0.261362114000,-0.290000000000
0.269049235000,-0.251000000000
0.276736356000,0.292000000000
0.284423477000,1.225000000000
0.292110666000,1.809000000000
0.299797787000,1.378000000000
0.307484908000,0.068000000000
0.315172029000,-0.731000000000
0.322859150000,-0.401000000000
0.330546271000,-0.130000000000
0.338233392000,-0.292000000000
0.345920513000,-0.285000000000
0.353607634000,-0.177000000000
0.361294755000,-0.199000000000
0.368981876000,-0.199000000000
0.376668997000,-0.140000000000
0.384356118000,-0.130000000000
0.392043239000,-0.128000000000
0.399730360000,-0.096000000000
0.407417481000,-0.068000000000
0.415104602000,-0.054000000000
0.422791723000,-0.029000000000
0.430478844000,-0.002000000000
0.438165965000,0.027000000000
0.445853086000,0.056000000000
0.453540207000,0.083000000000
0.461227328000,0.120000000000
0.468914449000,0.164000000000
0.476601570000,0.201000000000
0.484288691000,0.241000000000
0.491975812000,0.273000000000
0.499662933000,0.283000000000
0.507350054000,0.273000000000
0.515037175000,0.260000000000
0.522724296000,0.243000000000
0.530411417000,0.206000000000
0.538098538000,0.142000000000
0.545785659000,0.046000000000
0.553472780000,-0.066000000000
0.561159901000,-0.169000000000
0.568847022000,-0.246000000000
0.576534143000,-0.288000000000
0.584221264000,-0.307000000000
0.591908385000,-0.324000000000
0.599595506000,-0.329000000000
0.607282627000,-0.312000000000
0.614969748000,-0.295000000000
0.622656869000,-0.288000000000
0.630343990000,-0.278000000000
0.638031111000,-0.260000000000
0.645718232000,-0.243000000000
0.653405353000,-0.233000000000
0.661092474000,-0.228000000000
0.668779595000,-0.221000000000
0.676466716000,-0.209000000000
0.684153837000,-0.201000000000
0.691840958000,-0.206000000000
0.699528079000,-0.206000000000
0.707215200000,-0.199000000000
0.714902321000,-0.199000000000
0.722589442000,-0.199000000000
0.730276563000,-0.194000000000
0.737963684000,-0.196000000000
0.745650805000,-0.194000000000
0.753337926000,-0.187000000000
0.761025047000,-0.189000000000
0.768712168000,-0.194000000000
0.776399289000,-0.192000000000
0.784086410000,-0.184000000000
0.791773531000,-0.177000000000
0.799460652000,-0.172000000000
0.807147773000,-0.172000000000
0.814834894000,-0.167000000000
0.822522015000,-0.164000000000
0.830209136000,-0.162000000000
0.837896257000,-0.162000000000
0.845583378000,-0.169000000000
0.853270563000,-0.177000000000
0.860957684000,-0.152000000000
0.868644805000,-0.110000000000
0.876331926000,-0.108000000000
0.884019047000,-0.123000000000
0.891706168000,-0.105000000000
0.899393289000,-0.105000000000
0.907080410000,-0.135000000000
0.914767531000,-0.164000000000
0.922454652000,-0.162000000000
0.930141773000,-0.147000000000
0.937828894000,-0.150000000000
0.945516015000,-0.152000000000
0.953203136000,-0.135000000000
0.960890257000,-0.132000000000
0.968577378000,-0.164000000000
0.976264499000,-0.214000000000
0.983951620000,-0.288000000000
0.991638741000,-0.194000000000
0.999325862000,0.438000000000
1.007012983000,1.351000000000
1.014700104000,1.737000000000
1.022387225000,1.075000000000
1.030074346000,-0.192000000000
1.037761467000,-0.691000000000
1.045448588000,-0.285000000000
1.053135709000,-0.135000000000
1.060822830000,-0.285000000000
1.068509951000,-0.224000000000
1.076197072000,-0.142000000000
1.083884193000,-0.174000000000
1.091571314000,-0.162000000000
1.099258435000,-0.120000000000
1.106945556000,-0.113000000000
1.114632677000,-0.088000000000
1.122319798000,-0.049000000000
1.130006919000,-0.036000000000
1.137694040000,-0.027000000000
1.145381161000,0.000000000000
1.153068282000,0.034000000000
1.160755403000,0.068000000000
1.168442524000,0.096000000000
1.176129645000,0.132000000000
1.183816766000,0.172000000000
1.191503887000,0.206000000000
1.199191008000,0.260000000000
1.206878129000,0.307000000000
1.214565250000,0.332000000000
1.222252371000,0.344000000000
1.229939492000,0.342000000000
1.237626613000,0.327000000000
1.245313734000,0.290000000000
1.253000855000,0.246000000000
1.260687976000,0.182000000000
1.268375097000,0.068000000000
1.276062218000,-0.064000000000
1.283749339000,-0.169000000000
1.291436460000,-0.241000000000
1.299123581000,-0.292000000000
1.306810702000,-0.320000000000
1.314497823000,-0.324000000000
1.322184944000,-0.324000000000
1.329872065000,-0.320000000000
1.337559186000,-0.300000000000
1.345246307000,-0.280000000000
1.352933428000,-0.273000000000
1.360620549000,-0.263000000000
1.368307670000,-0.236000000000
1.375994791000,-0.219000000000
1.383681912000,-0.216000000000
1.391369033000,-0.206000000000
1.399056154000,-0.201000000000
1.406743275000,-0.206000000000
1.414430460000,-0.192000000000
1.422117442000,-0.189000000000
1.429804424000,-0.196000000000
1.437491406000,-0.179000000000
1.445178388000,-0.169000000000
1.452865370000,-0.184000000000
1.460552352000,-0.187000000000
1.468239334000,-0.179000000000
1.475926316000,-0.189000000000
1.483613298000,-0.194000000000
1.491300280000,-0.179000000000
1.498987262000,-0.164000000000
1.506674244000,-0.167000000000
1.514361226000,-0.174000000000
1.522048208000,-0.172000000000
1.529735190000,-0.169000000000
1.537422172000,-0.169000000000
1.545109154000,-0.169000000000
1.552796136000,-0.162000000000
1.560483118000,-0.135000000000
1.568170100000,-0.103000000000
1.575857082000,-0.108000000000
1.583544064000,-0.128000000000
1.591231046000,-0.123000000000
1.598918028000,-0.118000000000
1.606605010000,-0.140000000000
1.614291992000,-0.162000000000
1.621978974000,-0.169000000000
1.629665956000,-0.169000000000
1.637352938000,-0.162000000000
1.645039920000,-0.152000000000
1.652726902000,-0.142000000000
1.660413884000,-0.142000000000
1.668100866000,-0.162000000000
1.675787848000,-0.201000000000
1.683474830000,-0.273000000000
1.691161812000,-0.108000000000
1.698848794000,0.598000000000
1.706535776000,1.349000000000
1.714222758000,1.393000000000
1.721909740000,0.622000000000
1.729596722000,-0.371000000000
1.737283704000,-0.610000000000
1.744970686000,-0.256000000000
1.752657668000,-0.172000000000
1.760344650000,-0.246000000000
1.768031632000,-0.172000000000
1.775718614000,-0.137000000000
1.783405596000,-0.162000000000
1.791092578000,-0.132000000000
1.798779560000,-0.096000000000
1.806466542000,-0.078000000000
1.814153524000,-0.054000000000
1.821840506000,-0.024000000000
1.829527488000,-0.012000000000
1.837214470000,-0.002000000000
1.844901452000,0.029000000000
1.852588434000,0.054000000000
1.860275416000,0.073000000000
1.867962398000,0.123000000000
1.875649380000,0.174000000000
1.883336362000,0.211000000000
1.891023344000,0.253000000000
1.898710326000,0.310000000000
1.906397308000,0.347000000000
1.914084290000,0.349000000000
1.921771272000,0.349000000000
1.929458254000,0.347000000000
1.937145236000,0.327000000000
1.944832218000,0.295000000000
1.952519200000,0.236000000000
1.960206182000,0.142000000000
1.967893164000,0.019000000000
1.975580187000,-0.103000000000
1.983267030000,-0.209000000000
1.990953873000,-0.273000000000
1.998640716000,-0.307000000000
2.006327559000,-0.320000000000
2.014014402000,-0.317000000000
2.021701245000,-0.322000000000
2.029388088000,-0.315000000000
2.037074931000,-0.292000000000
2.044761774000,-0.290000000000
2.052448617000,-0.285000000000
2.060135460000,-0.263000000000
2.067822303000,-0.243000000000
2.075509146000,-0.224000000000
2.083195989000,-0.211000000000
2.090882832000,-0.206000000000
2.098569675000,-0.201000000000
2.106256518000,-0.196000000000
2.113943361000,-0.189000000000
2.121630204000,-0.179000000000
2.129317047000,-0.177000000000
2.137003890000,-0.174000000000
2.144690733000,-0.174000000000
2.152377576000,-0.182000000000
2.160064419000,-0.187000000000
2.167751262000,-0.182000000000
2.175438105000,-0.187000000000
2.183124948000,-0.187000000000
2.190811791000,-0.177000000000
2.198498634000,-0.179000000000
2.206185477000,-0.179000000000
2.213872320000,-0.177000000000
2.221559163000,-0.187000000000
2.229246006000,-0.184000000000
2.236932849000,-0.155000000000
2.244619692000,-0.137000000000
2.252306535000,-0.137000000000
2.259993378000,-0.130000000000
2.267680221000,-0.130000000000
2.275367064000,-0.162000000000
2.283053907000,-0.187000000000
2.290740750000,-0.184000000000
2.298427593000,-0.177000000000
2.306114436000,-0.184000000000
2.313801279000,-0.194000000000
2.321488122000,-0.184000000000
2.329174965000,-0.169000000000
2.336861808000,-0.172000000000
2.344548651000,-0.196000000000
2.352235494000,-0.253000000000
2.359922337000,-0.315000000000
2.367609180000,-0.103000000000
2.375296023000,0.652000000000
2.382982866000,1.413000000000
2.390669709000,1.413000000000
2.398356552000,0.588000000000
2.406043395000,-0.398000000000
2.413730238000,-0.620000000000
2.421417081000,-0.295000000000
2.429103924000,-0.236000000000
2.436790767000,-0.295000000000
2.444477610000,-0.211000000000
2.452164453000,-0.177000000000
2.459851296000,-0.204000000000
2.467538139000,-0.179000000000
2.475224982000,-0.142000000000
2.482911825000,-0.130000000000
2.490598668000,-0.110000000000
2.498285511000,-0.088000000000
2.505972354000,-0.073000000000
2.513659197000,-0.046000000000
2.521346040000,-0.019000000000
2.529032883000,0.000000000000
2.536719736000,0.024000000000
2.544406857000,0.056000000000
2.552093978000,0.098000000000
2.559781099000,0.137000000000
2.567468220000,0.172000000000
2.575155341000,0.209000000000
2.582842462000,0.248000000000
2.590529583000,0.265000000000
2.598216704000,0.260000000000
2.605903825000,0.251000000000
2.613590946000,0.231000000000
2.621278067000,0.201000000000
2.628965188000,0.157000000000
2.636652309000,0.073000000000
2.644339430000,-0.044000000000
2.652026551000,-0.155000000000
2.659713672000,-0.233000000000
2.667400793000,-0.285000000000
2.675087914000,-0.317000000000
2.682775035000,-0.339000000000
2.690462156000,-0.344000000000
2.698149277000,-0.334000000000
2.705836398000,-0.320000000000
2.713523519000,-0.305000000000
2.721210640000,-0.290000000000
2.728897761000,-0.278000000000
2.736584882000,-0.268000000000
2.744272003000,-0.253000000000
2.751959124000,-0.238000000000
2.759646245000,-0.231000000000
2.767333366000,-0.226000000000
2.775020487000,-0.211000000000
2.782707608000,-0.201000000000
2.790394729000,-0.206000000000
2.798081850000,-0.204000000000
2.805768971000,-0.192000000000
2.813456092000,-0.196000000000
2.821143213000,-0.201000000000
2.828830334000,-0.199000000000
2.836517455000,-0.199000000000
2.844204576000,-0.194000000000
2.851891697000,-0.189000000000
2.859578818000,-0.192000000000
2.867265939000,-0.196000000000
2.874953060000,-0.189000000000
2.882640181000,-0.179000000000
2.890327302000,-0.182000000000
2.898014423000,-0.184000000000
2.905701544000,-0.187000000000
2.913388665000,-0.194000000000
2.921075786000,-0.189000000000
2.928762907000,-0.162000000000
2.936450028000,-0.135000000000
2.944137149000,-0.135000000000
2.951824270000,-0.145000000000
2.959511391000,-0.132000000000
2.967198512000,-0.125000000000
2.974885633000,-0.155000000000
2.982572754000,-0.182000000000
2.990259875000,-0.179000000000
2.997946996000,-0.177000000000
3.005634117000,-0.179000000000
3.013321238000,-0.167000000000
3.021008359000,-0.157000000000
3.028695480000,-0.160000000000
3.036382601000,-0.172000000000
3.044069722000,-0.211000000000
3.051756843000,-0.288000000000
3.059443964000,-0.216000000000
3.067131085000,0.344000000000
3.074818206000,1.189000000000
3.082505327000,1.624000000000
3.090192448000,1.196000000000
3.097879633000,0.051000000000
3.105566754000,-0.674000000000
3.113253875000,-0.408000000000
3.120940996000,-0.140000000000
3.128628117000,-0.275000000000
3.136315238000,-0.285000000000
3.144002359000,-0.182000000000
3.151689480000,-0.189000000000
3.159376601000,-0.189000000000
3.167063722000,-0.145000000000
3.174750843000,-0.130000000000
3.182437964000,-0.118000000000
3.190125085000,-0.088000000000
3.197812206000,-0.073000000000
3.205499327000,-0.064000000000
3.213186448000,-0.034000000000
3.220873569000,-0.004000000000
3.228560690000,0.014000000000
3.236247811000,0.049000000000
3.243934932000,0.088000000000
3.251622053000,0.125000000000
3.259309174000,0.162000000000
3.266996295000,0.199000000000
3.274683416000,0.243000000000
3.282370537000,0.275000000000
3.290057658000,0.283000000000
3.297744779000,0.275000000000
3.305431900000,0.265000000000
3.313119021000,0.253000000000
3.320806142000,0.221000000000
3.328493263000,0.152000000000
3.336180384000,0.049000000000
3.343867505000,-0.071000000000
3.351554626000,-0.177000000000
3.359241747000,-0.246000000000
3.366928868000,-0.290000000000
3.374615989000,-0.317000000000
3.382303110000,-0.324000000000
3.389990231000,-0.315000000000
3.397677352000,-0.307000000000
3.405364473000,-0.292000000000
3.413051594000,-0.275000000000
3.420738715000,-0.268000000000
3.428425836000,-0.258000000000
3.436112957000,-0.243000000000
3.443800078000,-0.236000000000
3.451487199000,-0.226000000000
3.459174320000,-0.216000000000
3.466861441000,-0.216000000000
3.474548562000,-0.211000000000
3.482235683000,-0.199000000000
3.489922804000,-0.196000000000
3.497609925000,-0.201000000000
3.505297046000,-0.204000000000
3.512984167000,-0.206000000000
3.520671288000,-0.201000000000
3.528358409000,-0.192000000000
3.536045530000,-0.192000000000
3.543732651000,-0.192000000000
3.551419772000,-0.184000000000
3.559106893000,-0.182000000000
3.566794014000,-0.182000000000
3.574481135000,-0.179000000000
3.582168256000,-0.172000000000
3.589855377000,-0.167000000000
3.597542498000,-0.167000000000
3.605229619000,-0.169000000000
3.612916740000,-0.174000000000
3.620603861000,-0.167000000000
3.628290982000,-0.135000000000
3.635978103000,-0.115000000000
3.643665224000,-0.128000000000
3.651352345000,-0.125000000000
3.659039534000,-0.110000000000
3.666726655000,-0.125000000000
3.674413776000,-0.160000000000
3.682100897000,-0.174000000000
3.689788018000,-0.164000000000
3.697475139000,-0.157000000000
3.705162260000,-0.157000000000
3.712849381000,-0.152000000000
3.720536502000,-0.147000000000
3.728223623000,-0.150000000000
3.735910744000,-0.164000000000
3.743597865000,-0.211000000000
3.751284986000,-0.285000000000
3.758972107000,-0.147000000000
3.766659228000,0.504000000000
3.774346349000,1.331000000000
3.782033470000,1.646000000000
3.789720591000,1.043000000000
3.797407712000,-0.167000000000
3.805094833000,-0.708000000000
3.812781954000,-0.320000000000
3.820469075000,-0.140000000000
3.828156196000,-0.295000000000
3.835843317000,-0.251000000000
3.843530438000,-0.160000000000
3.851217559000,-0.189000000000
3.858904680000,-0.182000000000
3.866591801000,-0.135000000000
3.874278922000,-0.123000000000
3.881966043000,-0.108000000000
3.889653164000,-0.076000000000
3.897340285000,-0.059000000000
3.905027406000,-0.046000000000
3.912714527000,-0.022000000000
3.920401648000,0.004000000000
3.928088769000,0.034000000000
3.935775890000,0.068000000000
3.943463011000,0.105000000000
3.951150132000,0.142000000000
3.958837253000,0.184000000000
3.966524374000,0.228000000000
3.974211495000,0.263000000000
3.981898616000,0.292000000000
3.989585737000,0.307000000000
3.997272858000,0.305000000000
4.004959979000,0.285000000000
4.012647100000,0.258000000000
4.020334221000,0.219000000000
4.028021342000,0.140000000000
4.035708463000,0.027000000000
4.043395584000,-0.091000000000
4.051082705000,-0.192000000000
4.058769826000,-0.263000000000
4.066456947000,-0.302000000000
4.074144068000,-0.320000000000
4.081831189000,-0.329000000000
4.089518310000,-0.332000000000
4.097205431000,-0.317000000000
4.104892552000,-0.295000000000
4.112579673000,-0.283000000000
4.120266794000,-0.270000000000
4.127953915000,-0.258000000000
4.135641036000,-0.248000000000
4.143328157000,-0.236000000000
4.151015278000,-0.226000000000
4.158702399000,-0.224000000000
4.166389520000,-0.219000000000
4.174076641000,-0.211000000000
4.181763762000,-0.209000000000
4.189450883000,-0.209000000000
4.197138004000,-0.204000000000
4.204825125000,-0.196000000000
4.212512246000,-0.196000000000
4.220199431000,-0.201000000000
4.227886552000,-0.204000000000
4.235573673000,-0.199000000000
4.243260794000,-0.192000000000
4.250947915000,-0.184000000000
4.258635036000,-0.182000000000
4.266322157000,-0.184000000000
4.274009278000,-0.184000000000
4.281696399000,-0.177000000000
4.289383520000,-0.172000000000
4.297070641000,-0.174000000000
4.304757762000,-0.174000000000
4.312444883000,-0.167000000000
4.320132004000,-0.172000000000
4.327819125000,-0.174000000000
4.335506246000,-0.160000000000
4.343193367000,-0.137000000000
4.350880488000,-0.120000000000
4.358567609000,-0.115000000000
4.366254730000,-0.113000000000
4.373941851000,-0.113000000000
4.381628972000,-0.132000000000
4.389316093000,-0.167000000000
4.397003214000,-0.177000000000
4.404690335000,-0.162000000000
4.412377456000,-0.162000000000
4.420064577000,-0.162000000000
4.427751698000,-0.147000000000
4.435438819000,-0.142000000000
4.443125940000,-0.155000000000
4.450813061000,-0.169000000000
4.458500182000,-0.219000000000
4.466187303000,-0.297000000000
4.473874424000,-0.164000000000
4.481561545000,0.492000000000
4.489248666000,1.339000000000
4.496935787000,1.673000000000
4.504622908000,1.058000000000
4.512310029000,-0.177000000000
4.519997150000,-0.713000000000
4.527684271000,-0.315000000000
4.535371392000,-0.142000000000
4.543058513000,-0.297000000000
4.550745634000,-0.248000000000
4.558432755000,-0.162000000000
4.566119876000,-0.199000000000
4.573806997000,-0.182000000000
4.581494118000,-0.125000000000
4.589181239000,-0.120000000000
4.596868360000,-0.113000000000
4.604555481000,-0.083000000000
4.612242602000,-0.061000000000
4.619929723000,-0.044000000000
4.627616844000,-0.024000000000
4.635303965000,0.000000000000
4.642991086000,0.032000000000
4.650678207000,0.066000000000
4.658365328000,0.096000000000
4.666052449000,0.130000000000
4.673739570000,0.174000000000
4.681426691000,0.221000000000
4.689113812000,0.260000000000
4.696800933000,0.283000000000
4.704488054000,0.288000000000
4.712175175000,0.292000000000
4.719862296000,0.280000000000
4.727549417000,0.256000000000
4.735236538000,0.221000000000
4.742923659000,0.145000000000
4.750610780000,0.032000000000
4.758297901000,-0.083000000000
4.765985022000,-0.179000000000
4.773672143000,-0.251000000000
4.781359328000,-0.300000000000
4.789046310000,-0.324000000000
4.796733292000,-0.327000000000
4.804420274000,-0.320000000000
4.812107256000,-0.305000000000
4.819794238000,-0.290000000000
4.827481220000,-0.285000000000
4.835168202000,-0.278000000000
4.842855184000,-0.256000000000
4.850542166000,-0.241000000000
4.858229148000,-0.236000000000
4.865916130000,-0.231000000000
4.873603112000,-0.221000000000
4.881290094000,-0.211000000000
4.888977076000,-0.211000000000
4.896664058000,-0.206000000000
4.904351040000,-0.204000000000
4.912038022000,-0.209000000000
4.919725004000,-0.206000000000
4.927411986000,-0.201000000000
4.935098968000,-0.199000000000
4.942785950000,-0.192000000000
4.950472932000,-0.187000000000
4.958159914000,-0.192000000000
4.965846896000,-0.194000000000
4.973533878000,-0.189000000000
4.981220860000,-0.182000000000
4.988907842000,-0.182000000000
4.996594824000,-0.174000000000
5.004281806000,-0.162000000000
5.011968788000,-0.174000000000
5.019655770000,-0.177000000000
5.027342752000,-0.164000000000
5.035029734000,-0.160000000000
5.042716716000,-0.160000000000
5.050403698000,-0.157000000000
5.058090680000,-0.164000000000
5.065777662000,-0.160000000000
5.073464644000,-0.128000000000
5.081151626000,-0.108000000000
5.088838608000,-0.108000000000
5.096525590000,-0.108000000000
5.104212572000,-0.105000000000
5.111899554000,-0.120000000000
5.119586536000,-0.155000000000
5.127273518000,-0.172000000000
5.134960500000,-0.162000000000
5.142647482000,-0.152000000000
5.150334464000,-0.142000000000
5.158021446000,-0.137000000000
5.165708428000,-0.132000000000
5.173395410000,-0.135000000000
5.181082392000,-0.162000000000
5.188769374000,-0.219000000000
5.196456356000,-0.283000000000
5.204143338000,-0.135000000000
5.211830320000,0.536000000000
5.219517302000,1.356000000000
5.227204284000,1.575000000000
5.234891266000,0.868000000000
5.242578248000,-0.278000000000
5.250265230000,-0.654000000000
5.257952212000,-0.253000000000
5.265639194000,-0.135000000000
5.273326176000,-0.273000000000
5.281013158000,-0.211000000000
5.288700140000,-0.145000000000
5.296387122000,-0.174000000000
5.304074104000,-0.145000000000
5.311761086000,-0.096000000000
5.319448068000,-0.093000000000
5.327135050000,-0.086000000000
5.334822032000,-0.054000000000
5.342509055000,-0.039000000000
5.350195898000,-0.027000000000
5.357882741000,0.002000000000
5.365569584000,0.041000000000
5.373256427000,0.066000000000
5.380943270000,0.091000000000
5.388630113000,0.137000000000
5.396316956000,0.179000000000
5.404003799000,0.209000000000
5.411690642000,0.251000000000
5.419377485000,0.305000000000
5.427064328000,0.334000000000
5.434751171000,0.339000000000
5.442438014000,0.329000000000
5.450124857000,0.317000000000
5.457811700000,0.295000000000
5.465498543000,0.253000000000
5.473185386000,0.167000000000
5.480872229000,0.046000000000
5.488559072000,-0.071000000000
5.496245915000,-0.167000000000
5.503932758000,-0.233000000000
5.511619601000,-0.283000000000
5.519306444000,-0.327000000000
5.526993287000,-0.334000000000
5.534680130000,-0.300000000000
5.542366973000,-0.280000000000
5.550053816000,-0.295000000000
5.557740659000,-0.290000000000
5.565427502000,-0.270000000000
5.573114345000,-0.260000000000
5.580801188000,-0.241000000000
5.588488031000,-0.219000000000
5.596174874000,-0.226000000000
5.603861717000,-0.231000000000
5.611548560000,-0.206000000000
5.619235403000,-0.189000000000
5.626922246000,-0.184000000000
5.634609089000,-0.192000000000
5.642295932000,-0.196000000000
5.649982775000,-0.189000000000
5.657669618000,-0.189000000000
5.665356461000,-0.196000000000
5.673043304000,-0.194000000000
5.680730147000,-0.184000000000
5.688416990000,-0.187000000000
5.696103833000,-0.184000000000
5.703790676000,-0.174000000000
5.711477519000,-0.174000000000
5.719164362000,-0.182000000000
5.726851205000,-0.182000000000
5.734538048000,-0.172000000000
5.742224891000,-0.169000000000
5.749911734000,-0.184000000000
5.757598577000,-0.172000000000
5.765285420000,-0.140000000000
5.772972263000,-0.128000000000
5.780659106000,-0.125000000000
5.788345949000,-0.123000000000
5.796032792000,-0.120000000000
5.803719635000,-0.125000000000
5.811406478000,-0.160000000000
5.819093321000,-0.182000000000
5.826780164000,-0.167000000000
5.834467007000,-0.160000000000
5.842153850000,-0.164000000000
5.849840693000,-0.157000000000
5.857527536000,-0.152000000000
5.865214379000,-0.162000000000
5.872901222000,-0.169000000000
5.880588065000,-0.182000000000
5.888274908000,-0.246000000000
5.895961751000,-0.260000000000
5.903648604000,0.135000000000
5.911335725000,0.888000000000
5.919022846000,1.280000000000
5.926709967000,0.942000000000
5.934397088000,0.123000000000
5.942084209000,-0.539000000000
5.949771330000,-0.482000000000
5.957458451000,-0.192000000000
5.965145572000,-0.201000000000
5.972832693000,-0.228000000000
5.980519814000,-0.157000000000
5.988206935000,-0.145000000000
5.995894056000,-0.152000000000
6.003581177000,-0.110000000000
6.011268298000,-0.081000000000
6.018955419000,-0.073000000000
6.026642540000,-0.056000000000
6.034329661000,-0.051000000000
6.042016782000,-0.044000000000
6.049703903000,-0.007000000000
6.057391024000,0.022000000000
6.065078145000,0.051000000000
6.072765266000,0.081000000000
6.080452387000,0.105000000000
6.088139508000,0.145000000000
6.095826629000,0.189000000000
6.103513750000,0.214000000000
6.111200871000,0.248000000000
6.118887992000,0.292000000000
6.126575113000,0.305000000000
6.134262234000,0.283000000000
6.141949355000,0.265000000000
6.149636476000,0.251000000000
6.157323597000,0.206000000000
6.165010718000,0.142000000000
6.172697839000,0.064000000000
6.180384960000,-0.054000000000
6.188072081000,-0.182000000000
6.195759202000,-0.253000000000
6.203446323000,-0.278000000000
6.211133444000,-0.302000000000
6.218820565000,-0.320000000000
6.226507686000,-0.312000000000
6.234194807000,-0.297000000000
6.241881928000,-0.292000000000
6.249569049000,-0.290000000000
6.257256170000,-0.278000000000
6.264943291000,-0.268000000000
6.272630412000,-0.248000000000
6.280317533000,-0.221000000000
6.288004654000,-0.216000000000
6.295691775000,-0.211000000000
6.303378896000,-0.192000000000
6.311066017000,-0.192000000000
6.318753138000,-0.192000000000
6.326440259000,-0.179000000000
6.334127380000,-0.174000000000
6.341814501000,-0.174000000000
6.349501622000,-0.174000000000
6.357188743000,-0.169000000000
6.364875864000,-0.169000000000
6.372562985000,-0.182000000000
6.380250106000,-0.187000000000
6.387937227000,-0.182000000000
6.395624348000,-0.169000000000
6.403311469000,-0.172000000000
6.410998590000,-0.187000000000
6.418685711000,-0.187000000000
6.426372832000,-0.179000000000
6.434059953000,-0.172000000000
6.441747074000,-0.162000000000
6.449434195000,-0.145000000000
6.457121316000,-0.137000000000
6.464808501000,-0.137000000000
6.472495622000,-0.128000000000
6.480182743000,-0.135000000000
6.487869864000,-0.167000000000
6.495556985000,-0.179000000000
6.503244106000,-0.174000000000
6.510931227000,-0.179000000000
6.518618348000,-0.182000000000
6.526305469000,-0.172000000000
6.533992590000,-0.164000000000
6.541679711000,-0.169000000000
6.549366832000,-0.182000000000
6.557053953000,-0.204000000000
6.564741074000,-0.258000000000
6.572428195000,-0.263000000000
6.580115316000,0.120000000000
6.587802437000,0.866000000000
6.595489558000,1.257000000000
6.603176679000,0.928000000000
6.610863800000,0.145000000000
6.618550921000,-0.516000000000
6.626238042000,-0.509000000000
6.633925163000,-0.238000000000
6.641612284000,-0.224000000000
6.649299405000,-0.241000000000
6.656986526000,-0.172000000000
6.664673647000,-0.155000000000
6.672360768000,-0.164000000000
6.680047889000,-0.135000000000
6.687735010000,-0.110000000000
6.695422131000,-0.105000000000
6.703109252000,-0.088000000000
6.710796373000,-0.066000000000
6.718483494000,-0.054000000000
6.726170615000,-0.032000000000
6.733857736000,-0.007000000000
6.741544857000,0.009000000000
6.749231978000,0.036000000000
6.756919099000,0.071000000000
6.764606220000,0.103000000000
6.772293341000,0.137000000000
6.779980462000,0.164000000000
6.787667583000,0.184000000000
6.795354704000,0.211000000000
6.803041825000,0.238000000000
6.810728946000,0.221000000000
6.818416067000,0.187000000000
6.826103188000,0.182000000000
6.833790309000,0.172000000000
6.841477430000,0.110000000000
6.849164551000,0.019000000000
6.856851672000,-0.078000000000
6.864538793000,-0.167000000000
6.872225914000,-0.228000000000
6.879913035000,-0.275000000000
6.887600156000,-0.305000000000
6.895287277000,-0.300000000000
6.902974398000,-0.292000000000
6.910661519000,-0.307000000000
6.918348640000,-0.300000000000
6.926035761000,-0.270000000000
6.933722882000,-0.258000000000
6.941410003000,-0.253000000000
6.949097124000,-0.236000000000
6.956784245000,-0.221000000000
6.964471366000,-0.214000000000
6.972158487000,-0.209000000000
6.979845608000,-0.204000000000
6.987532729000,-0.201000000000
6.995219850000,-0.192000000000
7.002906971000,-0.184000000000
7.010594092000,-0.179000000000
7.018281213000,-0.182000000000
7.025968402000,-0.189000000000
7.033655523000,-0.184000000000
7.041342644000,-0.179000000000
7.049029765000,-0.184000000000
7.056716886000,-0.196000000000
7.064404007000,-0.196000000000
7.072091128000,-0.179000000000
7.079778249000,-0.177000000000
7.087465370000,-0.182000000000
7.095152491000,-0.192000000000
7.102839612000,-0.196000000000
7.110526733000,-0.187000000000
7.118213854000,-0.157000000000
7.125900975000,-0.130000000000
7.133588096000,-0.145000000000
7.141275217000,-0.160000000000
7.148962338000,-0.147000000000
7.156649459000,-0.137000000000
7.164336580000,-0.157000000000
7.172023701000,-0.179000000000
7.179710822000,-0.189000000000
7.187397943000,-0.182000000000
7.195085064000,-0.172000000000
7.202772185000,-0.174000000000
7.210459306000,-0.174000000000
7.218146427000,-0.167000000000
7.225833548000,-0.177000000000
7.233520669000,-0.196000000000
7.241207790000,-0.243000000000
7.248894911000,-0.253000000000
7.256582032000,0.118000000000
7.264269153000,0.846000000000
7.271956274000,1.304000000000
7.279643395000,1.107000000000
7.287330516000,0.265000000000
7.295017637000,-0.566000000000
7.302704758000,-0.536000000000
7.310391879000,-0.162000000000
7.318079000000,-0.187000000000
7.325766121000,-0.263000000000
7.333453242000,-0.177000000000
7.341140363000,-0.155000000000
7.348827484000,-0.179000000000
7.356514605000,-0.145000000000
7.364201726000,-0.110000000000
7.371888847000,-0.105000000000
7.379575968000,-0.081000000000
7.387263089000,-0.056000000000
7.394950210000,-0.054000000000
7.402637331000,-0.044000000000
7.410324452000,-0.014000000000
7.418011573000,0.014000000000
7.425698694000,0.039000000000
7.433385815000,0.061000000000
7.441072936000,0.088000000000
7.448760057000,0.132000000000
7.456447178000,0.177000000000
7.464134299000,0.204000000000
7.471821420000,0.226000000000
7.479508541000,0.241000000000
7.487195662000,0.241000000000
7.494882783000,0.231000000000
7.502569904000,0.211000000000
7.510257025000,0.184000000000
7.517944146000,0.142000000000
7.525631267000,0.061000000000
7.533318388000,-0.051000000000
7.541005509000,-0.147000000000
7.548692630000,-0.221000000000
7.556379751000,-0.270000000000
7.564066872000,-0.290000000000
7.571753993000,-0.292000000000
7.579441114000,-0.295000000000
7.587128299000,-0.302000000000
7.594815211000,-0.288000000000
7.602502123000,-0.258000000000
7.610189035000,-0.243000000000
7.617875947000,-0.236000000000
7.625562859000,-0.224000000000
7.633249771000,-0.216000000000
7.640936683000,-0.214000000000
7.648623595000,-0.209000000000
7.656310507000,-0.204000000000
7.663997419000,-0.194000000000
7.671684331000,-0.192000000000
7.679371243000,-0.199000000000
7.687058155000,-0.194000000000
7.694745067000,-0.179000000000
7.702431979000,-0.177000000000
7.710118891000,-0.174000000000
7.717805803000,-0.169000000000
7.725492715000,-0.169000000000
7.733179627000,-0.167000000000
7.740866539000,-0.164000000000
7.748553451000,-0.164000000000
7.756240363000,-0.162000000000
7.763927275000,-0.155000000000
7.771614187000,-0.152000000000
7.779301099000,-0.160000000000
7.786988011000,-0.155000000000
7.794674923000,-0.125000000000
7.802361835000,-0.103000000000
7.810048747000,-0.110000000000
7.817735659000,-0.113000000000
7.825422571000,-0.100000000000
7.833109483000,-0.110000000000
7.840796395000,-0.145000000000
7.848483307000,-0.155000000000
7.856170219000,-0.142000000000
7.863857131000,-0.140000000000
7.871544043000,-0.137000000000
7.879230955000,-0.132000000000
7.886917867000,-0.140000000000
7.894604779000,-0.140000000000
7.902291691000,-0.140000000000
7.909978603000,-0.164000000000
7.917665515000,-0.238000000000
7.925352427000,-0.219000000000
7.933039339000,0.238000000000
7.940726251000,1.038000000000
7.948413163000,1.538000000000
7.956100075000,1.238000000000
7.963786987000,0.157000000000
7.971473899000,-0.654000000000
7.979160811000,-0.423000000000
7.986847723000,-0.093000000000
7.994534635000,-0.226000000000
8.002221547000,-0.251000000000
8.009908459000,-0.137000000000
8.017595371000,-0.160000000000
8.025282283000,-0.174000000000
8.032969195000,-0.113000000000
8.040656107000,-0.096000000000
8.048343019000,-0.096000000000
8.056029931000,-0.064000000000
8.063716843000,-0.034000000000
8.071403755000,-0.024000000000
8.079090667000,-0.004000000000
8.086777579000,0.017000000000
8.094464491000,0.034000000000
8.102151403000,0.056000000000
8.109838315000,0.100000000000
8.117525227000,0.137000000000
8.125212139000,0.164000000000
8.132899051000,0.204000000000
8.140585963000,0.256000000000
8.148272939000,0.288000000000
8.155959851000,0.285000000000
8.163646763000,0.278000000000
8.171333675000,0.268000000000
8.179020587000,0.246000000000
8.186707499000,0.216000000000
8.194394411000,0.157000000000
8.202081323000,0.059000000000
8.209768235000,-0.054000000000
8.217455147000,-0.147000000000
8.225142059000,-0.221000000000
8.232828971000,-0.283000000000
8.240515883000,-0.302000000000
8.248202795000,-0.300000000000
8.255889707000,-0.300000000000
8.263576619000,-0.290000000000
8.271263531000,-0.270000000000
8.278950443000,-0.258000000000
8.286637355000,-0.251000000000
8.294324267000,-0.231000000000
8.302011179000,-0.224000000000
8.309698091000,-0.219000000000
8.317385003000,-0.204000000000
8.325071915000,-0.206000000000
8.332758827000,-0.209000000000
8.340445739000,-0.194000000000
8.348132651000,-0.189000000000
8.355819563000,-0.194000000000
8.363506475000,-0.187000000000
8.371193387000,-0.179000000000
8.378880299000,-0.184000000000
8.386567211000,-0.189000000000
8.394254123000,-0.182000000000
8.401941035000,-0.179000000000
8.409627947000,-0.182000000000
8.417314859000,-0.177000000000
8.425001771000,-0.167000000000
8.432688683000,-0.160000000000
8.440375595000,-0.167000000000
8.448062507000,-0.169000000000
8.455749419000,-0.164000000000
8.463436331000,-0.172000000000
8.471123243000,-0.169000000000
8.478810155000,-0.137000000000
8.486497067000,-0.115000000000
8.494183979000,-0.118000000000
8.501870891000,-0.118000000000
8.509557803000,-0.105000000000
8.517244715000,-0.110000000000
8.524931627000,-0.140000000000
8.532618539000,-0.162000000000
8.540305451000,-0.160000000000
8.547992363000,-0.152000000000
8.555679275000,-0.160000000000
8.563366187000,-0.160000000000
8.571053099000,-0.142000000000
8.578740011000,-0.135000000000
8.586426923000,-0.155000000000
8.594113835000,-0.189000000000
8.601800747000,-0.260000000000
8.609487659000,-0.226000000000
8.617174571000,0.283000000000
8.624861483000,1.132000000000
8.632548395000,1.622000000000
8.640235307000,1.221000000000
8.647922219000,0.039000000000
8.655609131000,-0.706000000000
8.663296043000,-0.393000000000
8.670982955000,-0.103000000000
8.678669867000,-0.251000000000
8.686356779000,-0.253000000000
8.694043691000,-0.145000000000
8.701730603000,-0.167000000000
8.709417575000,-0.177000000000
8.717104696000,-0.120000000000
8.724791817000,-0.100000000000
8.732478938000,-0.100000000000
8.740166059000,-0.071000000000
8.747853180000,-0.044000000000
8.755540301000,-0.032000000000
8.763227422000,-0.012000000000
8.770914543000,0.007000000000
8.778601664000,0.029000000000
8.786288785000,0.061000000000
8.793975906000,0.091000000000
8.801663027000,0.123000000000
8.809350148000,0.164000000000
8.817037269000,0.199000000000
8.824724390000,0.228000000000
8.832411511000,0.256000000000
8.840098632000,0.263000000000
8.847785753000,0.251000000000
8.855472874000,0.236000000000
8.863159995000,0.226000000000
8.870847116000,0.204000000000
8.878534237000,0.137000000000
8.886221358000,0.029000000000
8.893908479000,-0.068000000000
8.901595600000,-0.147000000000
8.909282721000,-0.228000000000
8.916969842000,-0.288000000000
8.924656963000,-0.302000000000
8.932344084000,-0.297000000000
8.940031205000,-0.302000000000
8.947718326000,-0.295000000000
8.955405447000,-0.270000000000
8.963092568000,-0.256000000000
8.970779689000,-0.251000000000
8.978466810000,-0.241000000000
8.986153931000,-0.226000000000
8.993841052000,-0.216000000000
9.001528173000,-0.216000000000
9.009215294000,-0.219000000000
9.016902415000,-0.209000000000
9.024589536000,-0.194000000000
9.032276657000,-0.189000000000
9.039963778000,-0.192000000000
9.047650899000,-0.196000000000
9.055338020000,-0.201000000000
9.063025141000,-0.194000000000
9.070712262000,-0.189000000000
9.078399383000,-0.194000000000
9.086086504000,-0.196000000000
9.093773625000,-0.189000000000
9.101460746000,-0.179000000000
9.109147867000,-0.182000000000
9.116834988000,-0.177000000000
9.124522109000,-0.164000000000
9.132209230000,-0.164000000000
9.139896351000,-0.174000000000
9.147583472000,-0.172000000000
9.155270593000,-0.177000000000
9.162957714000,-0.184000000000
9.170644835000,-0.160000000000
9.178331956000,-0.128000000000
9.186019077000,-0.125000000000
9.193706198000,-0.123000000000
9.201393319000,-0.110000000000
9.209080440000,-0.120000000000
9.216767561000,-0.150000000000
9.224454682000,-0.169000000000
9.232141803000,-0.167000000000
9.239828924000,-0.155000000000
9.247516045000,-0.152000000000
9.255203166000,-0.160000000000
9.262890287000,-0.157000000000
9.270577472000,-0.140000000000
9.278264593000,-0.145000000000
9.285951714000,-0.184000000000
9.293638835000,-0.263000000000
9.301325956000,-0.292000000000
9.309013077000,0.081000000000
9.316700198000,0.923000000000
9.324387319000,1.595000000000
9.332074440000,1.437000000000
9.339761561000,0.349000000000
9.347448682000,-0.647000000000
9.355135803000,-0.526000000000
9.362822924000,-0.120000000000
9.370510045000,-0.221000000000
9.378197166000,-0.290000000000
9.385884287000,-0.174000000000
9.393571408000,-0.164000000000
9.401258529000,-0.187000000000
9.408945650000,-0.132000000000
9.416632771000,-0.105000000000
9.424319892000,-0.115000000000
9.432007013000,-0.091000000000
9.439694134000,-0.054000000000
9.447381255000,-0.041000000000
9.455068376000,-0.022000000000
9.462755497000,0.004000000000
9.470442618000,0.024000000000
9.478129739000,0.044000000000
9.485816860000,0.076000000000
9.493503981000,0.113000000000
9.501191102000,0.142000000000
9.508878223000,0.169000000000
9.516565344000,0.206000000000
9.524252465000,0.238000000000
9.531939586000,0.253000000000
9.539626707000,0.246000000000
9.547313828000,0.231000000000
9.555000949000,0.209000000000
9.562688070000,0.184000000000
9.570375191000,0.145000000000
9.578062312000,0.066000000000
9.585749433000,-0.044000000000
9.593436554000,-0.137000000000
9.601123675000,-0.211000000000
9.608810796000,-0.263000000000
9.616497917000,-0.288000000000
9.624185038000,-0.305000000000
9.631872159000,-0.307000000000
9.639559280000,-0.290000000000
9.647246401000,-0.273000000000
9.654933522000,-0.263000000000
9.662620643000,-0.251000000000
9.670307764000,-0.246000000000
9.677994885000,-0.238000000000
9.685682006000,-0.224000000000
9.693369127000,-0.214000000000
9.701056248000,-0.209000000000
9.708743369000,-0.204000000000
9.716430490000,-0.201000000000
9.724117611000,-0.201000000000
9.731804732000,-0.199000000000
9.739491853000,-0.189000000000
9.747178974000,-0.189000000000
9.754866095000,-0.196000000000
9.762553216000,-0.194000000000
9.770240337000,-0.194000000000
9.777927458000,-0.196000000000
9.785614579000,-0.182000000000
9.793301700000,-0.172000000000
9.800988821000,-0.182000000000
9.808675942000,-0.184000000000
9.816363063000,-0.177000000000
9.824050184000,-0.174000000000
9.831737369000,-0.169000000000
9.839424490000,-0.167000000000
9.847111611000,-0.179000000000
9.854798732000,-0.182000000000
9.862485853000,-0.160000000000
9.870172974000,-0.135000000000
9.877860095000,-0.120000000000
9.885547216000,-0.118000000000
9.893234337000,-0.125000000000
9.900921458000,-0.125000000000
9.908608579000,-0.135000000000
9.916295700000,-0.162000000000
9.923982821000,-0.169000000000
9.931669942000,-0.160000000000
9.939357063000,-0.160000000000
9.947044184000,-0.157000000000
9.954731305000,-0.150000000000
9.962418426000,-0.140000000000
9.970105547000,-0.140000000000
9.977792668000,-0.164000000000
9.985479789000,-0.243000000000
9.993166910000,-0.295000000000
10.000854031000,0.019000000000
10.008541152000,0.814000000000
10.016228273000,1.489000000000
10.023915394000,1.381000000000
10.031602515000,0.403000000000
10.039289636000,-0.573000000000
10.046976757000,-0.546000000000
10.054663878000,-0.145000000000
10.062350999000,-0.189000000000
10.070038120000,-0.265000000000
10.077725241000,-0.162000000000
10.085412362000,-0.145000000000
10.093099483000,-0.147000000000
10.100786604000,-0.093000000000
10.108473725000,-0.086000000000
10.116160846000,-0.096000000000
10.123847967000,-0.061000000000
10.131535088000,-0.034000000000
10.139222209000,-0.032000000000
10.146909330000,-0.009000000000
10.154596451000,0.029000000000
10.162283572000,0.059000000000
10.169970693000,0.081000000000
10.177657814000,0.118000000000
10.185344935000,0.155000000000
10.193032056000,0.179000000000
10.200719177000,0.211000000000
10.208406298000,0.263000000000
10.216093419000,0.300000000000
10.223780540000,0.315000000000
10.231467661000,0.305000000000
10.239154782000,0.283000000000
10.246841903000,0.265000000000
10.254529024000,0.246000000000
10.262216145000,0.189000000000
10.269903266000,0.093000000000
10.277590387000,-0.014000000000
10.285277508000,-0.113000000000
10.292964629000,-0.196000000000
10.300651750000,-0.263000000000
10.308338871000,-0.292000000000
10.316025992000,-0.297000000000
10.323713113000,-0.300000000000
10.331400234000,-0.295000000000
10.339087355000,-0.285000000000
10.346774476000,-0.275000000000
10.354461597000,-0.258000000000
10.362148718000,-0.238000000000
10.369835839000,-0.224000000000
10.377522960000,-0.219000000000
10.385210081000,-0.216000000000
10.392897270000,-0.204000000000
10.400584113000,-0.196000000000
10.408270956000,-0.196000000000
10.415957799000,-0.196000000000
10.423644642000,-0.192000000000
10.431331485000,-0.184000000000
10.439018328000,-0.182000000000
10.446705171000,-0.184000000000
10.454392014000,-0.179000000000
10.462078857000,-0.179000000000
10.469765700000,-0.187000000000
10.477452543000,-0.189000000000
10.485139386000,-0.187000000000
10.492826229000,-0.179000000000
10.500513072000,-0.182000000000
10.508199915000,-0.201000000000
10.515886758000,-0.194000000000
10.523573601000,-0.155000000000
10.531260444000,-0.132000000000
10.538947287000,-0.132000000000
10.546634130000,-0.142000000000
10.554320973000,-0.130000000000
10.562007816000,-0.128000000000
10.569694659000,-0.162000000000
10.577381502000,-0.179000000000
10.585068345000,-0.172000000000
10.592755188000,-0.174000000000
10.600442031000,-0.169000000000
10.608128874000,-0.160000000000
10.615815717000,-0.177000000000
10.623502560000,-0.174000000000
10.631189403000,-0.152000000000
10.638876246000,-0.169000000000
10.646563089000,-0.224000000000
10.654249932000,-0.278000000000
10.661936775000,-0.103000000000
10.669623618000,0.573000000000
10.677310461000,1.250000000000
10.684997304000,1.211000000000
10.692684147000,0.470000000000
10.700370990000,-0.386000000000
10.708057833000,-0.598000000000
10.715744676000,-0.292000000000
10.723431519000,-0.189000000000
10.731118362000,-0.236000000000
10.738805205000,-0.167000000000
10.746492048000,-0.120000000000
10.754178891000,-0.152000000000
10.761865734000,-0.147000000000
10.769552577000,-0.100000000000
10.777239420000,-0.081000000000
10.784926263000,-0.068000000000
10.792613106000,-0.041000000000
10.800299949000,-0.027000000000
10.807986792000,-0.014000000000
10.815673635000,0.014000000000
10.823360478000,0.044000000000
10.831047321000,0.068000000000
10.838734164000,0.098000000000
10.846421007000,0.132000000000
10.854107850000,0.169000000000
10.861794693000,0.206000000000
10.869481536000,0.238000000000
10.877168379000,0.260000000000
10.884855222000,0.273000000000
10.892542065000,0.265000000000
10.900228908000,0.236000000000
10.907915751000,0.226000000000
10.915602594000,0.214000000000
10.923289437000,0.147000000000
10.930976280000,0.051000000000
10.938663123000,-0.041000000000
10.946349966000,-0.142000000000
10.954036823000,-0.226000000000
10.961723805000,-0.256000000000
10.969410787000,-0.285000000000
10.977097769000,-0.324000000000
10.984784751000,-0.320000000000
10.992471733000,-0.297000000000
11.000158715000,-0.297000000000
11.007845697000,-0.285000000000
11.015532679000,-0.268000000000
11.023219661000,-0.258000000000
11.030906643000,-0.236000000000
11.038593625000,-0.219000000000
11.046280607000,-0.224000000000
11.053967589000,-0.224000000000
11.061654571000,-0.209000000000
11.069341553000,-0.184000000000
11.077028535000,-0.174000000000
11.084715517000,-0.179000000000
11.092402499000,-0.182000000000
11.100089481000,-0.187000000000
11.107776463000,-0.182000000000
11.115463445000,-0.179000000000
11.123150427000,-0.194000000000
11.130837409000,-0.187000000000
11.138524391000,-0.164000000000
11.146211373000,-0.184000000000
11.153898355000,-0.204000000000
11.161585337000,-0.179000000000
11.169272319000,-0.177000000000
11.176959301000,-0.189000000000
11.184646283000,-0.164000000000
11.192333265000,-0.142000000000
11.200020247000,-0.145000000000
11.207707229000,-0.132000000000
11.215394211000,-0.125000000000
11.223081193000,-0.145000000000
11.230768175000,-0.172000000000
11.238455157000,-0.179000000000
11.246142139000,-0.172000000000
11.253829121000,-0.179000000000
11.261516103000,-0.179000000000
11.269203085000,-0.167000000000
11.276890067000,-0.164000000000
11.284577049000,-0.162000000000
11.292264031000,-0.169000000000
11.299951013000,-0.204000000000
11.307637995000,-0.263000000000
11.315324977000,-0.226000000000
11.323011959000,0.248000000000
11.330698941000,0.994000000000
11.338385923000,1.235000000000
11.346072905000,0.726000000000
11.353759887000,-0.098000000000
11.361446869000,-0.571000000000
11.369133851000,-0.423000000000
11.376820833000,-0.216000000000
11.384507815000,-0.236000000000
11.392194797000,-0.201000000000
11.399881779000,-0.140000000000
11.407568761000,-0.147000000000
11.415255743000,-0.145000000000
11.422942725000,-0.113000000000
11.430629707000,-0.093000000000
11.438316689000,-0.078000000000
11.446003671000,-0.064000000000
11.453690653000,-0.051000000000
11.461377635000,-0.034000000000
11.469064617000,-0.014000000000
11.476751599000,0.019000000000
11.484438581000,0.046000000000
11.492125563000,0.061000000000
11.499812545000,0.093000000000
11.507499527000,0.128000000000
11.515186546000,0.142000000000
11.522873667000,0.172000000000
11.530560788000,0.211000000000
11.538247909000,0.221000000000
11.545935030000,0.214000000000
11.553622151000,0.206000000000
11.561309272000,0.189000000000
11.568996393000,0.167000000000
11.576683514000,0.137000000000
11.584370635000,0.076000000000
11.592057756000,-0.014000000000
11.599744877000,-0.108000000000
11.607431998000,-0.187000000000
11.615119119000,-0.251000000000
11.622806240000,-0.290000000000
11.630493361000,-0.305000000000
11.638180482000,-0.317000000000
11.645867603000,-0.320000000000
11.653554724000,-0.307000000000
11.661241845000,-0.288000000000
11.668928966000,-0.275000000000
11.676616087000,-0.263000000000
11.684303208000,-0.246000000000
11.691990329000,-0.231000000000
11.699677450000,-0.226000000000
11.707364571000,-0.214000000000
11.715051692000,-0.196000000000
11.722738813000,-0.196000000000
11.730425934000,-0.196000000000
11.738113055000,-0.192000000000
11.745800176000,-0.187000000000
11.753487297000,-0.182000000000
11.761174418000,-0.187000000000
11.768861539000,-0.194000000000
11.776548660000,-0.184000000000
11.784235781000,-0.184000000000
11.791922902000,-0.199000000000
11.799610023000,-0.189000000000
11.807297144000,-0.177000000000
11.814984265000,-0.192000000000
11.822671386000,-0.199000000000
11.830358507000,-0.192000000000
11.838045628000,-0.187000000000
11.845732749000,-0.160000000000
11.853419870000,-0.132000000000
11.861106991000,-0.140000000000
11.868794112000,-0.157000000000
11.876481233000,-0.152000000000
11.884168354000,-0.155000000000
11.891855475000,-0.182000000000
11.899542596000,-0.201000000000
11.907229717000,-0.192000000000
11.914916838000,-0.177000000000
11.922603959000,-0.179000000000
11.930291080000,-0.182000000000
11.937978201000,-0.169000000000
11.945665322000,-0.167000000000
11.953352443000,-0.189000000000
11.961039564000,-0.248000000000
11.968726685000,-0.265000000000
11.976413806000,0.078000000000
11.984100927000,0.787000000000
11.991788048000,1.238000000000
11.999475169000,1.065000000000
12.007162290000,0.315000000000
12.014849411000,-0.514000000000
12.022536532000,-0.576000000000
12.030223653000,-0.201000000000
12.037910774000,-0.182000000000
12.045597895000,-0.275000000000
12.053285016000,-0.196000000000
12.060972137000,-0.150000000000
12.068659258000,-0.164000000000
12.076346443000,-0.142000000000
12.084033564000,-0.130000000000
12.091720685000,-0.123000000000
12.099407806000,-0.091000000000
12.107094927000,-0.071000000000
12.114782048000,-0.064000000000
12.122469169000,-0.041000000000
12.130156290000,-0.014000000000
12.137843411000,0.007000000000
12.145530532000,0.027000000000
12.153217653000,0.046000000000
12.160904774000,0.078000000000
12.168591895000,0.115000000000
12.176279016000,0.140000000000
12.183966137000,0.167000000000
12.191653258000,0.192000000000
12.199340379000,0.196000000000
12.207027500000,0.196000000000
12.214714621000,0.192000000000
12.222401742000,0.169000000000
12.230088863000,0.142000000000
12.237775984000,0.100000000000
12.245463105000,0.024000000000
12.253150226000,-0.066000000000
12.260837347000,-0.162000000000
12.268524468000,-0.236000000000
12.276211589000,-0.270000000000
12.283898710000,-0.283000000000
12.291585831000,-0.292000000000
12.299272952000,-0.295000000000
12.306960073000,-0.290000000000
12.314647194000,-0.278000000000
12.322334315000,-0.253000000000
12.330021436000,-0.241000000000
12.337708557000,-0.238000000000
12.345395678000,-0.231000000000
12.353082799000,-0.216000000000
12.360769920000,-0.211000000000
12.368457041000,-0.214000000000
12.376144162000,-0.206000000000
12.383831283000,-0.199000000000
12.391518404000,-0.196000000000
12.399205525000,-0.196000000000
12.406892646000,-0.194000000000
12.414579767000,-0.194000000000
12.422266888000,-0.196000000000
12.429954009000,-0.187000000000
12.437641130000,-0.182000000000
12.445328251000,-0.187000000000
12.453015372000,-0.184000000000
12.460702493000,-0.182000000000
12.468389614000,-0.192000000000
12.476076735000,-0.189000000000
12.483763856000,-0.179000000000
12.491450977000,-0.152000000000
12.499138098000,-0.130000000000
12.506825219000,-0.135000000000
12.514512340000,-0.142000000000
12.522199461000,-0.128000000000
12.529886582000,-0.132000000000
12.537573703000,-0.164000000000
12.545260824000,-0.179000000000
12.552947945000,-0.177000000000
12.560635066000,-0.182000000000
12.568322187000,-0.177000000000
12.576009308000,-0.152000000000
12.583696429000,-0.155000000000
12.591383550000,-0.174000000000
12.599070671000,-0.174000000000
12.606757792000,-0.184000000000
12.614444913000,-0.248000000000
12.622132034000,-0.226000000000
12.629819155000,0.226000000000
12.637506340000,0.957000000000
12.645193461000,1.331000000000
12.652880582000,1.021000000000
12.660567703000,0.096000000000
12.668254824000,-0.630000000000
12.675941945000,-0.450000000000
12.683629066000,-0.120000000000
12.691316187000,-0.214000000000
12.699003308000,-0.256000000000
12.706690429000,-0.155000000000
12.714377550000,-0.147000000000
12.722064671000,-0.172000000000
12.729751792000,-0.130000000000
12.737438913000,-0.093000000000
12.745126034000,-0.083000000000
12.752813155000,-0.071000000000
12.760500276000,-0.049000000000
12.768187397000,-0.027000000000
12.775874518000,-0.009000000000
12.783561639000,0.007000000000
12.791248760000,0.036000000000
12.798935881000,0.064000000000
12.806623002000,0.083000000000
12.814310123000,0.118000000000
12.821997244000,0.160000000000
12.829684365000,0.196000000000
12.837371486000,0.228000000000
12.845058607000,0.251000000000
12.852745728000,0.256000000000
12.860432849000,0.251000000000
12.868119970000,0.238000000000
12.875807091000,0.221000000000
12.883494212000,0.194000000000
12.891181333000,0.123000000000
12.898868454000,0.014000000000
12.906555575000,-0.088000000000
12.914242696000,-0.162000000000
12.921929817000,-0.228000000000
12.929616938000,-0.275000000000
12.937304059000,-0.292000000000
12.944991180000,-0.290000000000
12.952678301000,-0.285000000000
12.960365422000,-0.278000000000
12.968052543000,-0.263000000000
12.975739664000,-0.246000000000
12.983426785000,-0.236000000000
12.991113906000,-0.226000000000
12.998801027000,-0.216000000000
13.006488148000,-0.204000000000
13.014175269000,-0.199000000000
13.021862390000,-0.201000000000
13.029549511000,-0.199000000000
13.037236632000,-0.196000000000
13.044923753000,-0.201000000000
13.052610874000,-0.196000000000
13.060297995000,-0.187000000000
13.067985116000,-0.184000000000
13.075672237000,-0.187000000000
13.083359358000,-0.184000000000
13.091046479000,-0.182000000000
13.098733600000,-0.179000000000
13.106420721000,-0.179000000000
13.114107842000,-0.174000000000
13.121794963000,-0.172000000000
13.129482084000,-0.174000000000
13.137169205000,-0.177000000000
13.144856326000,-0.177000000000
13.152543447000,-0.164000000000
13.160230568000,-0.142000000000
13.167917689000,-0.125000000000
13.175604810000,-0.125000000000
13.183291931000,-0.128000000000
13.190979052000,-0.123000000000
13.198666237000,-0.132000000000
13.206353358000,-0.160000000000
13.214040479000,-0.177000000000
13.221727600000,-0.172000000000
13.229414721000,-0.164000000000
13.237101842000,-0.160000000000
13.244788963000,-0.157000000000
13.252476084000,-0.150000000000
13.260163205000,-0.145000000000
13.267850326000,-0.160000000000
13.275537447000,-0.201000000000
13.283224568000,-0.275000000000
13.290911689000,-0.199000000000
13.298598810000,0.356000000000
13.306285931000,1.147000000000
13.313973052000,1.491000000000
13.321660173000,1.009000000000
13.329347294000,-0.098000000000
13.337034415000,-0.694000000000
13.344721536000,-0.347000000000
13.352408657000,-0.110000000000
13.360095778000,-0.258000000000
13.367782899000,-0.241000000000
13.375470020000,-0.142000000000
13.383157141000,-0.164000000000
13.390844262000,-0.160000000000
13.398531383000,-0.110000000000
13.406218504000,-0.100000000000
13.413905625000,-0.093000000000
13.421592746000,-0.064000000000
13.429279867000,-0.044000000000
13.436966988000,-0.029000000000
13.444654109000,-0.007000000000
13.452341230000,0.017000000000
13.460028351000,0.041000000000
13.467715472000,0.071000000000
13.475402593000,0.100000000000
13.483089714000,0.132000000000
13.490776835000,0.172000000000
13.498463956000,0.211000000000
13.506151077000,0.243000000000
13.513838198000,0.258000000000
13.521525319000,0.260000000000
13.529212440000,0.253000000000
13.536899561000,0.241000000000
13.544586682000,0.221000000000
13.552273803000,0.182000000000
13.559960924000,0.108000000000
13.567648045000,0.002000000000
13.575335166000,-0.103000000000
13.583022287000,-0.189000000000
13.590709408000,-0.251000000000
13.598396529000,-0.290000000000
13.606083650000,-0.312000000000
13.613770771000,-0.315000000000
13.621457892000,-0.305000000000
13.629145013000,-0.290000000000
13.636832134000,-0.275000000000
13.644519255000,-0.263000000000
13.652206376000,-0.253000000000
13.659893497000,-0.243000000000
13.667580618000,-0.233000000000
13.675267739000,-0.226000000000
13.682954860000,-0.219000000000
13.690641981000,-0.216000000000
13.698329102000,-0.214000000000
13.706016223000,-0.206000000000
13.713703344000,-0.204000000000
13.721390465000,-0.204000000000
13.729077586000,-0.204000000000
13.736764707000,-0.199000000000
13.744451828000,-0.196000000000
13.752138949000,-0.196000000000
13.759826138000,-0.192000000000
13.767512981000,-0.192000000000
13.775199824000,-0.189000000000
13.782886667000,-0.184000000000
13.790573510000,-0.184000000000
13.798260353000,-0.182000000000
13.805947196000,-0.177000000000
13.813634039000,-0.174000000000
13.821320882000,-0.174000000000
13.829007725000,-0.179000000000
13.836694568000,-0.184000000000
13.844381411000,-0.172000000000
13.852068254000,-0.147000000000
13.859755097000,-0.130000000000
13.867441940000,-0.132000000000
13.875128783000,-0.130000000000
13.882815626000,-0.120000000000
13.890502469000,-0.132000000000
13.898189312000,-0.162000000000
13.905876155000,-0.182000000000
13.913562998000,-0.174000000000
13.921249841000,-0.164000000000
13.928936684000,-0.162000000000
13.936623527000,-0.160000000000
13.944310370000,-0.152000000000
13.951997213000,-0.150000000000
13.959684056000,-0.167000000000
13.967370899000,-0.206000000000
13.975057742000,-0.283000000000
13.982744585000,-0.194000000000
13.990431428000,0.401000000000
13.998118271000,1.240000000000
14.005805114000,1.600000000000
14.013491957000,1.024000000000
14.021178800000,-0.172000000000
14.028865643000,-0.716000000000
14.036552486000,-0.317000000000
14.044239329000,-0.123000000000
14.051926172000,-0.280000000000
14.059613015000,-0.241000000000
14.067299858000,-0.152000000000
14.074986701000,-0.177000000000
14.082673544000,-0.167000000000
14.090360387000,-0.118000000000
14.098047230000,-0.108000000000
14.105734073000,-0.100000000000
14.113420916000,-0.071000000000
14.121107759000,-0.051000000000
14.128794602000,-0.036000000000
14.136481445000,-0.014000000000
14.144168288000,0.012000000000
14.151855131000,0.036000000000
14.159541974000,0.064000000000
14.167228817000,0.098000000000
14.174915660000,0.132000000000
14.182602503000,0.167000000000
14.190289346000,0.201000000000
14.197976189000,0.231000000000
14.205663032000,0.248000000000
14.213349875000,0.253000000000
14.221036718000,0.238000000000
14.228723561000,0.221000000000
14.236410404000,0.204000000000
14.244097247000,0.167000000000
14.251784090000,0.098000000000
14.259470933000,0.002000000000
14.267157776000,-0.098000000000
14.274844619000,-0.184000000000
14.282531462000,-0.246000000000
14.290218305000,-0.283000000000
14.297905148000,-0.302000000000
14.305591991000,-0.307000000000
14.313278834000,-0.300000000000
14.320965691000,-0.288000000000
14.328652673000,-0.275000000000
14.336339655000,-0.260000000000
14.344026637000,-0.246000000000
14.351713619000,-0.236000000000
14.359400601000,-0.231000000000
14.367087583000,-0.224000000000
14.374774565000,-0.216000000000
14.382461547000,-0.214000000000
14.390148529000,-0.206000000000
14.397835511000,-0.199000000000
14.405522493000,-0.201000000000
14.413209475000,-0.204000000000
14.420896457000,-0.199000000000
14.428583439000,-0.199000000000
14.436270421000,-0.199000000000
14.443957403000,-0.194000000000
14.451644385000,-0.192000000000
14.459331367000,-0.194000000000
14.467018349000,-0.189000000000
14.474705331000,-0.182000000000
14.482392313000,-0.182000000000
14.490079295000,-0.182000000000
14.497766277000,-0.172000000000
14.505453259000,-0.162000000000
14.513140241000,-0.172000000000
14.520827223000,-0.184000000000
14.528514205000,-0.179000000000
14.536201187000,-0.162000000000
14.543888169000,-0.137000000000
14.551575151000,-0.128000000000
14.559262133000,-0.132000000000
14.566949115000,-0.123000000000
14.574636097000,-0.110000000000
14.582323079000,-0.130000000000
14.590010061000,-0.162000000000
14.597697043000,-0.167000000000
14.605384025000,-0.160000000000
14.613071007000,-0.155000000000
14.620757989000,-0.147000000000
14.628444971000,-0.142000000000
14.636131953000,-0.140000000000
14.643818935000,-0.147000000000
14.651505917000,-0.167000000000
14.659192899000,-0.219000000000
14.666879881000,-0.258000000000
14.674566863000,0.049000000000
14.682253845000,0.819000000000
14.689940827000,1.420000000000
14.697627809000,1.243000000000
14.705314791000,0.280000000000
14.713001773000,-0.600000000000
14.720688755000,-0.502000000000
14.728375737000,-0.115000000000
14.736062719000,-0.177000000000
14.743749701000,-0.231000000000
14.751436683000,-0.128000000000
14.759123665000,-0.118000000000
14.766810647000,-0.137000000000
14.774497629000,-0.100000000000
14.782184611000,-0.073000000000
14.789871593000,-0.068000000000
14.797558575000,-0.051000000000
14.805245557000,-0.017000000000
14.812932539000,0.004000000000
14.820619521000,0.019000000000
14.828306503000,0.044000000000
14.835993485000,0.071000000000
14.843680467000,0.096000000000
14.851367449000,0.137000000000
14.859054431000,0.177000000000
14.866741413000,0.219000000000
14.874428395000,0.273000000000
14.882115414000,0.307000000000
14.889802535000,0.327000000000
14.897489656000,0.342000000000
14.905176777000,0.334000000000
14.912863898000,0.317000000000
14.920551019000,0.297000000000
14.928238140000,0.256000000000
14.935925261000,0.192000000000
14.943612382000,0.093000000000
14.951299503000,-0.036000000000
14.958986624000,-0.140000000000
14.966673745000,-0.206000000000
14.974360866000,-0.260000000000
14.982047987000,-0.295000000000
14.989735108000,-0.300000000000
14.997422229000,-0.307000000000
15.005109350000,-0.300000000000
15.012796471000,-0.275000000000
15.020483592000,-0.268000000000
15.028170713000,-0.260000000000
15.035857834000,-0.224000000000
15.043544955000,-0.206000000000
15.051232076000,-0.224000000000
15.058919197000,-0.219000000000
15.066606318000,-0.192000000000
15.074293439000,-0.187000000000
15.081980560000,-0.192000000000
15.089667681000,-0.182000000000
15.097354802000,-0.174000000000
15.105041923000,-0.172000000000
15.112729044000,-0.174000000000
15.120416165000,-0.187000000000
15.128103286000,-0.187000000000
15.135790407000,-0.177000000000
15.143477528000,-0.177000000000
15.151164649000,-0.167000000000
15.158851770000,-0.164000000000
15.166538891000,-0.187000000000
15.174226012000,-0.179000000000
15.181913133000,-0.145000000000
15.189600254000,-0.142000000000
15.197287375000,-0.147000000000
15.204974496000,-0.135000000000
15.212661617000,-0.128000000000
15.220348738000,-0.115000000000
15.228035859000,-0.115000000000
15.235722980000,-0.155000000000
15.243410101000,-0.182000000000
15.251097222000,-0.162000000000
15.258784343000,-0.150000000000
15.266471464000,-0.162000000000
15.274158585000,-0.167000000000
15.281845706000,-0.152000000000
15.289532827000,-0.140000000000
15.297219948000,-0.155000000000
15.304907069000,-0.192000000000
15.312594190000,-0.253000000000
15.320281311000,-0.238000000000
15.327968432000,0.209000000000
15.335655553000,1.006000000000
15.343342674000,1.361000000000
15.351029795000,0.849000000000
15.358716916000,-0.103000000000
15.366404037000,-0.637000000000
15.374091158000,-0.423000000000
15.381778279000,-0.162000000000
15.389465400000,-0.196000000000
15.397152521000,-0.179000000000
15.404839642000,-0.115000000000
15.412526763000,-0.125000000000
15.420213884000,-0.110000000000
15.427901005000,-0.071000000000
15.435588126000,-0.066000000000
15.443275311000,-0.056000000000
15.450962363000,-0.027000000000
15.458649415000,-0.002000000000
15.466336467000,0.014000000000
15.474023519000,0.039000000000
15.481710571000,0.059000000000
15.489397623000,0.088000000000
15.497084675000,0.125000000000
15.504771727000,0.160000000000
15.512458779000,0.199000000000
15.520145831000,0.241000000000
15.527832883000,0.275000000000
15.535519935000,0.310000000000
15.543206987000,0.337000000000
15.550894039000,0.334000000000
15.558581091000,0.320000000000
15.566268143000,0.305000000000
15.573955195000,0.273000000000
15.581642247000,0.219000000000
15.589329299000,0.130000000000
15.597016351000,0.009000000000
15.604703403000,-0.113000000000
15.612390455000,-0.209000000000
15.620077507000,-0.273000000000
15.627764559000,-0.317000000000
15.635451611000,-0.339000000000
15.643138663000,-0.344000000000
15.650825715000,-0.344000000000
15.658512767000,-0.329000000000
15.666199819000,-0.312000000000
15.673886871000,-0.300000000000
15.681573923000,-0.285000000000
15.689260975000,-0.275000000000
15.696948027000,-0.265000000000
15.704635079000,-0.243000000000
15.712322131000,-0.228000000000
15.720009183000,-0.221000000000
15.727696235000,-0.214000000000
15.735383287000,-0.204000000000
15.743070339000,-0.201000000000
15.750757391000,-0.209000000000
15.758444443000,-0.209000000000
15.766131495000,-0.201000000000
15.773818547000,-0.204000000000
15.781505599000,-0.206000000000
15.789192651000,-0.206000000000
15.796879703000,-0.206000000000
15.804566755000,-0.209000000000
15.812253807000,-0.204000000000
15.819940859000,-0.206000000000
15.827627911000,-0.206000000000
15.835314963000,-0.201000000000
15.843002015000,-0.196000000000
15.850689067000,-0.201000000000
15.858376119000,-0.209000000000
15.866063171000,-0.204000000000
15.873750223000,-0.177000000000
15.881437275000,-0.155000000000
15.889124327000,-0.157000000000
15.896811379000,-0.155000000000
15.904498431000,-0.142000000000
15.912185483000,-0.155000000000
15.919872535000,-0.182000000000
15.927559587000,-0.196000000000
15.935246639000,-0.196000000000
15.942933691000,-0.189000000000
15.950620743000,-0.184000000000
15.958307795000,-0.182000000000
15.965994847000,-0.177000000000
15.973681899000,-0.177000000000
15.981368951000,-0.194000000000
15.989056003000,-0.236000000000
15.996743055000,-0.310000000000
16.004430125000,-0.192000000000
16.012116898000,0.435000000000
16.019803671000,1.206000000000
16.027490444000,1.415000000000
16.035177217000,0.829000000000
16.042863990000,-0.219000000000
16.050550763000,-0.699000000000
16.058237536000,-0.352000000000
16.065924309000,-0.157000000000
16.073611082000,-0.283000000000
16.081297855000,-0.256000000000
16.088984628000,-0.174000000000
16.096671401000,-0.192000000000
16.104358174000,-0.179000000000
16.112044947000,-0.135000000000
16.119731720000,-0.123000000000
16.127418493000,-0.118000000000
16.135105266000,-0.096000000000
16.142792039000,-0.073000000000
16.150478812000,-0.056000000000
16.158165585000,-0.036000000000
16.165852358000,-0.012000000000
16.173539131000,0.014000000000
16.181225904000,0.044000000000
16.188912677000,0.076000000000
16.196599450000,0.113000000000
16.204286223000,0.145000000000
16.211972996000,0.179000000000
16.219659769000,0.214000000000
16.227346542000,0.231000000000
16.235033315000,0.231000000000
16.242720088000,0.221000000000
16.250406861000,0.206000000000
16.258093634000,0.187000000000
16.265780407000,0.160000000000
16.273467180000,0.091000000000
16.281153953000,-0.017000000000
16.288840726000,-0.120000000000
16.296527499000,-0.204000000000
16.304214272000,-0.268000000000
16.311901045000,-0.305000000000
16.319587818000,-0.322000000000
16.327274591000,-0.324000000000
16.334961364000,-0.315000000000
16.342648137000,-0.300000000000
16.350334910000,-0.285000000000
16.358021683000,-0.273000000000
16.365708456000,-0.263000000000
16.373395229000,-0.251000000000
16.381082002000,-0.241000000000
16.388768775000,-0.233000000000
16.396455548000,-0.228000000000
16.404142321000,-0.226000000000
16.411829094000,-0.221000000000
16.419515867000,-0.216000000000
16.427202640000,-0.214000000000
16.434889413000,-0.209000000000
16.442576186000,-0.209000000000
16.450262959000,-0.211000000000
16.457949732000,-0.209000000000
16.465636505000,-0.204000000000
16.473323278000,-0.206000000000
16.481010051000,-0.204000000000
16.488696824000,-0.199000000000
16.496383597000,-0.199000000000
16.504070370000,-0.194000000000
16.511757143000,-0.187000000000
16.519443916000,-0.189000000000
16.527130689000,-0.201000000000
16.534817462000,-0.201000000000
16.542504235000,-0.174000000000
16.550191008000,-0.150000000000
16.557877781000,-0.152000000000
16.565564587000,-0.152000000000
16.573251708000,-0.140000000000
16.580938829000,-0.140000000000
16.588625950000,-0.162000000000
16.596313071000,-0.184000000000
16.604000192000,-0.187000000000
16.611687313000,-0.182000000000
16.619374434000,-0.179000000000
16.627061555000,-0.174000000000
16.634748676000,-0.167000000000
16.642435797000,-0.167000000000
16.650122918000,-0.174000000000
16.657810039000,-0.211000000000
16.665497160000,-0.292000000000
16.673184281000,-0.258000000000
16.680871402000,0.248000000000
16.688558523000,1.117000000000
16.696245644000,1.676000000000
16.703932765000,1.317000000000
16.711619886000,0.088000000000
16.719307007000,-0.728000000000
16.726994128000,-0.423000000000
16.734681249000,-0.115000000000
16.742368370000,-0.280000000000
16.750055491000,-0.297000000000
16.757742612000,-0.179000000000
16.765429733000,-0.194000000000
16.773116854000,-0.199000000000
16.780803975000,-0.150000000000
16.788491096000,-0.132000000000
16.796178217000,-0.125000000000
16.803865338000,-0.091000000000
16.811552459000,-0.071000000000
16.819239580000,-0.056000000000
16.826926701000,-0.029000000000
16.834613822000,-0.002000000000
16.842300943000,0.022000000000
16.849988064000,0.056000000000
16.857675185000,0.096000000000
16.865362306000,0.137000000000
16.873049427000,0.174000000000
16.880736548000,0.216000000000
16.888423669000,0.260000000000
16.896110790000,0.288000000000
16.903797911000,0.297000000000
16.911485032000,0.297000000000
16.919172153000,0.283000000000
16.926859274000,0.253000000000
16.934546395000,0.209000000000
16.942233516000,0.130000000000
16.949920637000,0.014000000000
16.957607758000,-0.108000000000
16.965294879000,-0.209000000000
16.972982000000,-0.288000000000
16.980669121000,-0.334000000000
16.988356242000,-0.347000000000
16.996043363000,-0.349000000000
17.003730484000,-0.352000000000
17.011417605000,-0.342000000000
17.019104726000,-0.317000000000
17.026791847000,-0.305000000000
17.034478968000,-0.292000000000
17.042166089000,-0.275000000000
17.049853210000,-0.260000000000
17.057540331000,-0.258000000000
17.065227452000,-0.251000000000
17.072914573000,-0.243000000000
17.080601694000,-0.238000000000
17.088288815000,-0.236000000000
17.095975936000,-0.228000000000
17.103663057000,-0.226000000000
17.111350178000,-0.228000000000
17.119037299000,-0.224000000000
17.126724488000,-0.219000000000
17.134411609000,-0.219000000000
17.142098730000,-0.221000000000
17.149785851000,-0.214000000000
17.157472972000,-0.211000000000
17.165160093000,-0.211000000000
17.172847214000,-0.209000000000
17.180534335000,-0.209000000000
17.188221456000,-0.216000000000
17.195908577000,-0.216000000000
17.203595698000,-0.194000000000
17.211282819000,-0.164000000000
17.218969940000,-0.160000000000
17.226657061000,-0.162000000000
17.234344182000,-0.152000000000
17.242031303000,-0.142000000000
17.249718424000,-0.155000000000
17.257405545000,-0.187000000000
17.265092666000,-0.199000000000
17.272779787000,-0.187000000000
17.280466908000,-0.174000000000
17.288154029000,-0.172000000000
17.295841150000,-0.167000000000
17.303528271000,-0.162000000000
17.311215392000,-0.167000000000
17.318902513000,-0.196000000000
17.326589634000,-0.280000000000
17.334276755000,-0.332000000000
17.341963876000,0.012000000000
17.349650997000,0.920000000000
17.357338118000,1.851000000000
17.365025239000,1.927000000000
17.372712360000,0.708000000000
17.380399481000,-0.640000000000
17.388086602000,-0.622000000000
17.395773723000,-0.130000000000
17.403460844000,-0.246000000000
17.411147965000,-0.349000000000
17.418835086000,-0.206000000000
17.426522207000,-0.194000000000
17.434209328000,-0.228000000000
17.441896449000,-0.169000000000
17.449583570000,-0.132000000000
17.457270691000,-0.132000000000
17.464957812000,-0.105000000000
17.472644933000,-0.076000000000
17.480332054000,-0.059000000000
17.488019175000,-0.032000000000
17.495706296000,0.002000000000
17.503393417000,0.032000000000
17.511080538000,0.066000000000
17.518767659000,0.105000000000
17.526454780000,0.152000000000
17.534141901000,0.201000000000
17.541829022000,0.251000000000
17.549516143000,0.297000000000
17.557203264000,0.337000000000
17.564890385000,0.354000000000
17.572577506000,0.354000000000
17.580264627000,0.347000000000
17.587951748000,0.322000000000
17.595638869000,0.278000000000
17.603325990000,0.199000000000
17.611013111000,0.081000000000
17.618700232000,-0.054000000000
17.626387353000,-0.172000000000
17.634074474000,-0.260000000000
17.641761595000,-0.322000000000
17.649448716000,-0.354000000000
17.657135837000,-0.361000000000
17.664822958000,-0.356000000000
17.672510079000,-0.344000000000
17.680197200000,-0.332000000000
17.687884385000,-0.312000000000
17.695571297000,-0.292000000000
17.703258209000,-0.278000000000
17.710945121000,-0.268000000000
17.718632033000,-0.263000000000
17.726318945000,-0.253000000000
17.734005857000,-0.246000000000
17.741692769000,-0.238000000000
17.749379681000,-0.231000000000
17.757066593000,-0.231000000000
17.764753505000,-0.231000000000
17.772440417000,-0.228000000000
17.780127329000,-0.224000000000
17.787814241000,-0.224000000000
17.795501153000,-0.224000000000
17.803188065000,-0.219000000000
17.810874977000,-0.219000000000
17.818561889000,-0.216000000000
17.826248801000,-0.211000000000
17.833935713000,-0.206000000000
17.841622625000,-0.204000000000
17.849309537000,-0.206000000000
17.856996449000,-0.214000000000
17.864683361000,-0.209000000000
17.872370273000,-0.184000000000
17.880057185000,-0.157000000000
17.887744097000,-0.152000000000
17.895431009000,-0.155000000000
17.903117921000,-0.145000000000
17.910804833000,-0.145000000000
17.918491745000,-0.169000000000
17.926178657000,-0.196000000000
17.933865569000,-0.194000000000
17.941552481000,-0.179000000000
17.949239393000,-0.174000000000
17.956926305000,-0.169000000000
17.964613217000,-0.164000000000
17.972300129000,-0.164000000000
17.979987041000,-0.177000000000
17.987673953000,-0.231000000000
17.995360865000,-0.327000000000
18.003047777000,-0.253000000000
18.010734689000,0.374000000000
18.018421601000,1.390000000000
18.026108513000,2.023000000000
18.033795425000,1.472000000000
18.041482337000,-0.049000000000
18.049169249000,-0.804000000000
18.056856161000,-0.349000000000
18.064543073000,-0.132000000000
18.072229985000,-0.342000000000
18.079916897000,-0.290000000000
18.087603809000,-0.179000000000
18.095290721000,-0.221000000000
18.102977633000,-0.211000000000
18.110664545000,-0.147000000000
18.118351457000,-0.137000000000
18.126038369000,-0.128000000000
18.133725281000,-0.091000000000
18.141412193000,-0.071000000000
18.149099105000,-0.054000000000
18.156786017000,-0.024000000000
18.164472929000,0.009000000000
18.172159841000,0.041000000000
18.179846753000,0.073000000000
18.187533665000,0.115000000000
18.195220577000,0.164000000000
18.202907489000,0.216000000000
18.210594401000,0.263000000000
18.218281313000,0.302000000000
18.225968225000,0.332000000000
18.233655137000,0.342000000000
18.241342049000,0.339000000000
18.249029025000,0.324000000000
18.256715937000,0.290000000000
18.264402849000,0.228000000000
18.272089761000,0.137000000000
18.279776673000,0.014000000000
18.287463585000,-0.115000000000
18.295150497000,-0.214000000000
18.302837409000,-0.280000000000
18.310524321000,-0.327000000000
18.318211233000,-0.349000000000
18.325898145000,-0.347000000000
18.333585057000,-0.339000000000
18.341271969000,-0.329000000000
18.348958881000,-0.305000000000
18.356645793000,-0.285000000000
18.364332705000,-0.278000000000
18.372019617000,-0.268000000000
18.379706529000,-0.251000000000
18.387393441000,-0.241000000000
18.395080353000,-0.238000000000
18.402767265000,-0.238000000000
18.410454177000,-0.226000000000
18.418141089000,-0.216000000000
18.425828001000,-0.214000000000
18.433514913000,-0.214000000000
18.441201825000,-0.209000000000
18.448888737000,-0.206000000000
18.456575649000,-0.209000000000
18.464262561000,-0.206000000000
18.471949473000,-0.204000000000
18.479636385000,-0.206000000000
18.487323297000,-0.204000000000
18.495010209000,-0.196000000000
18.502697121000,-0.192000000000
18.510384033000,-0.192000000000
18.518070945000,-0.201000000000
18.525757857000,-0.199000000000
18.533444769000,-0.172000000000
18.541131681000,-0.147000000000
18.548818593000,-0.145000000000
18.556505505000,-0.145000000000
18.564192417000,-0.137000000000
18.571879329000,-0.140000000000
18.579566241000,-0.164000000000
18.587253153000,-0.184000000000
18.594940065000,-0.179000000000
18.602626977000,-0.172000000000
18.610313889000,-0.177000000000
18.618000801000,-0.167000000000
18.625687713000,-0.157000000000
18.633374625000,-0.160000000000
18.641061537000,-0.172000000000
18.648748449000,-0.209000000000
18.656435361000,-0.295000000000
18.664122273000,-0.238000000000
18.671809185000,0.327000000000
18.679496097000,1.213000000000
18.687183009000,1.681000000000
18.694869921000,1.174000000000
18.702556833000,-0.061000000000
18.710243745000,-0.713000000000
18.717930657000,-0.361000000000
18.725617569000,-0.125000000000
18.733304481000,-0.275000000000
18.740991393000,-0.263000000000
18.748678305000,-0.164000000000
18.756365217000,-0.179000000000
18.764052129000,-0.184000000000
18.771739041000,-0.132000000000
18.779425953000,-0.105000000000
18.787112865000,-0.088000000000
18.794799777000,-0.059000000000
18.802486689000,-0.044000000000
18.810173661000,-0.029000000000
18.817860782000,-0.007000000000
18.825547903000,0.017000000000
18.833235024000,0.049000000000
18.840922145000,0.093000000000
18.848609266000,0.142000000000
18.856296387000,0.174000000000
18.863983508000,0.196000000000
18.871670629000,0.246000000000
18.879357750000,0.302000000000
18.887044871000,0.322000000000
18.894731992000,0.322000000000
18.902419113000,0.320000000000
18.910106234000,0.307000000000
18.917793355000,0.278000000000
18.925480476000,0.228000000000
18.933167597000,0.132000000000
18.940854718000,0.000000000000
18.948541839000,-0.110000000000
18.956228960000,-0.194000000000
18.963916081000,-0.265000000000
18.971603202000,-0.310000000000
18.979290323000,-0.327000000000
18.986977444000,-0.332000000000
18.994664565000,-0.329000000000
19.002351686000,-0.315000000000
19.010038807000,-0.295000000000
19.017725928000,-0.283000000000
19.025413049000,-0.270000000000
19.033100170000,-0.251000000000
19.040787291000,-0.243000000000
19.048474412000,-0.243000000000
19.056161533000,-0.231000000000
19.063848654000,-0.214000000000
19.071535775000,-0.199000000000
19.079222896000,-0.192000000000
19.086910017000,-0.189000000000
19.094597138000,-0.192000000000
19.102284259000,-0.196000000000
19.109971380000,-0.196000000000
19.117658501000,-0.192000000000
19.125345622000,-0.189000000000
19.133032743000,-0.189000000000
19.140719864000,-0.177000000000
19.148406985000,-0.177000000000
19.156094106000,-0.201000000000
19.163781227000,-0.204000000000
19.171468348000,-0.172000000000
19.179155469000,-0.147000000000
19.186842590000,-0.142000000000
19.194529711000,-0.130000000000
19.202216832000,-0.132000000000
19.209903953000,-0.157000000000
19.217591074000,-0.160000000000
19.225278195000,-0.160000000000
19.232965316000,-0.177000000000
19.240652437000,-0.174000000000
19.248339558000,-0.162000000000
19.256026679000,-0.169000000000
19.263713800000,-0.182000000000
19.271400921000,-0.162000000000
19.279088042000,-0.142000000000
19.286775163000,-0.174000000000
19.294462284000,-0.248000000000
19.302149405000,-0.263000000000
19.309836526000,0.083000000000
19.317523647000,0.812000000000
19.325210768000,1.235000000000
19.332897889000,0.947000000000
19.340585010000,0.172000000000
19.348272131000,-0.502000000000
19.355959252000,-0.487000000000
19.363646373000,-0.192000000000
19.371333558000,-0.174000000000
19.379020679000,-0.206000000000
19.386707800000,-0.142000000000
19.394394921000,-0.118000000000
19.402082042000,-0.118000000000
19.409769163000,-0.098000000000
19.417456284000,-0.086000000000
19.425143405000,-0.073000000000
19.432830526000,-0.041000000000
19.440517647000,-0.022000000000
19.448204768000,-0.014000000000
19.455891889000,0.014000000000
19.463579010000,0.046000000000
19.471266131000,0.056000000000
19.478953252000,0.093000000000
19.486640373000,0.140000000000
19.494327494000,0.164000000000
19.502014615000,0.209000000000
19.509701736000,0.263000000000
19.517388857000,0.285000000000
19.525075978000,0.310000000000
19.532763099000,0.334000000000
19.540450220000,0.312000000000
19.548137341000,0.278000000000
19.555824462000,0.280000000000
19.563511583000,0.238000000000
19.571198704000,0.123000000000
19.578885825000,0.022000000000
19.586572946000,-0.054000000000
19.594260067000,-0.152000000000
19.601947188000,-0.241000000000
19.609634309000,-0.285000000000
19.617321430000,-0.307000000000
19.625008551000,-0.324000000000
19.632695672000,-0.300000000000
19.640382793000,-0.273000000000
19.648069914000,-0.278000000000
19.655757035000,-0.273000000000
19.663444156000,-0.256000000000
19.671131277000,-0.251000000000
19.678818398000,-0.233000000000
19.686505519000,-0.211000000000
19.694192640000,-0.206000000000
19.701879761000,-0.206000000000
19.709566882000,-0.204000000000
19.717254003000,-0.182000000000
19.724941124000,-0.162000000000
19.732628245000,-0.174000000000
19.740315366000,-0.172000000000
19.748002487000,-0.167000000000
19.755689608000,-0.182000000000
19.763376729000,-0.174000000000
19.771063850000,-0.164000000000
19.778750971000,-0.182000000000
19.786438092000,-0.189000000000
19.794125213000,-0.172000000000
19.801812334000,-0.145000000000
19.809499455000,-0.128000000000
19.817186576000,-0.130000000000
19.824873697000,-0.130000000000
19.832560818000,-0.125000000000
19.840247939000,-0.147000000000
19.847935060000,-0.174000000000
19.855622181000,-0.182000000000
19.863309302000,-0.179000000000
19.870996423000,-0.172000000000
19.878683544000,-0.157000000000
19.886370665000,-0.150000000000
19.894057786000,-0.157000000000
19.901744907000,-0.160000000000
19.909432028000,-0.169000000000
19.917119149000,-0.228000000000
19.924806270000,-0.275000000000
19.932493459000,-0.027000000000
19.940180232000,0.630000000000
19.947867005000,1.088000000000
19.955553778000,0.854000000000
19.963240551000,0.179000000000
19.970927324000,-0.418000000000
19.978614097000,-0.497000000000
19.986300870000,-0.263000000000
19.993987643000,-0.182000000000
20.001674416000,-0.167000000000
20.009361189000,-0.128000000000
20.017047962000,-0.130000000000
20.024734735000,-0.125000000000
20.032421508000,-0.088000000000
20.040108281000,-0.073000000000
20.047795054000,-0.059000000000
20.055481827000,-0.029000000000
20.063168600000,-0.012000000000
20.070855373000,0.000000000000
20.078542146000,0.007000000000
20.086228919000,0.024000000000
20.093915692000,0.064000000000
20.101602465000,0.093000000000
20.109289238000,0.118000000000
20.116976011000,0.167000000000
20.124662784000,0.196000000000
20.132349557000,0.211000000000
20.140036330000,0.256000000000
20.147723103000,0.278000000000
20.155409876000,0.270000000000
20.163096649000,0.273000000000
20.170783422000,0.263000000000
20.178470195000,0.241000000000
20.186156968000,0.199000000000
20.193843741000,0.108000000000
20.201530514000,0.002000000000
20.209217287000,-0.086000000000
20.216904060000,-0.177000000000
20.224590833000,-0.256000000000
20.232277606000,-0.292000000000
20.239964379000,-0.300000000000
20.247651152000,-0.302000000000
20.255337925000,-0.310000000000
20.263024698000,-0.317000000000
20.270711471000,-0.295000000000
20.278398244000,-0.268000000000
20.286085017000,-0.263000000000
20.293771790000,-0.258000000000
20.301458563000,-0.238000000000
20.309145336000,-0.219000000000
20.316832109000,-0.209000000000
20.324518882000,-0.209000000000
20.332205655000,-0.204000000000
20.339892428000,-0.182000000000
20.347579201000,-0.167000000000
20.355265974000,-0.177000000000
20.362952747000,-0.179000000000
20.370639520000,-0.172000000000
20.378326293000,-0.172000000000
20.386013066000,-0.179000000000
20.393699839000,-0.182000000000
20.401386612000,-0.184000000000
20.409073385000,-0.187000000000
20.416760158000,-0.187000000000
20.424446931000,-0.172000000000
20.432133704000,-0.157000000000
20.439820477000,-0.160000000000
20.447507250000,-0.157000000000
20.455194023000,-0.150000000000
20.462880796000,-0.152000000000
20.470567569000,-0.177000000000
20.478254342000,-0.199000000000
20.485941115000,-0.196000000000
20.493627925000,-0.194000000000
20.501314977000,-0.201000000000
20.509002029000,-0.189000000000
20.516689081000,-0.174000000000
20.524376133000,-0.177000000000
20.532063185000,-0.189000000000
20.539750237000,-0.221000000000
20.547437289000,-0.278000000000
20.555124341000,-0.118000000000
20.562811393000,0.482000000000
20.570498445000,1.026000000000
20.578185497000,0.974000000000
20.585872549000,0.438000000000
20.593559601000,-0.280000000000
20.601246653000,-0.590000000000
20.608933705000,-0.347000000000
20.616620757000,-0.187000000000
20.624307809000,-0.233000000000
20.631994861000,-0.201000000000
20.639681913000,-0.152000000000
20.647368965000,-0.162000000000
20.655056017000,-0.152000000000
20.662743069000,-0.115000000000
20.670430121000,-0.096000000000
20.678117173000,-0.096000000000
20.685804225000,-0.081000000000
20.693491277000,-0.061000000000
20.701178329000,-0.039000000000
20.708865381000,-0.019000000000
20.716552433000,-0.002000000000
20.724239485000,0.022000000000
20.731926537000,0.051000000000
20.739613589000,0.076000000000
20.747300641000,0.113000000000
20.754987693000,0.147000000000
20.762674745000,0.172000000000
20.770361797000,0.189000000000
20.778048849000,0.192000000000
20.785735901000,0.182000000000
20.793422953000,0.174000000000
20.801110005000,0.167000000000
20.808797057000,0.145000000000
20.816484109000,0.100000000000
20.824171161000,0.019000000000
20.831858213000,-0.083000000000
20.839545265000,-0.169000000000
20.847232317000,-0.226000000000
20.854919369000,-0.265000000000
20.862606421000,-0.297000000000
20.870293473000,-0.307000000000
20.877980525000,-0.295000000000
20.885667577000,-0.290000000000
20.893354629000,-0.278000000000
20.901041681000,-0.256000000000
20.908728733000,-0.253000000000
20.916415785000,-0.246000000000
20.924102837000,-0.231000000000
20.931789889000,-0.219000000000
20.939476941000,-0.211000000000
20.947163993000,-0.206000000000
20.954851045000,-0.209000000000
20.962538097000,-0.201000000000
20.970225149000,-0.192000000000
20.977912201000,-0.194000000000
20.985599253000,-0.194000000000
20.993286305000,-0.192000000000
21.000973357000,-0.192000000000
21.008660409000,-0.192000000000
21.016347461000,-0.187000000000
21.024034513000,-0.187000000000
21.031721565000,-0.194000000000
21.039408617000,-0.199000000000
21.047095669000,-0.196000000000
21.054782735000,-0.177000000000
21.062469856000,-0.157000000000
21.070156977000,-0.157000000000
21.077844098000,-0.162000000000
21.085531219000,-0.155000000000
21.093218340000,-0.150000000000
21.100905461000,-0.164000000000
21.108592582000,-0.189000000000
21.116279703000,-0.201000000000
21.123966824000,-0.196000000000
21.131653945000,-0.187000000000
21.139341066000,-0.177000000000
21.147028187000,-0.177000000000
21.154715308000,-0.177000000000
21.162402429000,-0.179000000000
21.170089550000,-0.204000000000
21.177776671000,-0.263000000000
21.185463792000,-0.221000000000
21.193150913000,0.211000000000
21.200838034000,0.893000000000
21.208525155000,1.218000000000
21.216212276000,0.901000000000
21.223899397000,0.039000000000
21.231586518000,-0.635000000000
21.239273639000,-0.460000000000
21.246960760000,-0.132000000000
21.254647881000,-0.216000000000
21.262335002000,-0.263000000000
21.270022123000,-0.162000000000
21.277709244000,-0.155000000000
21.285396365000,-0.172000000000
21.293083486000,-0.128000000000
21.300770607000,-0.103000000000
21.308457728000,-0.100000000000
21.316144849000,-0.076000000000
21.323831970000,-0.049000000000
21.331519091000,-0.036000000000
21.339206212000,-0.019000000000
21.346893333000,0.000000000000
21.354580454000,0.027000000000
21.362267575000,0.056000000000
21.369954696000,0.086000000000
21.377641817000,0.118000000000
21.385328938000,0.155000000000
21.393016059000,0.194000000000
21.400703180000,0.221000000000
21.408390301000,0.236000000000
21.416077422000,0.243000000000
21.423764543000,0.243000000000
21.431451664000,0.226000000000
21.439138785000,0.204000000000
21.446825906000,0.169000000000
21.454513027000,0.100000000000
21.462200148000,-0.002000000000
21.469887269000,-0.110000000000
21.477574390000,-0.196000000000
21.485261511000,-0.253000000000
21.492948632000,-0.292000000000
21.500635753000,-0.310000000000
21.508322874000,-0.310000000000
21.516009995000,-0.302000000000
21.523697116000,-0.288000000000
21.531384237000,-0.270000000000
21.539071358000,-0.263000000000
21.546758479000,-0.258000000000
21.554445600000,-0.243000000000
21.562132721000,-0.228000000000
21.569819842000,-0.224000000000
21.577506963000,-0.221000000000
21.585194084000,-0.219000000000
21.592881205000,-0.219000000000
21.600568326000,-0.216000000000
21.608255447000,-0.211000000000
21.615942632000,-0.211000000000
21.623629614000,-0.209000000000
21.631316596000,-0.204000000000
21.639003578000,-0.204000000000
21.646690560000,-0.204000000000
21.654377542000,-0.199000000000
21.662064524000,-0.192000000000
21.669751506000,-0.192000000000
21.677438488000,-0.194000000000
21.685125470000,-0.196000000000
21.692812452000,-0.199000000000
21.700499434000,-0.192000000000
21.708186416000,-0.169000000000
21.715873398000,-0.152000000000
21.723560380000,-0.152000000000
21.731247362000,-0.150000000000
21.738934344000,-0.140000000000
21.746621326000,-0.145000000000
21.754308308000,-0.172000000000
21.761995290000,-0.194000000000
21.769682272000,-0.189000000000
21.777369254000,-0.179000000000
21.785056236000,-0.177000000000
21.792743218000,-0.172000000000
21.800430200000,-0.164000000000
21.808117182000,-0.162000000000
21.815804164000,-0.172000000000
21.823491146000,-0.206000000000
21.831178128000,-0.278000000000
21.838865110000,-0.231000000000
21.846552092000,0.273000000000
21.854239074000,1.070000000000
21.861926056000,1.496000000000
21.869613038000,1.093000000000
21.877300020000,-0.014000000000
21.884987002000,-0.696000000000
21.892673984000,-0.386000000000
21.900360966000,-0.103000000000
21.908047948000,-0.251000000000
21.915734930000,-0.260000000000
21.923421912000,-0.155000000000
21.931108894000,-0.167000000000
21.938795876000,-0.172000000000
21.946482858000,-0.123000000000
21.954169840000,-0.100000000000
21.961856822000,-0.096000000000
21.969543804000,-0.071000000000
21.977230786000,-0.049000000000
21.984917768000,-0.029000000000
21.992604750000,-0.007000000000
22.000291732000,0.017000000000
22.007978714000,0.044000000000
22.015665696000,0.073000000000
22.023352678000,0.105000000000
22.031039660000,0.145000000000
22.038726642000,0.187000000000
22.046413624000,0.224000000000
22.054100606000,0.256000000000
22.061787588000,0.278000000000
22.069474570000,0.285000000000
22.077161552000,0.278000000000
22.084848534000,0.263000000000
22.092535516000,0.238000000000
22.100222498000,0.196000000000
22.107909480000,0.120000000000
22.115596462000,0.009000000000
22.123283444000,-0.108000000000
22.130970426000,-0.199000000000
22.138657408000,-0.258000000000
22.146344390000,-0.297000000000
22.154031372000,-0.320000000000
22.161718354000,-0.322000000000
22.169405336000,-0.310000000000
22.177092359000,-0.297000000000
22.184779202000,-0.288000000000
22.192466045000,-0.275000000000
22.200152888000,-0.260000000000
22.207839731000,-0.251000000000
22.215526574000,-0.241000000000
22.223213417000,-0.233000000000
22.230900260000,-0.228000000000
22.238587103000,-0.226000000000
22.246273946000,-0.224000000000
22.253960789000,-0.221000000000
22.261647632000,-0.221000000000
22.269334475000,-0.219000000000
22.277021318000,-0.214000000000
22.284708161000,-0.214000000000
22.292395004000,-0.211000000000
22.300081847000,-0.209000000000
22.307768690000,-0.206000000000
22.315455533000,-0.204000000000
22.323142376000,-0.199000000000
22.330829219000,-0.194000000000
22.338516062000,-0.189000000000
22.346202905000,-0.189000000000
22.353889748000,-0.184000000000
22.361576591000,-0.184000000000
22.369263434000,-0.189000000000
22.376950277000,-0.189000000000
22.384637120000,-0.174000000000
22.392323963000,-0.150000000000
22.400010806000,-0.135000000000
22.407697649000,-0.132000000000
22.415384492000,-0.128000000000
22.423071335000,-0.125000000000
22.430758178000,-0.142000000000
22.438445021000,-0.174000000000
22.446131864000,-0.184000000000
22.453818707000,-0.174000000000
22.461505550000,-0.162000000000
22.469192393000,-0.160000000000
22.476879236000,-0.157000000000
22.484566079000,-0.152000000000
22.492252922000,-0.157000000000
22.499939765000,-0.182000000000
22.507626608000,-0.246000000000
22.515313451000,-0.300000000000
22.523000294000,-0.034000000000
22.530687137000,0.740000000000
22.538373980000,1.533000000000
22.546060823000,1.609000000000
22.553747666000,0.627000000000
22.561434509000,-0.551000000000
22.569121352000,-0.612000000000
22.576808195000,-0.142000000000
22.584495038000,-0.189000000000
22.592181881000,-0.307000000000
22.599868724000,-0.189000000000
22.607555567000,-0.155000000000
22.615242410000,-0.189000000000
22.622929253000,-0.145000000000
22.630616096000,-0.110000000000
22.638302939000,-0.108000000000
22.645989782000,-0.083000000000
22.653676625000,-0.056000000000
22.661363468000,-0.041000000000
22.669050311000,-0.022000000000
22.676737154000,0.004000000000
22.684423997000,0.029000000000
22.692110840000,0.056000000000
22.699797683000,0.091000000000
22.707484526000,0.128000000000
22.715171369000,0.169000000000
22.722858212000,0.206000000000
22.730545055000,0.243000000000
22.738231908000,0.270000000000
22.745919029000,0.285000000000
22.753606150000,0.283000000000
22.761293271000,0.270000000000
22.768980392000,0.251000000000
22.776667513000,0.219000000000
22.784354634000,0.162000000000
22.792041755000,0.073000000000
22.799728876000,-0.041000000000
22.807415997000,-0.147000000000
22.815103118000,-0.226000000000
22.822790239000,-0.280000000000
22.830477360000,-0.310000000000
22.838164481000,-0.320000000000
22.845851602000,-0.315000000000
22.853538723000,-0.305000000000
22.861225844000,-0.292000000000
22.868912965000,-0.278000000000
22.876600086000,-0.263000000000
22.884287207000,-0.251000000000
22.891974328000,-0.243000000000
22.899661449000,-0.236000000000
22.907348570000,-0.228000000000
22.915035691000,-0.224000000000
22.922722812000,-0.221000000000
22.930409933000,-0.221000000000
22.938097054000,-0.219000000000
22.945784175000,-0.214000000000
22.953471296000,-0.214000000000
22.961158417000,-0.214000000000
22.968845538000,-0.209000000000
22.976532659000,-0.204000000000
22.984219780000,-0.204000000000
22.991906901000,-0.204000000000
22.999594022000,-0.201000000000
23.007281143000,-0.196000000000
23.014968264000,-0.194000000000
23.022655385000,-0.189000000000
23.030342506000,-0.182000000000
23.038029627000,-0.179000000000
23.045716748000,-0.179000000000
23.053403869000,-0.182000000000
23.061090990000,-0.187000000000
23.068778111000,-0.184000000000
23.076465232000,-0.162000000000
23.084152353000,-0.135000000000
23.091839474000,-0.132000000000
23.099526595000,-0.135000000000
23.107213716000,-0.123000000000
23.114900837000,-0.123000000000
23.122587958000,-0.152000000000
23.130275079000,-0.177000000000
23.137962200000,-0.177000000000
23.145649321000,-0.167000000000
23.153336442000,-0.160000000000
23.161023563000,-0.157000000000
23.168710684000,-0.155000000000
23.176397805000,-0.155000000000
23.184084926000,-0.162000000000
23.191772047000,-0.194000000000
23.199459168000,-0.283000000000
23.207146289000,-0.285000000000
23.214833410000,0.169000000000
23.222520531000,1.056000000000
23.230207652000,1.713000000000
23.237894773000,1.437000000000
23.245581894000,0.187000000000
23.253269015000,-0.726000000000
23.260956136000,-0.443000000000
23.268643257000,-0.098000000000
23.276330378000,-0.263000000000
23.284017499000,-0.285000000000
23.291704620000,-0.160000000000
23.299391805000,-0.174000000000
23.307078926000,-0.184000000000
23.314766047000,-0.130000000000
23.322453168000,-0.113000000000
23.330140289000,-0.108000000000
23.337827410000,-0.078000000000
23.345514531000,-0.051000000000
23.353201652000,-0.034000000000
23.360888773000,-0.012000000000
23.368575894000,0.012000000000
23.376263015000,0.039000000000
23.383950136000,0.071000000000
23.391637257000,0.108000000000
23.399324378000,0.142000000000
23.407011499000,0.182000000000
23.414698620000,0.221000000000
23.422385741000,0.253000000000
23.430072862000,0.280000000000
23.437759983000,0.292000000000
23.445447104000,0.285000000000
23.453134225000,0.265000000000
23.460821346000,0.243000000000
23.468508467000,0.211000000000
23.476195588000,0.150000000000
23.483882709000,0.051000000000
23.491569830000,-0.061000000000
23.499256951000,-0.160000000000
23.506944072000,-0.231000000000
23.514631193000,-0.275000000000
23.522318314000,-0.302000000000
23.530005435000,-0.312000000000
23.537692556000,-0.307000000000
23.545379677000,-0.295000000000
23.553066798000,-0.285000000000
23.560753919000,-0.268000000000
23.568441040000,-0.251000000000
23.576128161000,-0.241000000000
23.583815282000,-0.233000000000
23.591502403000,-0.224000000000
23.599189524000,-0.219000000000
23.606876645000,-0.216000000000
23.614563766000,-0.214000000000
23.622250887000,-0.204000000000
23.629938008000,-0.196000000000
23.637625129000,-0.204000000000
23.645312250000,-0.204000000000
23.652999371000,-0.189000000000
23.660686492000,-0.189000000000
23.668373613000,-0.204000000000
23.676060734000,-0.196000000000
23.683747855000,-0.187000000000
23.691434976000,-0.187000000000
23.699122097000,-0.179000000000
23.706809218000,-0.172000000000
23.714496339000,-0.179000000000
23.722183460000,-0.177000000000
23.729870581000,-0.162000000000
23.737557702000,-0.164000000000
23.745244823000,-0.184000000000
23.752931944000,-0.179000000000
23.760619065000,-0.150000000000
23.768306186000,-0.132000000000
23.775993307000,-0.130000000000
23.783680428000,-0.113000000000
23.791367549000,-0.098000000000
23.799054670000,-0.118000000000
23.806741791000,-0.147000000000
23.814428912000,-0.157000000000
23.822116033000,-0.164000000000
23.829803154000,-0.162000000000
23.837490275000,-0.150000000000
23.845177396000,-0.142000000000
23.852864517000,-0.145000000000
23.860551706000,-0.142000000000
23.868238827000,-0.140000000000
23.875925948000,-0.164000000000
23.883613069000,-0.241000000000
23.891300190000,-0.278000000000
23.898987311000,0.064000000000
23.906674432000,0.861000000000
23.914361553000,1.462000000000
23.922048674000,1.260000000000
23.929735795000,0.278000000000
23.937422916000,-0.585000000000
23.945110037000,-0.489000000000
23.952797158000,-0.137000000000
23.960484279000,-0.199000000000
23.968171400000,-0.233000000000
23.975858521000,-0.135000000000
23.983545642000,-0.137000000000
23.991232763000,-0.145000000000
23.998919884000,-0.098000000000
24.006607005000,-0.078000000000
24.014294126000,-0.068000000000
24.021981247000,-0.049000000000
24.029668368000,-0.029000000000
24.037355489000,-0.012000000000
24.045042610000,0.014000000000
24.052729731000,0.049000000000
24.060416852000,0.073000000000
24.068103973000,0.098000000000
24.075791094000,0.130000000000
24.083478215000,0.172000000000
24.091165336000,0.219000000000
24.098852457000,0.256000000000
24.106539578000,0.290000000000
24.114226699000,0.317000000000
24.121913820000,0.320000000000
24.129600941000,0.312000000000
24.137288062000,0.307000000000
24.144975183000,0.280000000000
24.152662304000,0.238000000000
24.160349425000,0.179000000000
24.168036546000,0.078000000000
24.175723667000,-0.044000000000
24.183410788000,-0.147000000000
24.191097909000,-0.219000000000
24.198785030000,-0.270000000000
24.206472151000,-0.302000000000
24.214159272000,-0.307000000000
24.221846393000,-0.297000000000
24.229533514000,-0.295000000000
24.237220635000,-0.283000000000
24.244907756000,-0.263000000000
24.252594877000,-0.260000000000
24.260281998000,-0.241000000000
24.267969119000,-0.219000000000
24.275656240000,-0.216000000000
24.283343361000,-0.216000000000
24.291030482000,-0.209000000000
24.298717603000,-0.182000000000
24.306404724000,-0.167000000000
24.314091845000,-0.182000000000
24.321778966000,-0.187000000000
24.329466087000,-0.184000000000
24.337153208000,-0.189000000000
24.344840329000,-0.182000000000
24.352527450000,-0.172000000000
24.360214571000,-0.167000000000
24.367901692000,-0.177000000000
24.375588813000,-0.182000000000
24.383275934000,-0.174000000000
24.390963055000,-0.174000000000
24.398650176000,-0.179000000000
24.406337297000,-0.172000000000
24.414024418000,-0.142000000000
24.421711603000,-0.132000000000
24.429398515000,-0.142000000000
24.437085427000,-0.132000000000
24.444772339000,-0.120000000000
24.452459251000,-0.137000000000
24.460146163000,-0.164000000000
24.467833075000,-0.174000000000
24.475519987000,-0.169000000000
24.483206899000,-0.160000000000
24.490893811000,-0.155000000000
24.498580723000,-0.157000000000
24.506267635000,-0.160000000000
24.513954547000,-0.160000000000
24.521641459000,-0.174000000000
24.529328371000,-0.221000000000
24.537015283000,-0.278000000000
24.544702195000,-0.086000000000
24.552389107000,0.610000000000
24.560076019000,1.265000000000
24.567762931000,1.169000000000
24.575449843000,0.408000000000
24.583136755000,-0.401000000000
24.590823667000,-0.553000000000
24.598510579000,-0.251000000000
24.606197491000,-0.179000000000
24.613884403000,-0.221000000000
24.621571315000,-0.150000000000
24.629258227000,-0.125000000000
24.636945139000,-0.145000000000
24.644632051000,-0.118000000000
24.652318963000,-0.086000000000
24.660005875000,-0.078000000000
24.667692787000,-0.061000000000
24.675379699000,-0.032000000000
24.683066611000,-0.012000000000
24.690753523000,0.004000000000
24.698440435000,0.024000000000
24.706127347000,0.049000000000
24.713814259000,0.078000000000
24.721501171000,0.108000000000
24.729188083000,0.142000000000
24.736874995000,0.184000000000
24.744561907000,0.216000000000
24.752248819000,0.246000000000
24.759935731000,0.270000000000
24.767622643000,0.278000000000
24.775309555000,0.265000000000
24.782996467000,0.248000000000
24.790683379000,0.224000000000
24.798370291000,0.187000000000
24.806057203000,0.125000000000
24.813744115000,0.036000000000
24.821431027000,-0.076000000000
24.829117939000,-0.177000000000
24.836804851000,-0.248000000000
24.844491763000,-0.292000000000
24.852178675000,-0.322000000000
24.859865587000,-0.334000000000
24.867552499000,-0.329000000000
24.875239411000,-0.322000000000
24.882926323000,-0.312000000000
24.890613235000,-0.295000000000
24.898300147000,-0.280000000000
24.905987059000,-0.268000000000
24.913673971000,-0.253000000000
24.921360883000,-0.243000000000
24.929047795000,-0.236000000000
24.936734707000,-0.224000000000
24.944421619000,-0.214000000000
24.952108531000,-0.206000000000
24.959795443000,-0.204000000000
24.967482355000,-0.204000000000
24.975169267000,-0.201000000000
24.982856243000,-0.201000000000
24.990543155000,-0.201000000000
24.998230067000,-0.201000000000
25.005916979000,-0.201000000000
25.013603891000,-0.201000000000
25.021290803000,-0.199000000000
25.028977715000,-0.199000000000
25.036664627000,-0.201000000000
25.044351539000,-0.204000000000
25.052038451000,-0.206000000000
25.059725363000,-0.206000000000
25.067412275000,-0.187000000000
25.075099187000,-0.162000000000
25.082786099000,-0.160000000000
25.090473011000,-0.164000000000
25.098159923000,-0.150000000000
25.105846835000,-0.150000000000
25.113533747000,-0.174000000000
25.121220659000,-0.196000000000
25.128907571000,-0.199000000000
25.136594483000,-0.192000000000
25.144281395000,-0.189000000000
25.151968307000,-0.184000000000
25.159655219000,-0.177000000000
25.167342131000,-0.177000000000
25.175029043000,-0.184000000000
25.182715955000,-0.216000000000
25.190402867000,-0.288000000000
25.198089779000,-0.224000000000
25.205776691000,0.312000000000
25.213463603000,1.110000000000
25.221150515000,1.489000000000
25.228837427000,1.043000000000
25.236524339000,-0.046000000000
25.244211251000,-0.696000000000
25.251898163000,-0.401000000000
25.259585075000,-0.142000000000
25.267271987000,-0.275000000000
25.274958899000,-0.273000000000
25.282645811000,-0.174000000000
25.290332723000,-0.187000000000
25.298019635000,-0.189000000000
25.305706547000,-0.140000000000
25.313393459000,-0.120000000000
25.321080371000,-0.113000000000
25.328767283000,-0.086000000000
25.336454195000,-0.066000000000
25.344141107000,-0.051000000000
25.351828019000,-0.029000000000
25.359514931000,-0.004000000000
25.367201843000,0.017000000000
25.374888755000,0.046000000000
25.382575667000,0.081000000000
25.390262579000,0.115000000000
25.397949491000,0.152000000000
25.405636403000,0.189000000000
25.413323315000,0.219000000000
25.421010227000,0.238000000000
25.428697139000,0.241000000000
25.436384051000,0.231000000000
25.444070963000,0.216000000000
25.451757875000,0.196000000000
25.459444787000,0.160000000000
25.467131699000,0.086000000000
25.474818611000,-0.019000000000
25.482505523000,-0.123000000000
25.490192435000,-0.204000000000
25.497879347000,-0.263000000000
25.505566259000,-0.302000000000
25.513253171000,-0.317000000000
25.520940083000,-0.317000000000
25.528626995000,-0.310000000000
25.536313907000,-0.297000000000
25.544000879000,-0.283000000000
25.551688000000,-0.270000000000
25.559375121000,-0.258000000000
25.567062242000,-0.246000000000
25.574749363000,-0.236000000000
25.582436484000,-0.228000000000
25.590123605000,-0.224000000000
25.597810726000,-0.221000000000
25.605497847000,-0.216000000000
25.613184968000,-0.214000000000
25.620872089000,-0.214000000000
25.628559210000,-0.211000000000
25.636246331000,-0.209000000000
25.643933452000,-0.206000000000
25.651620573000,-0.206000000000
25.659307694000,-0.204000000000
25.666994815000,-0.201000000000
25.674681936000,-0.196000000000
25.682369057000,-0.192000000000
25.690056178000,-0.192000000000
25.697743299000,-0.192000000000
25.705430420000,-0.194000000000
25.713117541000,-0.199000000000
25.720804662000,-0.192000000000
25.728491783000,-0.167000000000
25.736178904000,-0.147000000000
25.743866025000,-0.145000000000
25.751553146000,-0.145000000000
25.759240267000,-0.132000000000
25.766927388000,-0.140000000000
25.774614509000,-0.164000000000
25.782301630000,-0.187000000000
25.789988751000,-0.184000000000
25.797675872000,-0.174000000000
25.805362993000,-0.167000000000
25.813050114000,-0.162000000000
25.820737235000,-0.160000000000
25.828424356000,-0.160000000000
25.836111477000,-0.169000000000
25.843798598000,-0.209000000000
25.851485719000,-0.280000000000
25.859172840000,-0.209000000000
25.866859961000,0.337000000000
25.874547082000,1.169000000000
25.882234203000,1.609000000000
25.889921324000,1.137000000000
25.897608445000,-0.066000000000
25.905295566000,-0.713000000000
25.912982687000,-0.342000000000
25.920669808000,-0.103000000000
25.928356929000,-0.273000000000
25.936044050000,-0.258000000000
25.943731171000,-0.155000000000
25.951418292000,-0.179000000000
25.959105413000,-0.177000000000
25.966792534000,-0.120000000000
25.974479655000,-0.108000000000
25.982166776000,-0.103000000000
25.989853897000,-0.071000000000
25.997541018000,-0.046000000000
26.005228139000,-0.032000000000
26.012915260000,-0.007000000000
26.020602381000,0.019000000000
26.028289502000,0.046000000000
26.035976623000,0.076000000000
26.043663744000,0.113000000000
26.051350865000,0.152000000000
26.059037986000,0.194000000000
26.066725107000,0.231000000000
26.074412228000,0.263000000000
26.082099349000,0.283000000000
26.089786470000,0.288000000000
26.097473591000,0.278000000000
26.105160776000,0.260000000000
26.112847897000,0.236000000000
26.120535018000,0.187000000000
26.128222139000,0.100000000000
26.135909260000,-0.014000000000
26.143596381000,-0.125000000000
26.151283502000,-0.214000000000
26.158970623000,-0.273000000000
26.166657744000,-0.310000000000
26.174344865000,-0.327000000000
26.182031986000,-0.329000000000
26.189719107000,-0.322000000000
26.197406228000,-0.310000000000
26.205093349000,-0.292000000000
26.212780470000,-0.278000000000
26.220467591000,-0.265000000000
26.228154712000,-0.256000000000
26.235841833000,-0.248000000000
26.243528954000,-0.241000000000
26.251216075000,-0.231000000000
26.258903196000,-0.226000000000
26.266590317000,-0.224000000000
26.274277438000,-0.224000000000
26.281964559000,-0.219000000000
26.289651680000,-0.214000000000
26.297338801000,-0.211000000000
26.305025922000,-0.209000000000
26.312713043000,-0.206000000000
26.320400164000,-0.204000000000
26.328087285000,-0.204000000000
26.335774406000,-0.199000000000
26.343461527000,-0.194000000000
26.351148648000,-0.192000000000
26.358835769000,-0.189000000000
26.366522890000,-0.187000000000
26.374210011000,-0.184000000000
26.381897132000,-0.187000000000
26.389584253000,-0.192000000000
26.397271374000,-0.184000000000
26.404958495000,-0.157000000000
26.412645616000,-0.135000000000
26.420332737000,-0.132000000000
26.428019858000,-0.132000000000
26.435706979000,-0.125000000000
26.443394100000,-0.130000000000
26.451081221000,-0.160000000000
26.458768342000,-0.182000000000
26.466455463000,-0.177000000000
26.474142584000,-0.167000000000
26.481829705000,-0.164000000000
26.489516826000,-0.160000000000
26.497203947000,-0.152000000000
26.504891068000,-0.150000000000
26.512578189000,-0.162000000000
26.520265310000,-0.196000000000
26.527952431000,-0.273000000000
26.535639552000,-0.251000000000
26.543326673000,0.233000000000
26.551013794000,1.095000000000
26.558700915000,1.661000000000
26.566388036000,1.309000000000
26.574075157000,0.088000000000
26.581762278000,-0.711000000000
26.589449399000,-0.398000000000
26.597136520000,-0.098000000000
26.604823641000,-0.260000000000
26.612510762000,-0.268000000000
26.620197883000,-0.152000000000
26.627885004000,-0.172000000000
26.635572125000,-0.177000000000
26.643259246000,-0.120000000000
26.650946367000,-0.103000000000
26.658633488000,-0.098000000000
26.666320673000,-0.071000000000
26.674007794000,-0.046000000000
26.681694915000,-0.029000000000
26.689382036000,-0.007000000000
26.697069157000,0.019000000000
26.704756278000,0.044000000000
26.712443399000,0.073000000000
26.720130520000,0.110000000000
26.727817641000,0.147000000000
26.735504762000,0.187000000000
26.743191883000,0.226000000000
26.750879004000,0.258000000000
26.758566125000,0.280000000000
26.766253246000,0.288000000000
26.773940367000,0.283000000000
26.781627488000,0.265000000000
26.789314609000,0.243000000000
26.797001730000,0.199000000000
26.804688851000,0.123000000000
26.812375972000,0.012000000000
26.820063093000,-0.100000000000
26.827750214000,-0.194000000000
26.835437335000,-0.260000000000
26.843124456000,-0.300000000000
26.850811577000,-0.320000000000
26.858498698000,-0.324000000000
26.866185819000,-0.320000000000
26.873872940000,-0.307000000000
26.881560061000,-0.290000000000
26.889247182000,-0.275000000000
26.896934303000,-0.260000000000
26.904621424000,-0.248000000000
26.912308545000,-0.238000000000
26.919995666000,-0.233000000000
26.927682787000,-0.226000000000
26.935369908000,-0.221000000000
26.943057029000,-0.216000000000
26.950744150000,-0.211000000000
26.958431271000,-0.209000000000
26.966118392000,-0.206000000000
26.973805513000,-0.204000000000
26.981492634000,-0.201000000000
26.989179755000,-0.199000000000
26.996866876000,-0.196000000000
27.004553997000,-0.196000000000
27.012241118000,-0.196000000000
27.019928239000,-0.192000000000
27.027615360000,-0.189000000000
27.035302481000,-0.187000000000
27.042989602000,-0.182000000000
27.050676723000,-0.177000000000
27.058363844000,-0.174000000000
27.066050965000,-0.169000000000
27.073738086000,-0.167000000000
27.081425207000,-0.169000000000
27.089112328000,-0.174000000000
27.096799449000,-0.174000000000
27.104486570000,-0.157000000000
27.112173691000,-0.130000000000
27.119860812000,-0.120000000000
27.127547933000,-0.123000000000
27.135235054000,-0.118000000000
27.142922175000,-0.113000000000
27.150609296000,-0.135000000000
27.158296417000,-0.164000000000
27.165983538000,-0.172000000000
27.173670659000,-0.160000000000
27.181357780000,-0.155000000000
27.189044901000,-0.152000000000
27.196732022000,-0.147000000000
27.204419143000,-0.140000000000
27.212106264000,-0.147000000000
27.219793385000,-0.174000000000
27.227480574000,-0.243000000000
27.235167695000,-0.295000000000
27.242854816000,-0.007000000000
27.250541937000,0.790000000000
27.258229058000,1.568000000000
27.265916179000,1.595000000000
27.273603300000,0.566000000000
27.281290421000,-0.583000000000
27.288977542000,-0.585000000000
27.296664663000,-0.128000000000
27.304351784000,-0.199000000000
27.312038905000,-0.302000000000
27.319726026000,-0.184000000000
27.327413147000,-0.162000000000
27.335100268000,-0.192000000000
27.342787389000,-0.142000000000
27.350474510000,-0.110000000000
27.358161631000,-0.113000000000
27.365848752000,-0.086000000000
27.373535873000,-0.054000000000
27.381222994000,-0.041000000000
27.388910115000,-0.019000000000
27.396597236000,0.009000000000
27.404284357000,0.034000000000
27.411971478000,0.064000000000
27.419658599000,0.098000000000
27.427345720000,0.132000000000
27.435032841000,0.172000000000
27.442719962000,0.211000000000
27.450407083000,0.246000000000
27.458094204000,0.270000000000
27.465781325000,0.280000000000
27.473468446000,0.278000000000
27.481155567000,0.263000000000
27.488842688000,0.241000000000
27.496529809000,0.211000000000
27.504216930000,0.157000000000
27.511904051000,0.064000000000
27.519591172000,-0.049000000000
27.527278293000,-0.147000000000
27.534965414000,-0.224000000000
27.542652535000,-0.275000000000
27.550339656000,-0.305000000000
27.558026777000,-0.315000000000
27.565713898000,-0.312000000000
27.573401019000,-0.300000000000
27.581088140000,-0.288000000000
27.588775261000,-0.275000000000
27.596462382000,-0.260000000000
27.604149503000,-0.248000000000
27.611836624000,-0.241000000000
27.619523745000,-0.231000000000
27.627210866000,-0.221000000000
27.634897987000,-0.214000000000
27.642585108000,-0.211000000000
27.650272229000,-0.206000000000
27.657959350000,-0.204000000000
27.665646471000,-0.201000000000
27.673333592000,-0.201000000000
27.681020713000,-0.196000000000
27.688707834000,-0.196000000000
27.696394955000,-0.196000000000
27.704082076000,-0.196000000000
27.711769197000,-0.192000000000
27.719456318000,-0.189000000000
27.727143439000,-0.187000000000
27.734830560000,-0.184000000000
27.742517681000,-0.182000000000
27.750204802000,-0.179000000000
27.757891923000,-0.179000000000
27.765579044000,-0.177000000000
27.773266165000,-0.169000000000
27.780953286000,-0.167000000000
27.788640471000,-0.172000000000
27.796327383000,-0.177000000000
27.804014295000,-0.174000000000
27.811701207000,-0.152000000000
27.819388119000,-0.128000000000
27.827075031000,-0.123000000000
27.834761943000,-0.125000000000
27.842448855000,-0.115000000000
27.850135767000,-0.113000000000
27.857822679000,-0.137000000000
27.865509591000,-0.169000000000
27.873196503000,-0.174000000000
27.880883415000,-0.162000000000
27.888570327000,-0.157000000000
27.896257239000,-0.155000000000
27.903944151000,-0.152000000000
27.911631063000,-0.145000000000
27.919317975000,-0.150000000000
27.927004887000,-0.179000000000
27.934691799000,-0.253000000000
27.942378711000,-0.297000000000
27.950065623000,0.027000000000
27.957752535000,0.856000000000
27.965439447000,1.619000000000
27.973126359000,1.573000000000
27.980813271000,0.477000000000
27.988500183000,-0.625000000000
27.996187095000,-0.553000000000
28.003874007000,-0.115000000000
28.011560919000,-0.211000000000
28.019247831000,-0.295000000000
28.026934743000,-0.169000000000
28.034621655000,-0.157000000000
28.042308567000,-0.187000000000
28.049995479000,-0.132000000000
28.057682391000,-0.098000000000
28.065369303000,-0.103000000000
28.073056215000,-0.078000000000
28.080743127000,-0.046000000000
28.088430039000,-0.032000000000
28.096116951000,-0.014000000000
28.103803863000,0.012000000000
28.111490775000,0.041000000000
28.119177687000,0.071000000000
28.126864599000,0.105000000000
28.134551511000,0.140000000000
28.142238423000,0.184000000000
28.149925335000,0.224000000000
28.157612247000,0.256000000000
28.165299159000,0.283000000000
28.172986071000,0.295000000000
28.180672983000,0.288000000000
28.188359895000,0.273000000000
28.196046807000,0.253000000000
28.203733719000,0.224000000000
28.211420631000,0.162000000000
28.219107543000,0.064000000000
28.226794455000,-0.039000000000
28.234481367000,-0.140000000000
28.242168279000,-0.226000000000
28.249855191000,-0.283000000000
28.257542103000,-0.305000000000
28.265229015000,-0.310000000000
28.272915927000,-0.310000000000
28.280602839000,-0.305000000000
28.288289751000,-0.288000000000
28.295976663000,-0.275000000000
28.303663575000,-0.265000000000
28.311350487000,-0.243000000000
28.319037399000,-0.231000000000
28.326724311000,-0.228000000000
28.334411223000,-0.216000000000
28.342098135000,-0.199000000000
28.349785111000,-0.196000000000
28.357472302000,-0.199000000000
28.365159493000,-0.194000000000
28.372846684000,-0.192000000000
28.380533875000,-0.192000000000
28.388221066000,-0.189000000000
28.395908257000,-0.189000000000
28.403595448000,-0.189000000000
28.411282639000,-0.184000000000
28.418969830000,-0.184000000000
28.426657021000,-0.184000000000
28.434344212000,-0.179000000000
28.442031403000,-0.172000000000
28.449718594000,-0.169000000000
28.457405785000,-0.172000000000
28.465092976000,-0.174000000000
28.472780167000,-0.164000000000
28.480467358000,-0.152000000000
28.488154549000,-0.152000000000
28.495841740000,-0.160000000000
28.503528931000,-0.162000000000
28.511216122000,-0.160000000000
28.518903313000,-0.135000000000
28.526590504000,-0.108000000000
28.534277695000,-0.103000000000
28.541964886000,-0.108000000000
28.549652077000,-0.100000000000
28.557339268000,-0.110000000000
28.565026459000,-0.135000000000
28.572713650000,-0.152000000000
28.580400841000,-0.157000000000
28.588088032000,-0.147000000000
28.595775223000,-0.137000000000
28.603462414000,-0.140000000000
28.611149605000,-0.145000000000
28.618836796000,-0.132000000000
28.626523987000,-0.140000000000
28.634211178000,-0.179000000000
28.641898369000,-0.258000000000
28.649585560000,-0.236000000000
28.657272751000,0.253000000000
28.664959942000,1.102000000000
28.672647133000,1.541000000000
28.680334324000,1.073000000000
28.688021515000,-0.022000000000
28.695708706000,-0.654000000000
28.703395897000,-0.366000000000
28.711083088000,-0.115000000000
28.718770279000,-0.226000000000
28.726457470000,-0.214000000000
28.734144661000,-0.130000000000
28.741831852000,-0.142000000000
28.749519043000,-0.135000000000
28.757206234000,-0.096000000000
28.764893425000,-0.086000000000
28.772580616000,-0.076000000000
28.780267807000,-0.049000000000
28.787954998000,-0.029000000000
28.795642189000,-0.012000000000
28.803329380000,0.009000000000
28.811016571000,0.034000000000
28.818703762000,0.061000000000
28.826390953000,0.088000000000
28.834078144000,0.120000000000
28.841765335000,0.160000000000
28.849452526000,0.199000000000
28.857139717000,0.233000000000
28.864826908000,0.258000000000
28.872514099000,0.275000000000
28.880201290000,0.280000000000
28.887888481000,0.268000000000
28.895575672000,0.243000000000
28.903262863000,0.219000000000
28.910950095000,0.179000000000
28.918636938000,0.105000000000
28.926323781000,0.002000000000
28.934010624000,-0.103000000000
28.941697467000,-0.194000000000
28.949384310000,-0.260000000000
28.957071153000,-0.302000000000
28.964757996000,-0.320000000000
28.972444839000,-0.327000000000
28.980131682000,-0.327000000000
28.987818525000,-0.315000000000
28.995505368000,-0.300000000000
29.003192211000,-0.285000000000
29.010879054000,-0.270000000000
29.018565897000,-0.256000000000
29.026252740000,-0.248000000000
29.033939583000,-0.238000000000
29.041626426000,-0.226000000000
29.049313269000,-0.216000000000
29.057000112000,-0.211000000000
29.064686955000,-0.206000000000
29.072373798000,-0.199000000000
29.080060641000,-0.199000000000
29.087747484000,-0.199000000000
29.095434327000,-0.196000000000
29.103121170000,-0.196000000000
29.110808013000,-0.199000000000
29.118494856000,-0.199000000000
29.126181699000,-0.196000000000
29.133868542000,-0.194000000000
29.141555385000,-0.194000000000
29.149242228000,-0.192000000000
29.156929071000,-0.187000000000
29.164615914000,-0.184000000000
29.172302757000,-0.182000000000
29.179989600000,-0.179000000000
29.187676443000,-0.179000000000
29.195363286000,-0.184000000000
29.203050129000,-0.187000000000
29.210736972000,-0.169000000000
29.218423815000,-0.142000000000
29.226110658000,-0.130000000000
29.233797501000,-0.137000000000
29.241484344000,-0.128000000000
29.249171187000,-0.118000000000
29.256858030000,-0.137000000000
29.264544873000,-0.172000000000
29.272231716000,-0.184000000000
29.279918559000,-0.172000000000
29.287605402000,-0.167000000000
29.295292245000,-0.164000000000
29.302979088000,-0.160000000000
29.310665931000,-0.155000000000
29.318352774000,-0.160000000000
29.326039617000,-0.179000000000
29.333726460000,-0.241000000000
