time,LSB
0.000000000000,1.523000000000
0.007687121000,2.040000000000
0.015374242000,1.401000000000
0.023061427000,-0.117000000000
0.030748130000,-0.737000000000
0.038434833000,-0.210000000000
0.046121536000,-0.041000000000
0.053808239000,-0.254000000000
0.061494942000,-0.191000000000
0.069181645000,-0.100000000000
0.076868348000,-0.149000000000
0.084555051000,-0.137000000000
0.092241754000,-0.080000000000
0.099928457000,-0.071000000000
0.107615160000,-0.058000000000
0.115301863000,-0.019000000000
0.122988566000,0.002000000000
0.130675269000,0.024000000000
0.138361972000,0.058000000000
0.146048675000,0.093000000000
0.153735378000,0.124000000000
0.161422081000,0.161000000000
0.169108784000,0.198000000000
0.176795487000,0.232000000000
0.184482190000,0.259000000000
0.192168893000,0.276000000000
0.199855596000,0.281000000000
0.207542299000,0.274000000000
0.215229002000,0.262000000000
0.222915705000,0.242000000000
0.230602408000,0.218000000000
0.238289111000,0.181000000000
0.245975814000,0.122000000000
0.253662517000,0.044000000000
0.261349220000,-0.041000000000
0.269035923000,-0.124000000000
0.276722626000,-0.200000000000
0.284409329000,-0.259000000000
0.292096032000,-0.291000000000
0.299782735000,-0.306000000000
0.307469438000,-0.308000000000
0.315156141000,-0.303000000000
0.322842844000,-0.291000000000
0.330529547000,-0.276000000000
0.338216250000,-0.262000000000
0.345902953000,-0.249000000000
0.353589656000,-0.237000000000
0.361276359000,-0.225000000000
0.368963062000,-0.215000000000
0.376649765000,-0.210000000000
0.384336468000,-0.205000000000
0.392023171000,-0.203000000000
0.399709874000,-0.200000000000
0.407396577000,-0.198000000000
0.415083280000,-0.195000000000
0.422769983000,-0.195000000000
0.430456686000,-0.195000000000
0.438143389000,-0.193000000000
0.445830092000,-0.191000000000
0.453516795000,-0.191000000000
0.461203498000,-0.188000000000
0.468890201000,-0.186000000000
0.476576904000,-0.181000000000
0.484263607000,-0.178000000000
0.491950310000,-0.176000000000
0.499637013000,-0.171000000000
0.507323716000,-0.166000000000
0.515010419000,-0.161000000000
0.522697122000,-0.156000000000
0.530383825000,-0.154000000000
0.538070528000,-0.159000000000
0.545757231000,-0.156000000000
0.553443934000,-0.137000000000
0.561130637000,-0.110000000000
0.568817340000,-0.090000000000
0.576504043000,-0.088000000000
0.584190806000,-0.085000000000
0.591877927000,-0.085000000000
0.599565048000,-0.110000000000
0.607252169000,-0.144000000000
0.614939290000,-0.149000000000
0.622626411000,-0.134000000000
0.630313532000,-0.129000000000
0.638000653000,-0.129000000000
0.645687774000,-0.124000000000
0.653374895000,-0.120000000000
0.661062016000,-0.117000000000
0.668749137000,-0.122000000000
0.676436258000,-0.146000000000
0.684123379000,-0.210000000000
0.691810500000,-0.281000000000
0.699497621000,-0.100000000000
0.707184742000,0.580000000000
0.714871863000,1.506000000000
0.722558984000,2.055000000000
0.730246105000,1.462000000000
0.737933226000,-0.071000000000
0.745620347000,-0.747000000000
0.753307468000,-0.227000000000
0.760994589000,-0.036000000000
0.768681710000,-0.254000000000
0.776368831000,-0.195000000000
0.784055952000,-0.097000000000
0.791743073000,-0.151000000000
0.799430194000,-0.139000000000
0.807117315000,-0.078000000000
0.814804436000,-0.071000000000
0.822491557000,-0.058000000000
0.830178678000,-0.022000000000
0.837865799000,0.004000000000
0.845552920000,0.029000000000
0.853240041000,0.061000000000
0.860927162000,0.095000000000
0.868614283000,0.124000000000
0.876301404000,0.161000000000
0.883988525000,0.198000000000
0.891675646000,0.232000000000
0.899362767000,0.262000000000
0.907049888000,0.279000000000
0.914737009000,0.284000000000
0.922424130000,0.279000000000
0.930111251000,0.267000000000
0.937798372000,0.249000000000
0.945485493000,0.225000000000
0.953172614000,0.188000000000
0.960859735000,0.132000000000
0.968546856000,0.056000000000
0.976233977000,-0.029000000000
0.983921098000,-0.115000000000
0.991608219000,-0.191000000000
0.999295340000,-0.249000000000
1.006982461000,-0.284000000000
1.014669582000,-0.298000000000
1.022356703000,-0.301000000000
1.030043824000,-0.296000000000
1.037730945000,-0.286000000000
1.045418066000,-0.271000000000
1.053105187000,-0.257000000000
1.060792308000,-0.244000000000
1.068479429000,-0.232000000000
1.076166550000,-0.222000000000
1.083853671000,-0.215000000000
1.091540792000,-0.210000000000
1.099227913000,-0.200000000000
1.106915034000,-0.195000000000
1.114602155000,-0.195000000000
1.122289276000,-0.193000000000
1.129976397000,-0.191000000000
1.137663518000,-0.191000000000
1.145350703000,-0.188000000000
1.153037406000,-0.188000000000
1.160724109000,-0.191000000000
1.168410812000,-0.186000000000
1.176097515000,-0.183000000000
1.183784218000,-0.181000000000
1.191470921000,-0.181000000000
1.199157624000,-0.176000000000
1.206844327000,-0.173000000000
1.214531030000,-0.169000000000
1.222217733000,-0.164000000000
1.229904436000,-0.159000000000
1.237591139000,-0.154000000000
1.245277842000,-0.151000000000
1.252964545000,-0.151000000000
1.260651248000,-0.149000000000
1.268337951000,-0.139000000000
1.276024654000,-0.117000000000
1.283711357000,-0.090000000000
1.291398060000,-0.085000000000
1.299084763000,-0.088000000000
1.306771466000,-0.088000000000
1.314458169000,-0.107000000000
1.322144872000,-0.139000000000
1.329831575000,-0.146000000000
1.337518278000,-0.134000000000
1.345204981000,-0.134000000000
1.352891684000,-0.132000000000
1.360578387000,-0.120000000000
1.368265090000,-0.115000000000
1.375951793000,-0.122000000000
1.383638496000,-0.127000000000
1.391325199000,-0.137000000000
1.399011902000,-0.191000000000
1.406698605000,-0.269000000000
1.414385308000,-0.159000000000
1.422072011000,0.436000000000
1.429758714000,1.344000000000
1.437445417000,1.976000000000
1.445132120000,1.579000000000
1.452818823000,0.127000000000
1.460505526000,-0.739000000000
1.468192229000,-0.315000000000
1.475878932000,-0.022000000000
1.483565635000,-0.222000000000
1.491252338000,-0.198000000000
1.498939041000,-0.085000000000
1.506625744000,-0.127000000000
1.514312447000,-0.127000000000
1.521999150000,-0.071000000000
1.529685853000,-0.061000000000
1.537372556000,-0.044000000000
1.545059259000,-0.007000000000
1.552745962000,0.009000000000
1.560432665000,0.036000000000
1.568119368000,0.075000000000
1.575806071000,0.105000000000
1.583492774000,0.134000000000
1.591179477000,0.173000000000
1.598866180000,0.210000000000
1.606552883000,0.240000000000
1.614239586000,0.267000000000
1.621926289000,0.289000000000
1.629612992000,0.298000000000
1.637299695000,0.293000000000
1.644986398000,0.279000000000
1.652673101000,0.259000000000
1.660359804000,0.237000000000
1.668046507000,0.205000000000
1.675733210000,0.154000000000
1.683419913000,0.078000000000
1.691106616000,-0.014000000000
1.698793319000,-0.102000000000
1.706480082000,-0.171000000000
1.714166785000,-0.230000000000
1.721853488000,-0.281000000000
1.729540191000,-0.303000000000
1.737226894000,-0.303000000000
1.744913597000,-0.298000000000
1.752600300000,-0.293000000000
1.760287003000,-0.281000000000
1.767973706000,-0.269000000000
1.775660409000,-0.259000000000
1.783347112000,-0.240000000000
1.791033815000,-0.225000000000
1.798720518000,-0.220000000000
1.806407221000,-0.215000000000
1.814093924000,-0.200000000000
1.821780627000,-0.193000000000
1.829467330000,-0.200000000000
1.837154033000,-0.200000000000
1.844840736000,-0.193000000000
1.852527439000,-0.193000000000
1.860214142000,-0.195000000000
1.867900845000,-0.188000000000
1.875587548000,-0.181000000000
1.883274251000,-0.183000000000
1.890960954000,-0.188000000000
1.898647657000,-0.183000000000
1.906334360000,-0.176000000000
1.914021063000,-0.176000000000
1.921707766000,-0.176000000000
1.929394469000,-0.166000000000
1.937081172000,-0.164000000000
1.944767875000,-0.164000000000
1.952454578000,-0.161000000000
1.960141281000,-0.156000000000
1.967827984000,-0.159000000000
1.975514687000,-0.144000000000
1.983201390000,-0.117000000000
1.990888093000,-0.097000000000
1.998574796000,-0.088000000000
2.006261499000,-0.085000000000
2.013948202000,-0.095000000000
2.021634905000,-0.122000000000
2.029321608000,-0.149000000000
2.037008311000,-0.149000000000
2.044695014000,-0.137000000000
2.052381717000,-0.132000000000
2.060068420000,-0.129000000000
2.067755123000,-0.127000000000
2.075441826000,-0.127000000000
2.083128529000,-0.124000000000
2.090815232000,-0.127000000000
2.098501935000,-0.151000000000
2.106188638000,-0.213000000000
2.113875341000,-0.267000000000
2.121562044000,-0.046000000000
2.129248747000,0.671000000000
2.136935450000,1.533000000000
2.144622153000,1.878000000000
2.152308856000,1.094000000000
2.159995559000,-0.313000000000
2.167682262000,-0.688000000000
2.175368965000,-0.161000000000
2.183055668000,-0.085000000000
2.190742371000,-0.244000000000
2.198429074000,-0.142000000000
2.206115777000,-0.090000000000
2.213802480000,-0.139000000000
2.221489183000,-0.105000000000
2.229175886000,-0.058000000000
2.236862589000,-0.058000000000
2.244549292000,-0.039000000000
2.252235995000,-0.004000000000
2.259922698000,0.014000000000
2.267609461000,0.039000000000
2.275296582000,0.073000000000
2.282983703000,0.107000000000
2.290670824000,0.142000000000
2.298357945000,0.173000000000
2.306045066000,0.205000000000
2.313732187000,0.235000000000
2.321419308000,0.259000000000
2.329106429000,0.274000000000
2.336793550000,0.276000000000
2.344480671000,0.269000000000
2.352167792000,0.249000000000
2.359854913000,0.225000000000
2.367542034000,0.198000000000
2.375229155000,0.159000000000
2.382916276000,0.097000000000
2.390603397000,0.022000000000
2.398290518000,-0.061000000000
2.405977639000,-0.144000000000
2.413664760000,-0.220000000000
2.421351881000,-0.271000000000
2.429039002000,-0.298000000000
2.436726123000,-0.311000000000
2.444413244000,-0.313000000000
2.452100365000,-0.308000000000
2.459787486000,-0.296000000000
2.467474607000,-0.284000000000
2.475161728000,-0.274000000000
2.482848849000,-0.259000000000
2.490535970000,-0.242000000000
2.498223091000,-0.235000000000
2.505910212000,-0.225000000000
2.513597333000,-0.218000000000
2.521284454000,-0.213000000000
2.528971575000,-0.210000000000
2.536658696000,-0.208000000000
2.544345817000,-0.205000000000
2.552032938000,-0.203000000000
2.559720059000,-0.203000000000
2.567407180000,-0.203000000000
2.575094301000,-0.203000000000
2.582781422000,-0.200000000000
2.590468543000,-0.200000000000
2.598155664000,-0.200000000000
2.605842785000,-0.198000000000
2.613529906000,-0.193000000000
2.621217027000,-0.193000000000
2.628904148000,-0.191000000000
2.636591269000,-0.186000000000
2.644278390000,-0.181000000000
2.651965511000,-0.178000000000
2.659652632000,-0.176000000000
2.667339753000,-0.176000000000
2.675026874000,-0.178000000000
2.682713995000,-0.169000000000
2.690401116000,-0.146000000000
2.698088237000,-0.120000000000
2.705775358000,-0.107000000000
2.713462479000,-0.107000000000
2.721149600000,-0.105000000000
2.728836721000,-0.115000000000
2.736523842000,-0.151000000000
2.744210963000,-0.171000000000
2.751898084000,-0.156000000000
2.759585205000,-0.149000000000
2.767272326000,-0.149000000000
2.774959447000,-0.146000000000
2.782646568000,-0.142000000000
2.790333689000,-0.137000000000
2.798020810000,-0.137000000000
2.805707931000,-0.149000000000
2.813395052000,-0.195000000000
2.821082173000,-0.279000000000
2.828769362000,-0.230000000000
2.836456205000,0.262000000000
2.844143048000,1.139000000000
2.851829891000,1.886000000000
2.859516734000,1.753000000000
2.867203577000,0.418000000000
2.874890420000,-0.717000000000
2.882577263000,-0.458000000000
2.890264106000,-0.029000000000
2.897950949000,-0.210000000000
2.905637792000,-0.262000000000
2.913324635000,-0.127000000000
2.921011478000,-0.149000000000
2.928698321000,-0.173000000000
2.936385164000,-0.110000000000
2.944072007000,-0.085000000000
2.951758850000,-0.083000000000
2.959445693000,-0.048000000000
2.967132536000,-0.019000000000
2.974819379000,0.000000000000
2.982506222000,0.029000000000
2.990193065000,0.066000000000
2.997879908000,0.095000000000
3.005566751000,0.129000000000
3.013253594000,0.169000000000
3.020940437000,0.203000000000
3.028627280000,0.232000000000
3.036314123000,0.254000000000
3.044000966000,0.264000000000
3.051687809000,0.259000000000
3.059374652000,0.249000000000
3.067061495000,0.232000000000
3.074748338000,0.210000000000
3.082435181000,0.181000000000
3.090122024000,0.132000000000
3.097808867000,0.066000000000
3.105495710000,-0.014000000000
3.113182553000,-0.097000000000
3.120869396000,-0.176000000000
3.128556239000,-0.242000000000
3.136243082000,-0.284000000000
3.143929925000,-0.303000000000
3.151616768000,-0.311000000000
3.159303611000,-0.308000000000
3.166990454000,-0.296000000000
3.174677297000,-0.281000000000
3.182364140000,-0.269000000000
3.190050983000,-0.254000000000
3.197737826000,-0.240000000000
3.205424669000,-0.230000000000
3.213111512000,-0.220000000000
3.220798355000,-0.210000000000
3.228485198000,-0.205000000000
3.236172041000,-0.200000000000
3.243858884000,-0.198000000000
3.251545727000,-0.198000000000
3.259232570000,-0.195000000000
3.266919413000,-0.195000000000
3.274606256000,-0.193000000000
3.282293099000,-0.193000000000
3.289979942000,-0.191000000000
3.297666785000,-0.191000000000
3.305353628000,-0.188000000000
3.313040471000,-0.186000000000
3.320727314000,-0.183000000000
3.328414157000,-0.183000000000
3.336101000000,-0.178000000000
3.343787843000,-0.176000000000
3.351474686000,-0.171000000000
3.359161529000,-0.166000000000
3.366848372000,-0.161000000000
3.374535215000,-0.164000000000
3.382222058000,-0.164000000000
3.389908915000,-0.159000000000
3.397595897000,-0.139000000000
3.405282879000,-0.112000000000
3.412969861000,-0.095000000000
3.420656843000,-0.093000000000
3.428343825000,-0.090000000000
3.436030807000,-0.095000000000
3.443717789000,-0.127000000000
3.451404771000,-0.156000000000
3.459091753000,-0.149000000000
3.466778735000,-0.137000000000
3.474465717000,-0.139000000000
3.482152699000,-0.137000000000
3.489839681000,-0.129000000000
3.497526663000,-0.127000000000
3.505213645000,-0.124000000000
3.512900627000,-0.132000000000
3.520587609000,-0.161000000000
3.528274591000,-0.237000000000
3.535961573000,-0.281000000000
3.543648555000,0.004000000000
3.551335537000,0.778000000000
3.559022519000,1.673000000000
3.566709501000,2.013000000000
3.574396483000,1.112000000000
3.582083465000,-0.384000000000
3.589770447000,-0.690000000000
3.597457429000,-0.124000000000
3.605144411000,-0.095000000000
3.612831393000,-0.279000000000
3.620518375000,-0.169000000000
3.628205357000,-0.115000000000
3.635892339000,-0.169000000000
3.643579321000,-0.129000000000
3.651266303000,-0.080000000000
3.658953285000,-0.080000000000
3.666640267000,-0.056000000000
3.674327249000,-0.019000000000
3.682014231000,0.000000000000
3.689701213000,0.026000000000
3.697388195000,0.061000000000
3.705075177000,0.093000000000
3.712762159000,0.124000000000
3.720449141000,0.161000000000
3.728136123000,0.198000000000
3.735823105000,0.230000000000
3.743510087000,0.257000000000
3.751197069000,0.274000000000
3.758884051000,0.276000000000
3.766571033000,0.269000000000
3.774258015000,0.254000000000
3.781944997000,0.235000000000
3.789631979000,0.208000000000
3.797318961000,0.166000000000
3.805005943000,0.107000000000
3.812692925000,0.029000000000
3.820379907000,-0.056000000000
3.828066889000,-0.139000000000
3.835753871000,-0.215000000000
3.843440853000,-0.267000000000
3.851127835000,-0.296000000000
3.858814817000,-0.308000000000
3.866501799000,-0.308000000000
3.874188781000,-0.301000000000
3.881875763000,-0.289000000000
3.889562745000,-0.276000000000
3.897249727000,-0.264000000000
3.904936709000,-0.247000000000
3.912623691000,-0.237000000000
3.920310673000,-0.227000000000
3.927997655000,-0.218000000000
3.935684637000,-0.210000000000
3.943371619000,-0.205000000000
3.951058638000,-0.203000000000
3.958745341000,-0.200000000000
3.966432044000,-0.200000000000
3.974118747000,-0.200000000000
3.981805450000,-0.198000000000
3.989492153000,-0.195000000000
3.997178856000,-0.195000000000
4.004865559000,-0.195000000000
4.012552262000,-0.193000000000
4.020238965000,-0.191000000000
4.027925668000,-0.188000000000
4.035612371000,-0.186000000000
4.043299074000,-0.183000000000
4.050985777000,-0.178000000000
4.058672480000,-0.173000000000
4.066359183000,-0.171000000000
4.074045886000,-0.166000000000
4.081732589000,-0.161000000000
4.089419292000,-0.161000000000
4.097105995000,-0.161000000000
4.104792698000,-0.154000000000
4.112479401000,-0.132000000000
4.120166104000,-0.102000000000
4.127852807000,-0.093000000000
4.135539510000,-0.093000000000
4.143226213000,-0.088000000000
4.150912916000,-0.095000000000
4.158599619000,-0.132000000000
4.166286322000,-0.156000000000
4.173973025000,-0.146000000000
4.181659728000,-0.137000000000
4.189346431000,-0.139000000000
4.197033134000,-0.134000000000
4.204719837000,-0.129000000000
4.212406540000,-0.122000000000
4.220093243000,-0.117000000000
4.227779946000,-0.127000000000
4.235466649000,-0.159000000000
4.243153352000,-0.235000000000
4.250840055000,-0.286000000000
4.258526758000,-0.019000000000
4.266213461000,0.739000000000
4.273900164000,1.650000000000
4.281586867000,2.028000000000
4.289273570000,1.158000000000
4.296960273000,-0.352000000000
4.304646976000,-0.700000000000
4.312333679000,-0.132000000000
4.320020382000,-0.088000000000
4.327707085000,-0.276000000000
4.335393788000,-0.171000000000
4.343080491000,-0.112000000000
4.350767194000,-0.166000000000
4.358453897000,-0.127000000000
4.366140600000,-0.075000000000
4.373827303000,-0.075000000000
4.381514006000,-0.056000000000
4.389200709000,-0.019000000000
4.396887412000,0.004000000000
4.404574115000,0.026000000000
4.412260818000,0.061000000000
4.419947521000,0.090000000000
4.427634224000,0.124000000000
4.435320927000,0.164000000000
4.443007630000,0.203000000000
4.450694333000,0.235000000000
4.458381036000,0.257000000000
4.466067739000,0.271000000000
4.473754442000,0.279000000000
4.481441145000,0.271000000000
4.489127848000,0.257000000000
4.496814551000,0.240000000000
4.504501254000,0.210000000000
4.512188017000,0.171000000000
4.519875069000,0.117000000000
4.527562121000,0.044000000000
4.535249173000,-0.039000000000
4.542936225000,-0.127000000000
4.550623277000,-0.205000000000
4.558310329000,-0.257000000000
4.565997381000,-0.284000000000
4.573684433000,-0.296000000000
4.581371485000,-0.301000000000
4.589058537000,-0.301000000000
4.596745589000,-0.289000000000
4.604432641000,-0.274000000000
4.612119693000,-0.259000000000
4.619806745000,-0.242000000000
4.627493797000,-0.230000000000
4.635180849000,-0.218000000000
4.642867901000,-0.203000000000
4.650554953000,-0.195000000000
4.658242005000,-0.195000000000
4.665929057000,-0.200000000000
4.673616109000,-0.208000000000
4.681303161000,-0.205000000000
4.688990213000,-0.195000000000
4.696677265000,-0.193000000000
4.704364317000,-0.191000000000
4.712051369000,-0.186000000000
4.719738421000,-0.178000000000
4.727425473000,-0.181000000000
4.735112525000,-0.188000000000
4.742799577000,-0.183000000000
4.750486629000,-0.181000000000
4.758173681000,-0.181000000000
4.765860733000,-0.169000000000
4.773547785000,-0.161000000000
4.781234837000,-0.164000000000
4.788921889000,-0.161000000000
4.796608941000,-0.159000000000
4.804295993000,-0.154000000000
4.811983045000,-0.144000000000
4.819670097000,-0.112000000000
4.827357149000,-0.085000000000
4.835044201000,-0.090000000000
4.842731253000,-0.100000000000
4.850418305000,-0.095000000000
4.858105357000,-0.115000000000
4.865792409000,-0.151000000000
4.873479461000,-0.154000000000
4.881166513000,-0.142000000000
4.888853565000,-0.137000000000
4.896540617000,-0.134000000000
4.904227669000,-0.129000000000
4.911914721000,-0.127000000000
4.919601773000,-0.120000000000
4.927288825000,-0.115000000000
4.934975877000,-0.132000000000
4.942662929000,-0.188000000000
4.950349981000,-0.267000000000
4.958037033000,-0.159000000000
4.965724085000,0.428000000000
4.973411137000,1.317000000000
4.981098189000,1.913000000000
4.988785241000,1.504000000000
4.996472293000,0.093000000000
5.004159345000,-0.734000000000
5.011846397000,-0.313000000000
5.019533449000,-0.031000000000
5.027220501000,-0.218000000000
5.034907553000,-0.188000000000
5.042594605000,-0.088000000000
5.050281657000,-0.132000000000
5.057968709000,-0.122000000000
5.065655761000,-0.061000000000
5.073342831000,-0.053000000000
5.081029604000,-0.044000000000
5.088716377000,-0.007000000000
5.096403150000,0.012000000000
5.104089923000,0.029000000000
5.111776696000,0.073000000000
5.119463469000,0.107000000000
5.127150242000,0.132000000000
5.134837015000,0.164000000000
5.142523788000,0.203000000000
5.150210561000,0.237000000000
5.157897334000,0.264000000000
5.165584107000,0.284000000000
5.173270880000,0.284000000000
5.180957653000,0.274000000000
5.188644426000,0.267000000000
5.196331199000,0.247000000000
5.204017972000,0.218000000000
5.211704745000,0.183000000000
5.219391518000,0.134000000000
5.227078291000,0.063000000000
5.234765064000,-0.017000000000
5.242451837000,-0.107000000000
5.250138610000,-0.188000000000
5.257825383000,-0.249000000000
5.265512156000,-0.286000000000
5.273198929000,-0.303000000000
5.280885702000,-0.308000000000
5.288572475000,-0.308000000000
5.296259248000,-0.298000000000
5.303946021000,-0.281000000000
5.311632794000,-0.271000000000
5.319319567000,-0.257000000000
5.327006340000,-0.242000000000
5.334693113000,-0.232000000000
5.342379886000,-0.227000000000
5.350066659000,-0.220000000000
5.357753432000,-0.213000000000
5.365440205000,-0.208000000000
5.373126978000,-0.203000000000
5.380813751000,-0.200000000000
5.388500524000,-0.195000000000
5.396187297000,-0.193000000000
5.403874070000,-0.195000000000
5.411560843000,-0.195000000000
5.419247616000,-0.193000000000
5.426934389000,-0.193000000000
5.434621162000,-0.188000000000
5.442307935000,-0.183000000000
5.449994708000,-0.186000000000
5.457681481000,-0.186000000000
5.465368254000,-0.181000000000
5.473055027000,-0.171000000000
5.480741800000,-0.166000000000
5.488428573000,-0.169000000000
5.496115346000,-0.171000000000
5.503802119000,-0.166000000000
5.511488892000,-0.151000000000
5.519175665000,-0.124000000000
5.526862438000,-0.102000000000
5.534549211000,-0.097000000000
5.542235984000,-0.100000000000
5.549922757000,-0.105000000000
5.557609530000,-0.132000000000
5.565296303000,-0.164000000000
5.572983076000,-0.164000000000
5.580669849000,-0.146000000000
5.588356622000,-0.144000000000
5.596043395000,-0.142000000000
5.603730168000,-0.137000000000
5.611416941000,-0.132000000000
5.619103714000,-0.127000000000
5.626790487000,-0.134000000000
5.634477293000,-0.159000000000
5.642164066000,-0.220000000000
5.649850839000,-0.276000000000
5.657537612000,-0.041000000000
5.665224385000,0.690000000000
5.672911158000,1.560000000000
5.680597931000,1.900000000000
5.688284704000,1.085000000000
5.695971477000,-0.347000000000
5.703658250000,-0.710000000000
5.711345023000,-0.164000000000
5.719031796000,-0.093000000000
5.726718569000,-0.262000000000
5.734405342000,-0.159000000000
5.742092115000,-0.105000000000
5.749778888000,-0.156000000000
5.757465661000,-0.124000000000
5.765152434000,-0.078000000000
5.772839207000,-0.073000000000
5.780525980000,-0.056000000000
5.788212753000,-0.019000000000
5.795899526000,0.000000000000
5.803586299000,0.024000000000
5.811273072000,0.056000000000
5.818959845000,0.085000000000
5.826646618000,0.117000000000
5.834333391000,0.151000000000
5.842020164000,0.183000000000
5.849706937000,0.213000000000
5.857393710000,0.237000000000
5.865080483000,0.249000000000
5.872767256000,0.249000000000
5.880454029000,0.240000000000
5.888140802000,0.225000000000
5.895827575000,0.205000000000
5.903514348000,0.181000000000
5.911201121000,0.144000000000
5.918887894000,0.088000000000
5.926574667000,0.012000000000
5.934261440000,-0.068000000000
5.941948213000,-0.149000000000
5.949634986000,-0.218000000000
5.957321759000,-0.269000000000
5.965008532000,-0.298000000000
5.972695305000,-0.308000000000
5.980382078000,-0.311000000000
5.988068851000,-0.306000000000
5.995755624000,-0.293000000000
6.003442397000,-0.279000000000
6.011129170000,-0.267000000000
6.018815943000,-0.252000000000
6.026502716000,-0.240000000000
6.034189489000,-0.230000000000
6.041876262000,-0.222000000000
6.049563035000,-0.215000000000
6.057249808000,-0.213000000000
6.064936581000,-0.213000000000
6.072623354000,-0.210000000000
6.080310127000,-0.205000000000
6.087996900000,-0.203000000000
6.095683673000,-0.203000000000
6.103370446000,-0.200000000000
6.111057219000,-0.200000000000
6.118743992000,-0.200000000000
6.126430765000,-0.198000000000
6.134117538000,-0.198000000000
6.141804311000,-0.193000000000
6.149491084000,-0.191000000000
6.157177857000,-0.188000000000
6.164864630000,-0.186000000000
6.172551403000,-0.181000000000
6.180238176000,-0.176000000000
6.187924949000,-0.173000000000
6.195611763000,-0.176000000000
6.203299093000,-0.176000000000
6.210986423000,-0.166000000000
6.218673753000,-0.142000000000
6.226361083000,-0.115000000000
6.234048413000,-0.105000000000
6.241735743000,-0.105000000000
6.249423073000,-0.102000000000
6.257110403000,-0.115000000000
6.264797733000,-0.151000000000
6.272485063000,-0.171000000000
6.280172393000,-0.159000000000
6.287859723000,-0.151000000000
6.295547053000,-0.149000000000
6.303234383000,-0.144000000000
6.310921713000,-0.139000000000
6.318609043000,-0.137000000000
6.326296373000,-0.134000000000
6.333983703000,-0.144000000000
6.341671033000,-0.178000000000
6.349358363000,-0.257000000000
6.357045693000,-0.257000000000
6.364733023000,0.132000000000
6.372420353000,0.960000000000
6.380107683000,1.788000000000
6.387795013000,1.908000000000
6.395482343000,0.764000000000
6.403169673000,-0.595000000000
6.410857003000,-0.587000000000
6.418544333000,-0.058000000000
6.426231663000,-0.154000000000
6.433918993000,-0.276000000000
6.441606323000,-0.142000000000
6.449293653000,-0.127000000000
6.456980983000,-0.171000000000
6.464668313000,-0.117000000000
6.472355643000,-0.083000000000
6.480042973000,-0.083000000000
6.487730303000,-0.056000000000
6.495417633000,-0.022000000000
6.503104963000,0.000000000000
6.510792293000,0.024000000000
6.518479623000,0.056000000000
6.526166953000,0.088000000000
6.533854283000,0.122000000000
6.541541613000,0.156000000000
6.549228943000,0.188000000000
6.556916273000,0.218000000000
6.564603603000,0.240000000000
6.572290933000,0.252000000000
6.579978263000,0.252000000000
6.587665593000,0.242000000000
6.595352923000,0.227000000000
6.603040253000,0.205000000000
6.610727583000,0.178000000000
6.618414913000,0.137000000000
6.626102243000,0.075000000000
6.633789573000,0.000000000000
6.641476903000,-0.080000000000
6.649164233000,-0.159000000000
6.656851563000,-0.227000000000
6.664538893000,-0.276000000000
6.672226223000,-0.301000000000
6.679913553000,-0.311000000000
6.687600883000,-0.311000000000
6.695288213000,-0.301000000000
6.702975543000,-0.289000000000
6.710662873000,-0.276000000000
6.718350203000,-0.262000000000
6.726037533000,-0.249000000000
6.733724863000,-0.240000000000
6.741412193000,-0.230000000000
6.749099523000,-0.220000000000
6.756786919000,-0.215000000000
6.764473553000,-0.210000000000
6.772160187000,-0.208000000000
6.779846821000,-0.208000000000
6.787533455000,-0.205000000000
6.795220089000,-0.205000000000
6.802906723000,-0.205000000000
6.810593357000,-0.205000000000
6.818279991000,-0.203000000000
6.825966625000,-0.200000000000
6.833653259000,-0.200000000000
6.841339893000,-0.198000000000
6.849026527000,-0.193000000000
6.856713161000,-0.191000000000
6.864399795000,-0.191000000000
6.872086429000,-0.186000000000
6.879773063000,-0.181000000000
6.887459697000,-0.178000000000
6.895146331000,-0.181000000000
6.902832965000,-0.178000000000
6.910519599000,-0.164000000000
6.918206233000,-0.137000000000
6.925892867000,-0.115000000000
6.933579501000,-0.110000000000
6.941266135000,-0.107000000000
6.948952769000,-0.107000000000
6.956639403000,-0.129000000000
6.964326037000,-0.166000000000
6.972012671000,-0.171000000000
6.979699305000,-0.156000000000
6.987385939000,-0.151000000000
6.995072573000,-0.151000000000
7.002759207000,-0.146000000000
7.010445841000,-0.142000000000
7.018132475000,-0.139000000000
7.025819109000,-0.139000000000
7.033505743000,-0.156000000000
7.041192377000,-0.210000000000
7.048879011000,-0.291000000000
7.056565645000,-0.193000000000
7.064252279000,0.384000000000
7.071938913000,1.298000000000
7.079625547000,1.979000000000
7.087312181000,1.643000000000
7.094998815000,0.173000000000
7.102685449000,-0.774000000000
7.110372083000,-0.360000000000
7.118058717000,-0.031000000000
7.125745351000,-0.244000000000
7.133431985000,-0.240000000000
7.141118619000,-0.115000000000
7.148805253000,-0.154000000000
7.156491887000,-0.164000000000
7.164178521000,-0.100000000000
7.171865155000,-0.085000000000
7.179551789000,-0.080000000000
7.187238423000,-0.041000000000
7.194925057000,-0.014000000000
7.202611691000,0.004000000000
7.210298325000,0.036000000000
7.217984959000,0.071000000000
7.225671593000,0.100000000000
7.233358227000,0.134000000000
7.241044861000,0.173000000000
7.248731495000,0.205000000000
7.256418129000,0.230000000000
7.264104763000,0.249000000000
7.271791397000,0.254000000000
7.279478031000,0.252000000000
7.287164665000,0.240000000000
7.294851299000,0.220000000000
7.302537933000,0.195000000000
7.310224567000,0.164000000000
7.317911213000,0.112000000000
7.325598125000,0.044000000000
7.333285037000,-0.034000000000
7.340971949000,-0.117000000000
7.348658861000,-0.195000000000
7.356345773000,-0.257000000000
7.364032685000,-0.293000000000
7.371719597000,-0.313000000000
7.379406509000,-0.318000000000
7.387093421000,-0.313000000000
7.394780333000,-0.303000000000
7.402467245000,-0.289000000000
7.410154157000,-0.276000000000
7.417841069000,-0.264000000000
7.425527981000,-0.249000000000
7.433214893000,-0.240000000000
7.440901805000,-0.230000000000
7.448588717000,-0.220000000000
7.456275629000,-0.218000000000
7.463962541000,-0.215000000000
7.471649453000,-0.210000000000
7.479336365000,-0.208000000000
7.487023277000,-0.208000000000
7.494710189000,-0.208000000000
7.502397101000,-0.205000000000
7.510084013000,-0.205000000000
7.517770925000,-0.205000000000
7.525457837000,-0.203000000000
7.533144749000,-0.198000000000
7.540831661000,-0.195000000000
7.548518573000,-0.191000000000
7.556205485000,-0.186000000000
7.563892397000,-0.183000000000
7.571579309000,-0.183000000000
7.579266221000,-0.176000000000
7.586953133000,-0.173000000000
7.594640045000,-0.178000000000
7.602326957000,-0.178000000000
7.610013869000,-0.159000000000
7.617700781000,-0.132000000000
7.625387693000,-0.110000000000
7.633074605000,-0.105000000000
7.640761517000,-0.102000000000
7.648448429000,-0.100000000000
7.656135341000,-0.120000000000
7.663822253000,-0.156000000000
7.671509165000,-0.166000000000
7.679196077000,-0.151000000000
7.686882989000,-0.144000000000
7.694569901000,-0.142000000000
7.702256813000,-0.137000000000
7.709943725000,-0.134000000000
7.717630637000,-0.129000000000
7.725317549000,-0.129000000000
7.733004461000,-0.149000000000
7.740691373000,-0.195000000000
7.748378285000,-0.274000000000
7.756065197000,-0.186000000000
7.763752109000,0.387000000000
7.771439021000,1.293000000000
7.779125933000,1.947000000000
7.786812845000,1.606000000000
7.794499757000,0.173000000000
7.802186669000,-0.754000000000
7.809873581000,-0.355000000000
7.817560493000,-0.026000000000
7.825247405000,-0.227000000000
7.832934317000,-0.222000000000
7.840621229000,-0.102000000000
7.848308141000,-0.139000000000
7.855995053000,-0.146000000000
7.863681965000,-0.083000000000
7.871368877000,-0.071000000000
7.879055849000,-0.066000000000
7.886742901000,-0.029000000000
7.894429953000,0.000000000000
7.902117005000,0.017000000000
7.909804057000,0.051000000000
7.917491109000,0.090000000000
7.925178161000,0.117000000000
7.932865213000,0.146000000000
7.940552265000,0.181000000000
7.948239317000,0.210000000000
7.955926369000,0.240000000000
7.963613421000,0.267000000000
7.971300473000,0.271000000000
7.978987525000,0.264000000000
7.986674577000,0.254000000000
7.994361629000,0.237000000000
8.002048681000,0.208000000000
8.009735733000,0.173000000000
8.017422785000,0.127000000000
8.025109837000,0.058000000000
8.032796889000,-0.019000000000
8.040483941000,-0.100000000000
8.048170993000,-0.176000000000
8.055858045000,-0.235000000000
8.063545097000,-0.274000000000
8.071232149000,-0.301000000000
8.078919201000,-0.306000000000
8.086606253000,-0.301000000000
8.094293305000,-0.293000000000
8.101980357000,-0.279000000000
8.109667409000,-0.264000000000
8.117354461000,-0.252000000000
8.125041513000,-0.240000000000
8.132728565000,-0.227000000000
8.140415617000,-0.220000000000
8.148102669000,-0.215000000000
8.155789721000,-0.210000000000
8.163476773000,-0.200000000000
8.171163825000,-0.195000000000
8.178850877000,-0.198000000000
8.186537929000,-0.200000000000
8.194224981000,-0.195000000000
8.201912033000,-0.195000000000
8.209599085000,-0.195000000000
8.217286137000,-0.193000000000
8.224973189000,-0.191000000000
8.232660241000,-0.186000000000
8.240347293000,-0.183000000000
8.248034345000,-0.178000000000
8.255721397000,-0.176000000000
8.263408449000,-0.178000000000
8.271095501000,-0.181000000000
8.278782553000,-0.173000000000
8.286469605000,-0.166000000000
8.294156657000,-0.169000000000
8.301843709000,-0.166000000000
8.309530761000,-0.151000000000
8.317217813000,-0.122000000000
8.324904865000,-0.097000000000
8.332591917000,-0.097000000000
8.340278969000,-0.097000000000
8.347966021000,-0.095000000000
8.355653073000,-0.124000000000
8.363340125000,-0.161000000000
8.371027177000,-0.159000000000
8.378714229000,-0.149000000000
8.386401281000,-0.149000000000
8.394088333000,-0.137000000000
8.401775385000,-0.124000000000
8.409462437000,-0.127000000000
8.417149489000,-0.124000000000
8.424836541000,-0.127000000000
8.432523593000,-0.154000000000
8.440210663000,-0.220000000000
8.447897436000,-0.274000000000
8.455584209000,-0.044000000000
8.463270982000,0.688000000000
8.470957755000,1.550000000000
8.478644528000,1.873000000000
8.486331301000,1.058000000000
8.494018074000,-0.345000000000
8.501704847000,-0.680000000000
8.509391620000,-0.154000000000
8.517078393000,-0.097000000000
8.524765166000,-0.247000000000
8.532451939000,-0.139000000000
8.540138712000,-0.093000000000
8.547825485000,-0.142000000000
8.555512258000,-0.105000000000
8.563199031000,-0.063000000000
8.570885804000,-0.063000000000
8.578572577000,-0.039000000000
8.586259350000,-0.002000000000
8.593946123000,0.017000000000
8.601632896000,0.044000000000
8.609319669000,0.078000000000
8.617006442000,0.107000000000
8.624693215000,0.137000000000
8.632379988000,0.169000000000
8.640066761000,0.200000000000
8.647753534000,0.232000000000
8.655440307000,0.259000000000
8.663127080000,0.267000000000
8.670813853000,0.264000000000
8.678500626000,0.259000000000
8.686187399000,0.240000000000
8.693874172000,0.218000000000
8.701560945000,0.193000000000
8.709247718000,0.154000000000
8.716934491000,0.097000000000
8.724621264000,0.024000000000
8.732308037000,-0.053000000000
8.739994810000,-0.134000000000
8.747681583000,-0.205000000000
8.755368356000,-0.259000000000
8.763055129000,-0.286000000000
8.770741902000,-0.298000000000
8.778428675000,-0.303000000000
8.786115448000,-0.296000000000
8.793802221000,-0.284000000000
8.801488994000,-0.271000000000
8.809175767000,-0.259000000000
8.816862540000,-0.247000000000
8.824549313000,-0.235000000000
8.832236086000,-0.222000000000
8.839922859000,-0.213000000000
8.847609632000,-0.208000000000
8.855296405000,-0.208000000000
8.862983178000,-0.203000000000
8.870669951000,-0.195000000000
8.878356724000,-0.195000000000
8.886043497000,-0.195000000000
8.893730270000,-0.195000000000
8.901417043000,-0.193000000000
8.909103816000,-0.191000000000
8.916790589000,-0.191000000000
8.924477362000,-0.191000000000
8.932164135000,-0.191000000000
8.939850908000,-0.186000000000
8.947537681000,-0.183000000000
8.955224454000,-0.181000000000
8.962911227000,-0.178000000000
8.970598000000,-0.171000000000
8.978284773000,-0.173000000000
8.985971546000,-0.178000000000
8.993658319000,-0.176000000000
9.001345125000,-0.164000000000
9.009031828000,-0.144000000000
9.016718531000,-0.127000000000
9.024405234000,-0.115000000000
9.032091937000,-0.105000000000
9.039778640000,-0.102000000000
9.047465343000,-0.117000000000
9.055152046000,-0.146000000000
9.062838749000,-0.161000000000
9.070525452000,-0.149000000000
9.078212155000,-0.144000000000
9.085898858000,-0.142000000000
9.093585561000,-0.137000000000
9.101272264000,-0.132000000000
9.108958967000,-0.127000000000
9.116645670000,-0.129000000000
9.124332373000,-0.151000000000
9.132019076000,-0.210000000000
9.139705779000,-0.276000000000
9.147392482000,-0.097000000000
9.155079185000,0.573000000000
9.162765888000,1.474000000000
9.170452591000,1.959000000000
9.178139294000,1.308000000000
9.185825997000,-0.169000000000
9.193512700000,-0.737000000000
9.201199403000,-0.215000000000
9.208886106000,-0.058000000000
9.216572809000,-0.254000000000
9.224259512000,-0.183000000000
9.231946215000,-0.100000000000
9.239632918000,-0.151000000000
9.247319621000,-0.134000000000
9.255006324000,-0.080000000000
9.262693027000,-0.075000000000
9.270379730000,-0.061000000000
9.278066433000,-0.024000000000
9.285753136000,-0.002000000000
9.293439839000,0.019000000000
9.301126542000,0.053000000000
9.308813245000,0.085000000000
9.316499948000,0.115000000000
9.324186651000,0.146000000000
9.331873354000,0.181000000000
9.339560057000,0.210000000000
9.347246760000,0.235000000000
9.354933463000,0.249000000000
9.362620166000,0.252000000000
9.370306869000,0.244000000000
9.377993572000,0.232000000000
9.385680275000,0.210000000000
9.393366978000,0.183000000000
9.401053681000,0.149000000000
9.408740384000,0.097000000000
9.416427087000,0.024000000000
9.424113790000,-0.053000000000
9.431800493000,-0.129000000000
9.439487196000,-0.200000000000
9.447173899000,-0.257000000000
9.454860602000,-0.289000000000
9.462547305000,-0.301000000000
9.470234008000,-0.303000000000
9.477920711000,-0.298000000000
9.485607414000,-0.289000000000
9.493294117000,-0.274000000000
9.500980820000,-0.262000000000
9.508667523000,-0.247000000000
9.516354226000,-0.237000000000
9.524040929000,-0.225000000000
9.531727632000,-0.218000000000
9.539414335000,-0.213000000000
9.547101038000,-0.205000000000
9.554787741000,-0.203000000000
9.562474508000,-0.200000000000
9.570161629000,-0.200000000000
9.577848750000,-0.198000000000
9.585535871000,-0.195000000000
9.593222992000,-0.195000000000
9.600910113000,-0.195000000000
9.608597234000,-0.193000000000
9.616284355000,-0.191000000000
9.623971476000,-0.188000000000
9.631658597000,-0.186000000000
9.639345718000,-0.186000000000
9.647032839000,-0.181000000000
9.654719960000,-0.176000000000
9.662407081000,-0.171000000000
9.670094202000,-0.169000000000
9.677781323000,-0.166000000000
9.685468444000,-0.171000000000
9.693155565000,-0.171000000000
9.700842686000,-0.161000000000
9.708529807000,-0.142000000000
9.716216928000,-0.120000000000
9.723904049000,-0.107000000000
9.731591170000,-0.100000000000
9.739278291000,-0.095000000000
9.746965412000,-0.110000000000
9.754652533000,-0.142000000000
9.762339654000,-0.156000000000
9.770026775000,-0.146000000000
9.777713896000,-0.139000000000
9.785401017000,-0.137000000000
9.793088138000,-0.134000000000
9.800775259000,-0.129000000000
9.808462380000,-0.127000000000
9.816149501000,-0.129000000000
9.823836622000,-0.149000000000
9.831523743000,-0.205000000000
9.839210864000,-0.281000000000
9.846897985000,-0.151000000000
9.854585106000,0.470000000000
9.862272227000,1.381000000000
9.869959348000,1.989000000000
9.877646469000,1.521000000000
9.885333590000,0.031000000000
9.893020711000,-0.764000000000
9.900707832000,-0.291000000000
9.908394953000,-0.036000000000
9.916082074000,-0.249000000000
9.923769195000,-0.213000000000
9.931456316000,-0.107000000000
9.939143437000,-0.156000000000
9.946830558000,-0.151000000000
9.954517679000,-0.090000000000
9.962204800000,-0.080000000000
9.969891921000,-0.071000000000
9.977579042000,-0.034000000000
9.985266163000,-0.009000000000
9.992953284000,0.009000000000
10.000640405000,0.044000000000
10.008327526000,0.075000000000
10.016014647000,0.105000000000
10.023701768000,0.142000000000
10.031388889000,0.176000000000
10.039076010000,0.205000000000
10.046763131000,0.232000000000
10.054450252000,0.249000000000
10.062137373000,0.254000000000
10.069824494000,0.249000000000
10.077511615000,0.237000000000
10.085198736000,0.218000000000
10.092885857000,0.195000000000
10.100572978000,0.161000000000
10.108260099000,0.107000000000
10.115947220000,0.041000000000
10.123634405000,-0.034000000000
10.131321108000,-0.117000000000
10.139007811000,-0.193000000000
10.146694514000,-0.252000000000
10.154381217000,-0.289000000000
10.162067920000,-0.306000000000
10.169754623000,-0.311000000000
10.177441326000,-0.306000000000
10.185128029000,-0.293000000000
10.192814732000,-0.281000000000
10.200501435000,-0.269000000000
10.208188138000,-0.254000000000
10.215874841000,-0.242000000000
10.223561544000,-0.232000000000
10.231248247000,-0.222000000000
10.238934950000,-0.215000000000
10.246621653000,-0.213000000000
10.254308356000,-0.210000000000
10.261995059000,-0.208000000000
10.269681762000,-0.205000000000
10.277368465000,-0.203000000000
10.285055168000,-0.203000000000
10.292741871000,-0.200000000000
10.300428574000,-0.200000000000
10.308115277000,-0.198000000000
10.315801980000,-0.198000000000
10.323488683000,-0.195000000000
10.331175386000,-0.193000000000
10.338862089000,-0.191000000000
10.346548792000,-0.186000000000
10.354235495000,-0.181000000000
10.361922198000,-0.176000000000
10.369608901000,-0.173000000000
10.377295604000,-0.173000000000
10.384982307000,-0.176000000000
10.392669010000,-0.176000000000
10.400355713000,-0.164000000000
10.408042416000,-0.142000000000
10.415729119000,-0.120000000000
10.423415822000,-0.110000000000
10.431102525000,-0.105000000000
10.438789228000,-0.105000000000
10.446475931000,-0.122000000000
10.454162634000,-0.154000000000
10.461849337000,-0.159000000000
10.469536040000,-0.146000000000
10.477222743000,-0.142000000000
10.484909446000,-0.142000000000
10.492596149000,-0.134000000000
10.500282852000,-0.129000000000
10.507969555000,-0.127000000000
10.515656258000,-0.129000000000
10.523342961000,-0.156000000000
10.531029664000,-0.222000000000
10.538716367000,-0.286000000000
10.546403070000,-0.071000000000
10.554089773000,0.641000000000
10.561776476000,1.555000000000
10.569463179000,2.023000000000
10.577149882000,1.298000000000
10.584836585000,-0.227000000000
10.592523288000,-0.737000000000
10.600209991000,-0.188000000000
10.607896694000,-0.071000000000
10.615583397000,-0.274000000000
10.623270100000,-0.186000000000
10.630956803000,-0.112000000000
10.638643506000,-0.166000000000
10.646330209000,-0.142000000000
10.654016912000,-0.085000000000
10.661703615000,-0.083000000000
10.669390318000,-0.066000000000
10.677077021000,-0.029000000000
10.684763784000,-0.007000000000
10.692450766000,0.014000000000
10.700137748000,0.048000000000
10.707824730000,0.083000000000
10.715511712000,0.115000000000
10.723198694000,0.149000000000
10.730885676000,0.181000000000
10.738572658000,0.213000000000
10.746259640000,0.235000000000
10.753946622000,0.249000000000
10.761633604000,0.254000000000
10.769320586000,0.247000000000
10.777007568000,0.235000000000
10.784694550000,0.215000000000
10.792381532000,0.188000000000
10.800068514000,0.149000000000
10.807755496000,0.095000000000
10.815442478000,0.024000000000
10.823129460000,-0.053000000000
10.830816442000,-0.134000000000
10.838503424000,-0.208000000000
10.846190406000,-0.262000000000
10.853877388000,-0.291000000000
10.861564370000,-0.301000000000
10.869251352000,-0.306000000000
10.876938334000,-0.306000000000
10.884625316000,-0.291000000000
10.892312298000,-0.276000000000
10.899999280000,-0.267000000000
10.907686262000,-0.257000000000
10.915373244000,-0.244000000000
10.923060226000,-0.230000000000
10.930747208000,-0.222000000000
10.938434190000,-0.215000000000
10.946121172000,-0.210000000000
10.953808154000,-0.208000000000
10.961495136000,-0.208000000000
10.969182118000,-0.208000000000
10.976869100000,-0.208000000000
10.984556082000,-0.205000000000
10.992243064000,-0.203000000000
10.999930046000,-0.203000000000
11.007617028000,-0.198000000000
11.015304010000,-0.195000000000
11.022990992000,-0.193000000000
11.030677974000,-0.191000000000
11.038364956000,-0.188000000000
11.046051938000,-0.183000000000
11.053738920000,-0.181000000000
11.061425902000,-0.173000000000
11.069112884000,-0.171000000000
11.076799866000,-0.176000000000
11.084486848000,-0.178000000000
11.092173830000,-0.171000000000
11.099860812000,-0.159000000000
11.107547794000,-0.134000000000
11.115234776000,-0.112000000000
11.122921758000,-0.107000000000
11.130608740000,-0.105000000000
11.138295722000,-0.102000000000
11.145982704000,-0.124000000000
11.153669686000,-0.154000000000
11.161356668000,-0.156000000000
11.169043650000,-0.142000000000
11.176730632000,-0.137000000000
11.184417614000,-0.137000000000
11.192104596000,-0.134000000000
11.199791578000,-0.129000000000
11.207478560000,-0.124000000000
11.215165542000,-0.134000000000
11.222852524000,-0.169000000000
11.230539506000,-0.244000000000
11.238226488000,-0.247000000000
11.245913511000,0.129000000000
11.253600354000,0.955000000000
11.261287197000,1.778000000000
11.268974040000,1.878000000000
11.276660883000,0.737000000000
11.284347726000,-0.587000000000
11.292034569000,-0.573000000000
11.299721412000,-0.063000000000
11.307408255000,-0.156000000000
11.315095098000,-0.257000000000
11.322781941000,-0.124000000000
11.330468784000,-0.117000000000
11.338155627000,-0.151000000000
11.345842470000,-0.097000000000
11.353529313000,-0.068000000000
11.361216156000,-0.066000000000
11.368902999000,-0.039000000000
11.376589842000,-0.009000000000
11.384276685000,0.014000000000
11.391963528000,0.046000000000
11.399650371000,0.078000000000
11.407337214000,0.110000000000
11.415024057000,0.142000000000
11.422710900000,0.173000000000
11.430397743000,0.210000000000
11.438084586000,0.244000000000
11.445771429000,0.262000000000
11.453458272000,0.264000000000
11.461145115000,0.267000000000
11.468831958000,0.264000000000
11.476518801000,0.244000000000
11.484205644000,0.218000000000
11.491892487000,0.188000000000
11.499579330000,0.146000000000
11.507266173000,0.088000000000
11.514953016000,0.017000000000
11.522639859000,-0.066000000000
11.530326702000,-0.151000000000
11.538013545000,-0.222000000000
11.545700388000,-0.264000000000
11.553387231000,-0.286000000000
11.561074074000,-0.298000000000
11.568760917000,-0.306000000000
11.576447760000,-0.303000000000
11.584134603000,-0.279000000000
11.591821446000,-0.262000000000
11.599508289000,-0.259000000000
11.607195132000,-0.252000000000
11.614881975000,-0.232000000000
11.622568818000,-0.220000000000
11.630255661000,-0.210000000000
11.637942504000,-0.208000000000
11.645629347000,-0.208000000000
11.653316190000,-0.200000000000
11.661003033000,-0.195000000000
11.668689876000,-0.195000000000
11.676376719000,-0.188000000000
11.684063562000,-0.186000000000
11.691750405000,-0.195000000000
11.699437248000,-0.195000000000
11.707124091000,-0.191000000000
11.714810934000,-0.188000000000
11.722497777000,-0.188000000000
11.730184620000,-0.186000000000
11.737871463000,-0.181000000000
11.745558306000,-0.178000000000
11.753245149000,-0.181000000000
11.760931992000,-0.183000000000
11.768618835000,-0.173000000000
11.776305678000,-0.154000000000
11.783992521000,-0.137000000000
11.791679364000,-0.129000000000
11.799366207000,-0.120000000000
11.807053060000,-0.105000000000
11.814739763000,-0.112000000000
11.822426466000,-0.146000000000
11.830113169000,-0.169000000000
11.837799872000,-0.156000000000
11.845486575000,-0.146000000000
11.853173278000,-0.144000000000
11.860859981000,-0.142000000000
11.868546684000,-0.137000000000
11.876233387000,-0.129000000000
11.883920090000,-0.127000000000
11.891606793000,-0.149000000000
11.899293496000,-0.198000000000
11.906980199000,-0.267000000000
11.914666902000,-0.154000000000
11.922353605000,0.440000000000
11.930040308000,1.327000000000
11.937727011000,1.881000000000
11.945413714000,1.410000000000
11.953100417000,0.007000000000
11.960787120000,-0.749000000000
11.968473823000,-0.313000000000
11.976160526000,-0.058000000000
11.983847229000,-0.237000000000
11.991533932000,-0.193000000000
11.999220635000,-0.095000000000
12.006907338000,-0.142000000000
12.014594041000,-0.137000000000
12.022280744000,-0.078000000000
12.029967447000,-0.068000000000
12.037654150000,-0.061000000000
12.045340853000,-0.024000000000
12.053027556000,0.002000000000
12.060714259000,0.024000000000
12.068400962000,0.053000000000
12.076087665000,0.085000000000
12.083774368000,0.117000000000
12.091461071000,0.151000000000
12.099147774000,0.186000000000
12.106834477000,0.215000000000
12.114521180000,0.240000000000
12.122207883000,0.257000000000
12.129894586000,0.259000000000
12.137581289000,0.252000000000
12.145267992000,0.235000000000
12.152954695000,0.213000000000
12.160641398000,0.186000000000
12.168328101000,0.151000000000
12.176014804000,0.097000000000
12.183701507000,0.026000000000
12.191388210000,-0.048000000000
12.199074913000,-0.129000000000
12.206761616000,-0.203000000000
12.214448319000,-0.259000000000
12.222135022000,-0.289000000000
12.229821725000,-0.301000000000
12.237508428000,-0.308000000000
12.245195131000,-0.306000000000
12.252881834000,-0.293000000000
12.260568537000,-0.281000000000
12.268255240000,-0.267000000000
12.275941943000,-0.252000000000
12.283628646000,-0.240000000000
12.291315349000,-0.232000000000
12.299002052000,-0.225000000000
12.306688755000,-0.218000000000
12.314375458000,-0.213000000000
12.322062161000,-0.208000000000
12.329748864000,-0.203000000000
12.337435567000,-0.198000000000
12.345122270000,-0.198000000000
12.352808973000,-0.195000000000
12.360495676000,-0.195000000000
12.368182439000,-0.195000000000
12.375869560000,-0.193000000000
12.383556681000,-0.193000000000
12.391243802000,-0.191000000000
12.398930923000,-0.191000000000
12.406618044000,-0.186000000000
12.414305165000,-0.183000000000
12.421992286000,-0.181000000000
12.429679407000,-0.181000000000
12.437366528000,-0.186000000000
12.445053649000,-0.183000000000
12.452740770000,-0.169000000000
12.460427891000,-0.151000000000
12.468115012000,-0.137000000000
12.475802133000,-0.129000000000
12.483489254000,-0.115000000000
12.491176375000,-0.105000000000
12.498863496000,-0.129000000000
12.506550617000,-0.161000000000
12.514237738000,-0.164000000000
12.521924859000,-0.149000000000
12.529611980000,-0.149000000000
12.537299101000,-0.144000000000
12.544986222000,-0.137000000000
12.552673343000,-0.134000000000
12.560360464000,-0.129000000000
12.568047585000,-0.134000000000
12.575734706000,-0.161000000000
12.583421827000,-0.232000000000
12.591108948000,-0.269000000000
12.598796069000,0.022000000000
12.606483190000,0.801000000000
12.614170311000,1.685000000000
12.621857432000,1.979000000000
12.629544553000,1.021000000000
12.637231674000,-0.436000000000
12.644918795000,-0.671000000000
12.652605916000,-0.115000000000
12.660293037000,-0.112000000000
12.667980158000,-0.276000000000
12.675667279000,-0.161000000000
12.683354400000,-0.120000000000
12.691041521000,-0.169000000000
12.698728642000,-0.127000000000
12.706415763000,-0.083000000000
12.714102884000,-0.083000000000
12.721790005000,-0.061000000000
12.729477126000,-0.024000000000
12.737164247000,-0.002000000000
12.744851368000,0.019000000000
12.752538489000,0.053000000000
12.760225610000,0.085000000000
12.767912731000,0.117000000000
12.775599852000,0.151000000000
12.783286973000,0.186000000000
12.790974094000,0.215000000000
12.798661215000,0.240000000000
12.806348336000,0.249000000000
12.814035457000,0.252000000000
12.821722578000,0.242000000000
12.829409699000,0.227000000000
12.837096820000,0.205000000000
12.844783941000,0.181000000000
12.852471062000,0.139000000000
12.860158183000,0.080000000000
12.867845304000,0.007000000000
12.875532425000,-0.073000000000
12.883219546000,-0.151000000000
12.890906667000,-0.222000000000
12.898593788000,-0.274000000000
12.906280909000,-0.298000000000
12.913968030000,-0.308000000000
12.921655151000,-0.311000000000
12.929342340000,-0.303000000000
12.937029043000,-0.291000000000
12.944715746000,-0.279000000000
12.952402449000,-0.264000000000
12.960089152000,-0.249000000000
12.967775855000,-0.237000000000
12.975462558000,-0.227000000000
12.983149261000,-0.220000000000
12.990835964000,-0.215000000000
12.998522667000,-0.213000000000
13.006209370000,-0.210000000000
13.013896073000,-0.205000000000
13.021582776000,-0.203000000000
13.029269479000,-0.205000000000
13.036956182000,-0.205000000000
13.044642885000,-0.203000000000
13.052329588000,-0.200000000000
13.060016291000,-0.200000000000
13.067702994000,-0.198000000000
13.075389697000,-0.195000000000
13.083076400000,-0.195000000000
13.090763103000,-0.191000000000
13.098449806000,-0.186000000000
13.106136509000,-0.186000000000
13.113823212000,-0.191000000000
13.121509915000,-0.191000000000
13.129196618000,-0.178000000000
13.136883321000,-0.161000000000
13.144570024000,-0.142000000000
13.152256727000,-0.134000000000
13.159943430000,-0.122000000000
13.167630133000,-0.110000000000
13.175316836000,-0.120000000000
13.183003539000,-0.159000000000
13.190690242000,-0.171000000000
13.198376945000,-0.156000000000
13.206063648000,-0.149000000000
13.213750351000,-0.149000000000
13.221437054000,-0.144000000000
13.229123757000,-0.137000000000
13.236810460000,-0.134000000000
13.244497163000,-0.134000000000
13.252183866000,-0.154000000000
13.259870569000,-0.208000000000
13.267557272000,-0.281000000000
13.275243975000,-0.149000000000
13.282930678000,0.470000000000
13.290617381000,1.396000000000
13.298304084000,2.030000000000
13.305990787000,1.572000000000
13.313677490000,0.051000000000
13.321364193000,-0.774000000000
13.329050896000,-0.303000000000
13.336737599000,-0.044000000000
13.344424302000,-0.259000000000
13.352111005000,-0.222000000000
13.359797708000,-0.115000000000
13.367484411000,-0.164000000000
13.375171114000,-0.159000000000
13.382857817000,-0.097000000000
13.390544520000,-0.088000000000
13.398231223000,-0.078000000000
13.405917926000,-0.041000000000
13.413604629000,-0.014000000000
13.421291332000,0.004000000000
13.428978035000,0.039000000000
13.436664738000,0.073000000000
13.444351441000,0.102000000000
13.452038144000,0.139000000000
13.459724847000,0.173000000000
13.467411550000,0.208000000000
13.475098253000,0.232000000000
13.482784956000,0.249000000000
13.490471719000,0.257000000000
13.498158631000,0.252000000000
13.505845543000,0.237000000000
13.513532455000,0.220000000000
13.521219367000,0.198000000000
13.528906279000,0.161000000000
13.536593191000,0.107000000000
13.544280103000,0.036000000000
13.551967015000,-0.044000000000
13.559653927000,-0.127000000000
13.567340839000,-0.203000000000
13.575027751000,-0.259000000000
13.582714663000,-0.293000000000
13.590401575000,-0.311000000000
13.598088487000,-0.311000000000
13.605775399000,-0.306000000000
13.613462311000,-0.296000000000
13.621149223000,-0.281000000000
13.628836135000,-0.269000000000
13.636523047000,-0.257000000000
13.644209959000,-0.242000000000
13.651896871000,-0.232000000000
13.659583783000,-0.222000000000
13.667270695000,-0.215000000000
13.674957607000,-0.213000000000
13.682644519000,-0.210000000000
13.690331431000,-0.208000000000
13.698018343000,-0.205000000000
13.705705255000,-0.203000000000
13.713392167000,-0.203000000000
13.721079079000,-0.200000000000
13.728765991000,-0.200000000000
13.736452903000,-0.198000000000
13.744139815000,-0.193000000000
13.751826727000,-0.193000000000
13.759513639000,-0.191000000000
13.767200551000,-0.188000000000
13.774887463000,-0.186000000000
13.782574375000,-0.181000000000
13.790261287000,-0.181000000000
13.797948199000,-0.186000000000
13.805635111000,-0.183000000000
13.813322023000,-0.171000000000
13.821008935000,-0.146000000000
13.828695847000,-0.132000000000
13.836382759000,-0.124000000000
13.844069671000,-0.112000000000
13.851756583000,-0.102000000000
13.859443495000,-0.122000000000
13.867130407000,-0.156000000000
13.874817319000,-0.164000000000
13.882504231000,-0.149000000000
13.890191143000,-0.142000000000
13.897878055000,-0.142000000000
13.905564967000,-0.134000000000
13.913251879000,-0.127000000000
13.920938791000,-0.124000000000
13.928625703000,-0.132000000000
13.936312615000,-0.156000000000
13.943999527000,-0.218000000000
13.951686439000,-0.276000000000
13.959373351000,-0.058000000000
13.967060263000,0.654000000000
13.974747175000,1.575000000000
13.982434087000,2.050000000000
13.990120999000,1.312000000000
13.997807911000,-0.232000000000
14.005494823000,-0.744000000000
14.013181735000,-0.186000000000
14.020868647000,-0.071000000000
14.028555559000,-0.274000000000
14.036242471000,-0.181000000000
14.043929383000,-0.107000000000
14.051616359000,-0.164000000000
14.059303271000,-0.134000000000
14.066990183000,-0.078000000000
14.074677095000,-0.078000000000
14.082364007000,-0.061000000000
14.090050919000,-0.022000000000
14.097737831000,0.002000000000
14.105424743000,0.022000000000
14.113111655000,0.056000000000
14.120798567000,0.095000000000
14.128485479000,0.129000000000
14.136172391000,0.159000000000
14.143859303000,0.193000000000
14.151546215000,0.230000000000
14.159233127000,0.257000000000
14.166920039000,0.269000000000
14.174606951000,0.271000000000
14.182293863000,0.262000000000
14.189980775000,0.247000000000
14.197667687000,0.232000000000
14.205354599000,0.208000000000
14.213041511000,0.166000000000
14.220728423000,0.105000000000
14.228415335000,0.034000000000
14.236102247000,-0.041000000000
14.243789159000,-0.120000000000
14.251476071000,-0.200000000000
14.259162983000,-0.262000000000
14.266849895000,-0.286000000000
14.274536807000,-0.296000000000
14.282223719000,-0.301000000000
14.289910631000,-0.298000000000
14.297597543000,-0.284000000000
14.305284455000,-0.269000000000
14.312971367000,-0.259000000000
14.320658279000,-0.247000000000
14.328345191000,-0.232000000000
14.336032103000,-0.222000000000
14.343719015000,-0.218000000000
14.351405927000,-0.213000000000
14.359092839000,-0.200000000000
14.366779751000,-0.193000000000
14.374466663000,-0.193000000000
14.382153575000,-0.193000000000
14.389840487000,-0.188000000000
14.397527399000,-0.193000000000
14.405214311000,-0.198000000000
14.412901223000,-0.193000000000
14.420588135000,-0.188000000000
14.428275047000,-0.186000000000
14.435961959000,-0.191000000000
14.443648871000,-0.186000000000
14.451335783000,-0.173000000000
14.459022695000,-0.173000000000
14.466709607000,-0.178000000000
14.474396519000,-0.181000000000
14.482083431000,-0.178000000000
14.489770343000,-0.171000000000
14.497457255000,-0.154000000000
14.505144167000,-0.137000000000
14.512831079000,-0.122000000000
14.520517991000,-0.112000000000
14.528204903000,-0.100000000000
14.535891815000,-0.100000000000
14.543578727000,-0.127000000000
14.551265639000,-0.159000000000
14.558952551000,-0.156000000000
14.566639463000,-0.137000000000
14.574326375000,-0.137000000000
14.582013287000,-0.139000000000
14.589700199000,-0.132000000000
14.597387111000,-0.124000000000
14.605074023000,-0.124000000000
14.612760995000,-0.132000000000
14.620447698000,-0.159000000000
14.628134401000,-0.232000000000
14.635821104000,-0.252000000000
14.643507807000,0.100000000000
14.651194510000,0.925000000000
14.658881213000,1.758000000000
14.666567916000,1.861000000000
14.674254619000,0.756000000000
14.681941322000,-0.556000000000
14.689628025000,-0.582000000000
14.697314728000,-0.080000000000
14.705001431000,-0.146000000000
14.712688134000,-0.242000000000
14.720374837000,-0.117000000000
14.728061540000,-0.110000000000
14.735748243000,-0.144000000000
14.743434946000,-0.093000000000
14.751121649000,-0.063000000000
14.758808352000,-0.058000000000
14.766495055000,-0.024000000000
14.774181758000,0.002000000000
14.781868461000,0.017000000000
14.789555164000,0.048000000000
14.797241867000,0.085000000000
14.804928570000,0.115000000000
14.812615273000,0.151000000000
14.820301976000,0.188000000000
14.827988679000,0.218000000000
14.835675382000,0.247000000000
14.843362085000,0.269000000000
14.851048788000,0.281000000000
14.858735491000,0.279000000000
14.866422194000,0.267000000000
14.874108897000,0.249000000000
14.881795600000,0.225000000000
14.889482303000,0.193000000000
14.897169006000,0.146000000000
14.904855709000,0.085000000000
14.912542412000,0.004000000000
14.920229115000,-0.078000000000
14.927915818000,-0.161000000000
14.935602521000,-0.227000000000
14.943289224000,-0.271000000000
14.950975927000,-0.296000000000
14.958662630000,-0.306000000000
14.966349333000,-0.306000000000
14.974036036000,-0.298000000000
14.981722739000,-0.286000000000
14.989409442000,-0.274000000000
14.997096145000,-0.262000000000
15.004782848000,-0.247000000000
15.012469551000,-0.235000000000
15.020156254000,-0.227000000000
15.027842957000,-0.218000000000
15.035529660000,-0.210000000000
15.043216363000,-0.205000000000
15.050903066000,-0.200000000000
15.058589769000,-0.200000000000
15.066276472000,-0.195000000000
15.073963175000,-0.193000000000
15.081649878000,-0.193000000000
15.089336581000,-0.195000000000
15.097023284000,-0.191000000000
15.104709987000,-0.191000000000
15.112396690000,-0.191000000000
15.120083393000,-0.188000000000
15.127770096000,-0.186000000000
15.135456799000,-0.183000000000
15.143143502000,-0.178000000000
15.150830205000,-0.178000000000
15.158516908000,-0.181000000000
15.166203611000,-0.186000000000
15.173890374000,-0.181000000000
15.181577495000,-0.164000000000
15.189264616000,-0.142000000000
15.196951737000,-0.132000000000
15.204638858000,-0.122000000000
15.212325979000,-0.107000000000
15.220013100000,-0.107000000000
15.227700221000,-0.137000000000
15.235387342000,-0.166000000000
15.243074463000,-0.161000000000
15.250761584000,-0.149000000000
15.258448705000,-0.149000000000
15.266135826000,-0.144000000000
15.273822947000,-0.134000000000
15.281510068000,-0.132000000000
15.289197189000,-0.132000000000
15.296884310000,-0.144000000000
15.304571431000,-0.178000000000
15.312258552000,-0.262000000000
15.319945673000,-0.249000000000
15.327632794000,0.188000000000
15.335319915000,1.065000000000
15.343007036000,1.861000000000
15.350694157000,1.829000000000
15.358381278000,0.568000000000
15.366068399000,-0.663000000000
15.373755520000,-0.514000000000
15.381442641000,-0.044000000000
15.389129762000,-0.183000000000
15.396816883000,-0.254000000000
15.404504004000,-0.122000000000
15.412191125000,-0.129000000000
15.419878246000,-0.161000000000
15.427565367000,-0.105000000000
15.435252488000,-0.075000000000
15.442939609000,-0.075000000000
15.450626730000,-0.044000000000
15.458313851000,-0.012000000000
15.466000972000,0.007000000000
15.473688093000,0.034000000000
15.481375214000,0.071000000000
15.489062335000,0.100000000000
15.496749456000,0.132000000000
15.504436577000,0.169000000000
15.512123698000,0.200000000000
15.519810819000,0.230000000000
15.527497940000,0.249000000000
15.535185061000,0.259000000000
15.542872182000,0.257000000000
15.550559303000,0.244000000000
15.558246424000,0.227000000000
15.565933545000,0.205000000000
15.573620666000,0.176000000000
15.581307787000,0.129000000000
15.588994908000,0.066000000000
15.596682029000,-0.012000000000
15.604369150000,-0.095000000000
15.612056271000,-0.173000000000
15.619743392000,-0.237000000000
15.627430513000,-0.276000000000
15.635117634000,-0.301000000000
15.642804755000,-0.306000000000
15.650491876000,-0.303000000000
15.658178997000,-0.296000000000
15.665866118000,-0.284000000000
15.673553239000,-0.269000000000
15.681240360000,-0.257000000000
15.688927481000,-0.242000000000
15.696614602000,-0.230000000000
15.704301723000,-0.222000000000
15.711988844000,-0.215000000000
15.719675965000,-0.205000000000
15.727363086000,-0.203000000000
15.735050271000,-0.200000000000
15.742737671000,-0.198000000000
15.750425071000,-0.198000000000
15.758112471000,-0.198000000000
15.765799871000,-0.195000000000
15.773487271000,-0.195000000000
15.781174671000,-0.195000000000
15.788862071000,-0.193000000000
15.796549471000,-0.191000000000
15.804236871000,-0.188000000000
15.811924271000,-0.188000000000
15.819611671000,-0.183000000000
15.827299071000,-0.178000000000
15.834986471000,-0.176000000000
15.842673871000,-0.178000000000
15.850361271000,-0.181000000000
15.858048671000,-0.178000000000
15.865736071000,-0.169000000000
15.873423471000,-0.149000000000
15.881110871000,-0.132000000000
15.888798271000,-0.122000000000
15.896485671000,-0.112000000000
15.904173071000,-0.100000000000
15.911860471000,-0.115000000000
15.919547871000,-0.151000000000
15.927235271000,-0.164000000000
15.934922671000,-0.146000000000
15.942610071000,-0.142000000000
15.950297471000,-0.142000000000
15.957984871000,-0.137000000000
15.965672271000,-0.132000000000
15.973359671000,-0.129000000000
15.981047071000,-0.132000000000
15.988734471000,-0.154000000000
15.996421871000,-0.220000000000
16.004109271000,-0.279000000000
16.011796671000,-0.068000000000
16.019484071000,0.641000000000
16.027171471000,1.567000000000
16.034858871000,2.057000000000
16.042546271000,1.347000000000
16.050233671000,-0.198000000000
16.057921071000,-0.744000000000
16.065608471000,-0.200000000000
16.073295871000,-0.071000000000
16.080983271000,-0.276000000000
16.088670671000,-0.193000000000
16.096358071000,-0.115000000000
16.104045471000,-0.169000000000
16.111732871000,-0.144000000000
16.119420271000,-0.088000000000
16.127107671000,-0.085000000000
16.134795071000,-0.071000000000
16.142482471000,-0.031000000000
16.150169871000,-0.009000000000
16.157857271000,0.012000000000
16.165544671000,0.046000000000
16.173232071000,0.080000000000
16.180919471000,0.112000000000
16.188606871000,0.149000000000
16.196294271000,0.186000000000
16.203981671000,0.215000000000
16.211669071000,0.242000000000
16.219356471000,0.259000000000
16.227043871000,0.262000000000
16.234731271000,0.254000000000
16.242418671000,0.242000000000
16.250106071000,0.222000000000
16.257793471000,0.198000000000
16.265480871000,0.159000000000
16.273168271000,0.102000000000
16.280855671000,0.026000000000
16.288543071000,-0.053000000000
16.296230518000,-0.137000000000
16.303916664000,-0.210000000000
16.311602810000,-0.264000000000
16.319288956000,-0.296000000000
16.326975102000,-0.308000000000
16.334661248000,-0.311000000000
16.342347394000,-0.306000000000
16.350033540000,-0.293000000000
16.357719686000,-0.281000000000
16.365405832000,-0.269000000000
16.373091978000,-0.254000000000
16.380778124000,-0.242000000000
16.388464270000,-0.230000000000
16.396150416000,-0.222000000000
16.403836562000,-0.215000000000
16.411522708000,-0.213000000000
16.419208854000,-0.208000000000
16.426895000000,-0.203000000000
16.434581146000,-0.200000000000
16.442267292000,-0.200000000000
16.449953438000,-0.200000000000
16.457639584000,-0.200000000000
16.465325730000,-0.198000000000
16.473011876000,-0.195000000000
16.480698022000,-0.195000000000
16.488384168000,-0.193000000000
16.496070314000,-0.188000000000
16.503756460000,-0.183000000000
16.511442606000,-0.178000000000
16.519128752000,-0.176000000000
16.526814898000,-0.176000000000
16.534501044000,-0.181000000000
16.542187190000,-0.181000000000
16.549873336000,-0.171000000000
16.557559482000,-0.151000000000
16.565245628000,-0.132000000000
16.572931774000,-0.120000000000
16.580617920000,-0.110000000000
16.588304066000,-0.100000000000
16.595990212000,-0.110000000000
16.603676358000,-0.144000000000
16.611362504000,-0.159000000000
16.619048650000,-0.149000000000
16.626734796000,-0.142000000000
16.634420942000,-0.139000000000
16.642107088000,-0.132000000000
16.649793234000,-0.127000000000
16.657479380000,-0.124000000000
16.665165526000,-0.127000000000
16.672851672000,-0.142000000000
16.680537818000,-0.188000000000
16.688223964000,-0.264000000000
16.695910110000,-0.171000000000
16.703596256000,0.401000000000
16.711282402000,1.312000000000
16.718968548000,1.998000000000
16.726654694000,1.677000000000
16.734340840000,0.208000000000
16.742026986000,-0.764000000000
16.749713132000,-0.360000000000
16.757399278000,-0.022000000000
16.765085424000,-0.227000000000
16.772771570000,-0.220000000000
16.780457716000,-0.102000000000
16.788143862000,-0.146000000000
16.795830008000,-0.149000000000
16.803516154000,-0.080000000000
16.811202300000,-0.071000000000
16.818888446000,-0.068000000000
16.826574592000,-0.029000000000
16.834260738000,0.004000000000
16.841946884000,0.026000000000
16.849633030000,0.056000000000
16.857319207000,0.090000000000
16.865006189000,0.122000000000
16.872693171000,0.159000000000
16.880380153000,0.195000000000
16.888067135000,0.230000000000
16.895754117000,0.254000000000
16.903441099000,0.276000000000
16.911128081000,0.286000000000
16.918815063000,0.274000000000
16.926502045000,0.257000000000
16.934189027000,0.247000000000
16.941876009000,0.225000000000
16.949562991000,0.186000000000
16.957249973000,0.134000000000
16.964936955000,0.071000000000
16.972623937000,-0.009000000000
16.980310919000,-0.097000000000
16.987997901000,-0.181000000000
16.995684883000,-0.247000000000
17.003371865000,-0.284000000000
17.011058847000,-0.303000000000
17.018745829000,-0.308000000000
17.026432811000,-0.301000000000
17.034119793000,-0.284000000000
17.041806775000,-0.274000000000
17.049493757000,-0.264000000000
17.057180739000,-0.242000000000
17.064867721000,-0.230000000000
17.072554703000,-0.232000000000
17.080241685000,-0.222000000000
17.087928667000,-0.213000000000
17.095615649000,-0.208000000000
17.103302631000,-0.193000000000
17.110989613000,-0.183000000000
17.118676595000,-0.191000000000
17.126363577000,-0.198000000000
17.134050559000,-0.191000000000
17.141737541000,-0.186000000000
17.149424523000,-0.191000000000
17.157111505000,-0.188000000000
17.164798487000,-0.183000000000
17.172485469000,-0.183000000000
17.180172451000,-0.183000000000
17.187859433000,-0.176000000000
17.195546415000,-0.169000000000
17.203233397000,-0.171000000000
17.210920379000,-0.178000000000
17.218607361000,-0.173000000000
17.226294343000,-0.156000000000
17.233981325000,-0.139000000000
17.241668307000,-0.127000000000
17.249355289000,-0.120000000000
17.257042271000,-0.105000000000
17.264729253000,-0.095000000000
17.272416235000,-0.120000000000
17.280103217000,-0.154000000000
17.287790199000,-0.156000000000
17.295477181000,-0.142000000000
17.303164163000,-0.137000000000
17.310851145000,-0.132000000000
17.318538127000,-0.124000000000
17.326225109000,-0.120000000000
17.333912091000,-0.115000000000
17.341599073000,-0.129000000000
17.349286055000,-0.164000000000
17.356973037000,-0.222000000000
17.364660019000,-0.244000000000
17.372347001000,0.075000000000
17.380033983000,0.891000000000
17.387720965000,1.726000000000
17.395407947000,1.864000000000
17.403094929000,0.815000000000
17.410781911000,-0.519000000000
17.418468930000,-0.602000000000
17.426155633000,-0.083000000000
17.433842336000,-0.127000000000
17.441529039000,-0.237000000000
17.449215742000,-0.115000000000
17.456902445000,-0.100000000000
17.464589148000,-0.142000000000
17.472275851000,-0.088000000000
17.479962554000,-0.051000000000
17.487649257000,-0.051000000000
17.495335960000,-0.022000000000
17.503022663000,0.012000000000
17.510709366000,0.031000000000
17.518396069000,0.061000000000
17.526082772000,0.090000000000
17.533769475000,0.122000000000
17.541456178000,0.161000000000
17.549142881000,0.193000000000
17.556829584000,0.225000000000
17.564516287000,0.262000000000
17.572202990000,0.289000000000
17.579889693000,0.301000000000
17.587576396000,0.296000000000
17.595263099000,0.281000000000
17.602949802000,0.264000000000
17.610636505000,0.240000000000
17.618323208000,0.210000000000
17.626009911000,0.164000000000
17.633696614000,0.093000000000
17.641383317000,0.012000000000
17.649070020000,-0.071000000000
17.656756723000,-0.154000000000
17.664443426000,-0.227000000000
17.672130129000,-0.269000000000
17.679816832000,-0.289000000000
17.687503535000,-0.301000000000
17.695190238000,-0.303000000000
17.702876941000,-0.296000000000
17.710563644000,-0.286000000000
17.718250347000,-0.271000000000
17.725937050000,-0.257000000000
17.733623753000,-0.244000000000
17.741310456000,-0.232000000000
17.748997159000,-0.222000000000
17.756683862000,-0.213000000000
17.764370565000,-0.208000000000
17.772057268000,-0.205000000000
17.779743971000,-0.200000000000
17.787430674000,-0.193000000000
17.795117377000,-0.191000000000
17.802804080000,-0.191000000000
17.810490783000,-0.191000000000
17.818177486000,-0.186000000000
17.825864189000,-0.186000000000
17.833550892000,-0.188000000000
17.841237595000,-0.186000000000
17.848924298000,-0.183000000000
17.856611001000,-0.183000000000
17.864297704000,-0.178000000000
17.871984407000,-0.178000000000
17.879671110000,-0.186000000000
17.887357813000,-0.186000000000
17.895044516000,-0.173000000000
17.902731219000,-0.154000000000
17.910417922000,-0.137000000000
17.918104625000,-0.127000000000
17.925791328000,-0.117000000000
17.933478031000,-0.105000000000
17.941164734000,-0.112000000000
17.948851437000,-0.146000000000
17.956538140000,-0.166000000000
17.964224843000,-0.156000000000
17.971911546000,-0.144000000000
17.979598309000,-0.144000000000
17.987285361000,-0.142000000000
17.994972413000,-0.137000000000
18.002659465000,-0.134000000000
18.010346517000,-0.137000000000
18.018033569000,-0.149000000000
18.025720621000,-0.195000000000
18.033407673000,-0.271000000000
18.041094725000,-0.173000000000
18.048781777000,0.411000000000
18.056468829000,1.322000000000
18.064155881000,1.942000000000
18.071842933000,1.523000000000
18.079529985000,0.088000000000
18.087217037000,-0.754000000000
18.094904089000,-0.340000000000
18.102591141000,-0.053000000000
18.110278193000,-0.240000000000
18.117965245000,-0.210000000000
18.125652297000,-0.102000000000
18.133339349000,-0.146000000000
18.141026401000,-0.146000000000
18.148713453000,-0.088000000000
18.156400505000,-0.078000000000
18.164087557000,-0.066000000000
18.171774609000,-0.029000000000
18.179461661000,-0.004000000000
18.187148713000,0.014000000000
18.194835765000,0.046000000000
18.202522817000,0.080000000000
18.210209869000,0.112000000000
18.217896921000,0.146000000000
18.225583973000,0.178000000000
18.233271025000,0.210000000000
18.240958077000,0.240000000000
18.248645129000,0.254000000000
18.256332181000,0.259000000000
18.264019233000,0.254000000000
18.271706285000,0.242000000000
18.279393337000,0.222000000000
18.287080389000,0.200000000000
18.294767441000,0.169000000000
18.302454493000,0.115000000000
18.310141545000,0.041000000000
18.317828597000,-0.036000000000
18.325515649000,-0.120000000000
18.333202701000,-0.195000000000
18.340889753000,-0.249000000000
18.348576805000,-0.281000000000
18.356263857000,-0.298000000000
18.363950909000,-0.303000000000
18.371637961000,-0.298000000000
18.379325013000,-0.286000000000
18.387012065000,-0.274000000000
18.394699117000,-0.262000000000
18.402386169000,-0.247000000000
18.410073221000,-0.235000000000
18.417760273000,-0.222000000000
18.425447325000,-0.215000000000
18.433134377000,-0.210000000000
18.440821429000,-0.205000000000
18.448508481000,-0.200000000000
18.456195533000,-0.198000000000
18.463882585000,-0.195000000000
18.471569637000,-0.195000000000
18.479256689000,-0.195000000000
18.486943741000,-0.195000000000
18.494630793000,-0.193000000000
18.502317845000,-0.191000000000
18.510004897000,-0.188000000000
18.517691949000,-0.186000000000
18.525379001000,-0.183000000000
18.533066053000,-0.181000000000
18.540753123000,-0.178000000000
18.548439896000,-0.176000000000
18.556126669000,-0.171000000000
18.563813442000,-0.166000000000
18.571500215000,-0.166000000000
18.579186988000,-0.169000000000
18.586873761000,-0.169000000000
18.594560534000,-0.156000000000
18.602247307000,-0.137000000000
18.609934080000,-0.120000000000
18.617620853000,-0.112000000000
18.625307626000,-0.102000000000
18.632994399000,-0.090000000000
18.640681172000,-0.102000000000
18.648367945000,-0.137000000000
18.656054718000,-0.154000000000
18.663741491000,-0.139000000000
18.671428264000,-0.132000000000
18.679115037000,-0.132000000000
18.686801810000,-0.127000000000
18.694488583000,-0.120000000000
18.702175356000,-0.117000000000
18.709862129000,-0.122000000000
18.717548902000,-0.144000000000
18.725235675000,-0.210000000000
18.732922448000,-0.279000000000
18.740609221000,-0.088000000000
18.748295994000,0.602000000000
18.755982767000,1.526000000000
18.763669540000,2.052000000000
18.771356313000,1.420000000000
18.779043086000,-0.107000000000
18.786729859000,-0.739000000000
18.794416632000,-0.218000000000
18.802103405000,-0.046000000000
18.809790178000,-0.259000000000
18.817476951000,-0.193000000000
18.825163724000,-0.102000000000
18.832850497000,-0.154000000000
18.840537270000,-0.137000000000
18.848224043000,-0.083000000000
18.855910816000,-0.075000000000
18.863597589000,-0.061000000000
18.871284362000,-0.024000000000
18.878971135000,-0.002000000000
18.886657908000,0.022000000000
18.894344681000,0.053000000000
18.902031454000,0.085000000000
18.909718227000,0.117000000000
18.917405000000,0.154000000000
18.925091773000,0.186000000000
18.932778546000,0.218000000000
18.940465319000,0.244000000000
18.948152092000,0.264000000000
18.955838865000,0.267000000000
18.963525638000,0.262000000000
18.971212411000,0.247000000000
18.978899184000,0.230000000000
18.986585957000,0.205000000000
18.994272730000,0.169000000000
19.001959503000,0.115000000000
19.009646276000,0.046000000000
19.017333049000,-0.034000000000
19.025019822000,-0.117000000000
19.032706595000,-0.193000000000
19.040393368000,-0.249000000000
19.048080141000,-0.284000000000
19.055766914000,-0.301000000000
19.063453687000,-0.306000000000
19.071140460000,-0.301000000000
19.078827233000,-0.289000000000
19.086514006000,-0.274000000000
19.094200779000,-0.262000000000
19.101887585000,-0.247000000000
19.109574358000,-0.235000000000
19.117261131000,-0.225000000000
19.124947904000,-0.215000000000
19.132634677000,-0.208000000000
19.140321450000,-0.205000000000
19.148008223000,-0.203000000000
19.155694996000,-0.203000000000
19.163381769000,-0.200000000000
19.171068542000,-0.200000000000
19.178755315000,-0.200000000000
19.186442088000,-0.198000000000
19.194128861000,-0.198000000000
19.201815634000,-0.195000000000
19.209502407000,-0.193000000000
19.217189180000,-0.193000000000
19.224875953000,-0.191000000000
19.232562726000,-0.186000000000
19.240249499000,-0.183000000000
19.247936272000,-0.181000000000
19.255623045000,-0.176000000000
19.263309818000,-0.176000000000
19.270996591000,-0.181000000000
19.278683364000,-0.181000000000
19.286370137000,-0.166000000000
19.294056910000,-0.146000000000
19.301743683000,-0.129000000000
19.309430456000,-0.117000000000
19.317117229000,-0.107000000000
19.324804002000,-0.100000000000
19.332490775000,-0.115000000000
19.340177548000,-0.146000000000
19.347864321000,-0.161000000000
19.355551094000,-0.146000000000
19.363237867000,-0.139000000000
19.370924640000,-0.137000000000
19.378611413000,-0.132000000000
19.386298186000,-0.127000000000
19.393984959000,-0.124000000000
19.401671732000,-0.124000000000
19.409358505000,-0.146000000000
19.417045278000,-0.205000000000
19.424732051000,-0.279000000000
19.432418824000,-0.115000000000
19.440105597000,0.541000000000
19.447792370000,1.472000000000
19.455479143000,2.062000000000
19.463165916000,1.518000000000
19.470852689000,-0.024000000000
19.478539462000,-0.759000000000
19.486226235000,-0.254000000000
19.493913008000,-0.039000000000
19.501599781000,-0.259000000000
19.509286554000,-0.208000000000
19.516973327000,-0.105000000000
19.524660100000,-0.154000000000
19.532346873000,-0.146000000000
19.540033646000,-0.088000000000
19.547720419000,-0.078000000000
19.555407192000,-0.066000000000
19.563093965000,-0.029000000000
19.570780738000,-0.004000000000
19.578467511000,0.017000000000
19.586154284000,0.048000000000
19.593841057000,0.083000000000
19.601527830000,0.115000000000
19.609214603000,0.151000000000
19.616901376000,0.186000000000
19.624588149000,0.218000000000
19.632274922000,0.242000000000
19.639961695000,0.262000000000
19.647648468000,0.269000000000
19.655335241000,0.264000000000
19.663022055000,0.252000000000
19.670709107000,0.232000000000
19.678396159000,0.205000000000
19.686083211000,0.173000000000
19.693770263000,0.120000000000
19.701457315000,0.051000000000
19.709144367000,-0.029000000000
19.716831419000,-0.112000000000
19.724518471000,-0.191000000000
19.732205523000,-0.247000000000
19.739892575000,-0.284000000000
19.747579627000,-0.301000000000
19.755266679000,-0.306000000000
19.762953731000,-0.301000000000
19.770640783000,-0.289000000000
19.778327835000,-0.274000000000
19.786014887000,-0.259000000000
19.793701939000,-0.247000000000
19.801388991000,-0.240000000000
19.809076043000,-0.230000000000
19.816763095000,-0.218000000000
19.824450147000,-0.210000000000
19.832137199000,-0.203000000000
19.839824251000,-0.200000000000
19.847511303000,-0.200000000000
19.855198355000,-0.200000000000
19.862885407000,-0.195000000000
19.870572459000,-0.193000000000
19.878259511000,-0.198000000000
19.885946563000,-0.200000000000
19.893633615000,-0.193000000000
19.901320667000,-0.186000000000
19.909007719000,-0.183000000000
19.916694771000,-0.186000000000
19.924381823000,-0.183000000000
19.932068875000,-0.176000000000
19.939755927000,-0.173000000000
19.947442979000,-0.171000000000
19.955130031000,-0.173000000000
19.962817083000,-0.176000000000
19.970504135000,-0.166000000000
19.978191187000,-0.151000000000
19.985878239000,-0.134000000000
19.993565291000,-0.112000000000
20.001252343000,-0.100000000000
20.008939395000,-0.100000000000
20.016626447000,-0.105000000000
20.024313499000,-0.127000000000
20.032000551000,-0.154000000000
20.039687603000,-0.154000000000
20.047374655000,-0.139000000000
20.055061707000,-0.132000000000
20.062748759000,-0.132000000000
20.070435811000,-0.132000000000
20.078122863000,-0.127000000000
20.085809915000,-0.117000000000
20.093496967000,-0.122000000000
20.101184019000,-0.154000000000
20.108871071000,-0.230000000000
20.116558123000,-0.269000000000
20.124245175000,0.017000000000
20.131932227000,0.796000000000
20.139619279000,1.685000000000
20.147306331000,1.989000000000
20.154993383000,1.058000000000
20.162680435000,-0.404000000000
20.170367487000,-0.663000000000
20.178054539000,-0.102000000000
20.185741591000,-0.090000000000
20.193428643000,-0.259000000000
20.201115695000,-0.146000000000
20.208802747000,-0.102000000000
20.216489799000,-0.151000000000
20.224176865000,-0.115000000000
20.231863777000,-0.068000000000
20.239550689000,-0.058000000000
20.247237601000,-0.034000000000
20.254924513000,-0.002000000000
20.262611425000,0.017000000000
20.270298337000,0.044000000000
20.277985249000,0.078000000000
20.285672161000,0.112000000000
20.293359073000,0.142000000000
20.301045985000,0.173000000000
20.308732897000,0.210000000000
20.316419809000,0.242000000000
20.324106721000,0.264000000000
20.331793633000,0.276000000000
20.339480545000,0.276000000000
20.347167457000,0.269000000000
20.354854369000,0.257000000000
20.362541281000,0.237000000000
20.370228193000,0.208000000000
20.377915105000,0.166000000000
20.385602017000,0.105000000000
20.393288929000,0.029000000000
20.400975841000,-0.053000000000
20.408662753000,-0.137000000000
20.416349665000,-0.210000000000
20.424036577000,-0.264000000000
20.431723489000,-0.289000000000
20.439410401000,-0.303000000000
20.447097313000,-0.311000000000
20.454784225000,-0.301000000000
20.462471137000,-0.284000000000
20.470158049000,-0.271000000000
20.477844961000,-0.262000000000
20.485531873000,-0.252000000000
20.493218785000,-0.242000000000
20.500905697000,-0.227000000000
20.508592609000,-0.218000000000
20.516279521000,-0.213000000000
20.523966433000,-0.205000000000
20.531653345000,-0.203000000000
20.539340257000,-0.208000000000
20.547027169000,-0.205000000000
20.554714081000,-0.195000000000
20.562400993000,-0.198000000000
20.570087905000,-0.200000000000
20.577774817000,-0.195000000000
20.585461729000,-0.195000000000
20.593148641000,-0.193000000000
20.600835553000,-0.188000000000
20.608522465000,-0.188000000000
20.616209377000,-0.191000000000
20.623896289000,-0.186000000000
20.631583201000,-0.186000000000
20.639270113000,-0.183000000000
20.646957025000,-0.173000000000
20.654643937000,-0.154000000000
20.662330849000,-0.137000000000
20.670017761000,-0.127000000000
20.677704673000,-0.112000000000
20.685391585000,-0.105000000000
20.693078497000,-0.127000000000
20.700765409000,-0.164000000000
20.708452321000,-0.171000000000
20.716139233000,-0.161000000000
20.723826145000,-0.154000000000
20.731513057000,-0.146000000000
20.739199969000,-0.139000000000
20.746886881000,-0.134000000000
20.754573793000,-0.129000000000
20.762260705000,-0.132000000000
20.769947617000,-0.154000000000
20.777634529000,-0.208000000000
20.785321505000,-0.274000000000
20.793008417000,-0.105000000000
20.800695329000,0.570000000000
20.808382241000,1.457000000000
20.816069153000,1.893000000000
20.823756065000,1.234000000000
20.831442977000,-0.188000000000
20.839129889000,-0.727000000000
20.846816801000,-0.227000000000
20.854503713000,-0.080000000000
20.862190625000,-0.249000000000
20.869877537000,-0.166000000000
20.877564449000,-0.090000000000
20.885251361000,-0.139000000000
20.892938273000,-0.117000000000
20.900625185000,-0.063000000000
20.908312097000,-0.061000000000
20.915999009000,-0.048000000000
20.923685921000,-0.009000000000
20.931372833000,0.014000000000
20.939059745000,0.036000000000
20.946746657000,0.073000000000
20.954433569000,0.110000000000
20.962120481000,0.139000000000
20.969807393000,0.176000000000
20.977494305000,0.210000000000
20.985181217000,0.240000000000
20.992868129000,0.262000000000
21.000555041000,0.279000000000
21.008241953000,0.284000000000
21.015928865000,0.276000000000
21.023615777000,0.257000000000
21.031302689000,0.232000000000
21.038989601000,0.208000000000
21.046676513000,0.169000000000
21.054363425000,0.110000000000
21.062050337000,0.034000000000
21.069737249000,-0.048000000000
21.077424161000,-0.132000000000
21.085111073000,-0.205000000000
21.092797985000,-0.262000000000
21.100484897000,-0.293000000000
21.108171809000,-0.311000000000
21.115858721000,-0.315000000000
21.123545633000,-0.303000000000
21.131232545000,-0.291000000000
21.138919457000,-0.281000000000
21.146606369000,-0.269000000000
21.154293281000,-0.254000000000
21.161980193000,-0.242000000000
21.169667105000,-0.235000000000
21.177354017000,-0.225000000000
21.185040929000,-0.215000000000
21.192727841000,-0.210000000000
21.200414753000,-0.208000000000
21.208101665000,-0.203000000000
21.215788577000,-0.200000000000
21.223475489000,-0.200000000000
21.231162401000,-0.200000000000
21.238849313000,-0.195000000000
21.246536225000,-0.195000000000
21.254223137000,-0.195000000000
21.261910049000,-0.193000000000
21.269596961000,-0.191000000000
21.277283873000,-0.191000000000
21.284970785000,-0.188000000000
21.292657697000,-0.186000000000
21.300344609000,-0.193000000000
21.308031521000,-0.193000000000
21.315718433000,-0.183000000000
21.323405345000,-0.166000000000
21.331092257000,-0.149000000000
21.338779169000,-0.139000000000
21.346466141000,-0.129000000000
21.354153193000,-0.115000000000
21.361840245000,-0.120000000000
21.369527297000,-0.151000000000
21.377214349000,-0.176000000000
21.384901401000,-0.166000000000
21.392588453000,-0.154000000000
21.400275505000,-0.156000000000
21.407962557000,-0.154000000000
21.415649609000,-0.144000000000
21.423336661000,-0.139000000000
21.431023713000,-0.142000000000
21.438710765000,-0.156000000000
21.446397817000,-0.198000000000
21.454084869000,-0.274000000000
21.461771921000,-0.188000000000
21.469458973000,0.374000000000
21.477146025000,1.273000000000
21.484833077000,1.913000000000
21.492520129000,1.572000000000
21.500207181000,0.166000000000
21.507894233000,-0.759000000000
21.515581285000,-0.382000000000
21.523268337000,-0.048000000000
21.530955389000,-0.237000000000
21.538642441000,-0.235000000000
21.546329493000,-0.120000000000
21.554016545000,-0.156000000000
21.561703597000,-0.164000000000
21.569390649000,-0.105000000000
21.577077701000,-0.088000000000
21.584764753000,-0.083000000000
21.592451805000,-0.048000000000
21.600138857000,-0.024000000000
21.607825909000,-0.004000000000
21.615512961000,0.026000000000
21.623200013000,0.061000000000
21.630887065000,0.090000000000
21.638574117000,0.122000000000
21.646261169000,0.156000000000
21.653948221000,0.188000000000
21.661635273000,0.215000000000
21.669322325000,0.232000000000
21.677009377000,0.237000000000
21.684696429000,0.232000000000
21.692383481000,0.220000000000
21.700070533000,0.203000000000
21.707757585000,0.178000000000
21.715444637000,0.146000000000
21.723131689000,0.097000000000
21.730818741000,0.031000000000
21.738505793000,-0.046000000000
21.746192845000,-0.127000000000
21.753879897000,-0.203000000000
21.761566949000,-0.262000000000
21.769254001000,-0.296000000000
21.776941053000,-0.315000000000
21.784628105000,-0.318000000000
21.792315157000,-0.313000000000
21.800002209000,-0.303000000000
21.807689261000,-0.291000000000
21.815376313000,-0.276000000000
21.823063365000,-0.262000000000
21.830750417000,-0.249000000000
21.838437469000,-0.237000000000
21.846124521000,-0.230000000000
21.853811573000,-0.222000000000
21.861498625000,-0.220000000000
21.869185677000,-0.215000000000
21.876872729000,-0.213000000000
21.884559781000,-0.213000000000
21.892246833000,-0.210000000000
21.899933885000,-0.208000000000
21.907620955000,-0.208000000000
21.915307728000,-0.208000000000
21.922994501000,-0.205000000000
21.930681274000,-0.203000000000
21.938368047000,-0.200000000000
21.946054820000,-0.195000000000
21.953741593000,-0.193000000000
21.961428366000,-0.191000000000
21.969115139000,-0.188000000000
21.976801912000,-0.193000000000
21.984488685000,-0.195000000000
21.992175458000,-0.183000000000
21.999862231000,-0.164000000000
22.007549004000,-0.146000000000
22.015235777000,-0.137000000000
22.022922550000,-0.124000000000
22.030609323000,-0.110000000000
22.038296096000,-0.120000000000
22.045982869000,-0.154000000000
22.053669642000,-0.171000000000
22.061356415000,-0.159000000000
22.069043188000,-0.149000000000
22.076729961000,-0.146000000000
22.084416734000,-0.142000000000
22.092103507000,-0.134000000000
22.099790280000,-0.129000000000
22.107477053000,-0.132000000000
22.115163826000,-0.149000000000
22.122850599000,-0.205000000000
22.130537372000,-0.281000000000
22.138224145000,-0.134000000000
22.145910918000,0.504000000000
22.153597691000,1.432000000000
22.161284464000,2.035000000000
22.168971237000,1.526000000000
22.176658010000,0.004000000000
22.184344783000,-0.759000000000
22.192031556000,-0.274000000000
22.199718329000,-0.039000000000
22.207405102000,-0.254000000000
22.215091875000,-0.210000000000
22.222778648000,-0.107000000000
22.230465421000,-0.156000000000
22.238152194000,-0.149000000000
22.245838967000,-0.088000000000
22.253525740000,-0.080000000000
22.261212513000,-0.068000000000
22.268899286000,-0.031000000000
22.276586059000,-0.007000000000
22.284272832000,0.012000000000
22.291959605000,0.044000000000
22.299646378000,0.075000000000
22.307333151000,0.107000000000
22.315019924000,0.142000000000
22.322706697000,0.176000000000
22.330393470000,0.208000000000
22.338080243000,0.235000000000
22.345767016000,0.249000000000
22.353453789000,0.257000000000
22.361140562000,0.252000000000
22.368827335000,0.240000000000
22.376514108000,0.222000000000
22.384200881000,0.198000000000
22.391887654000,0.164000000000
22.399574427000,0.112000000000
22.407261200000,0.041000000000
22.414947973000,-0.036000000000
22.422634746000,-0.120000000000
22.430321519000,-0.195000000000
22.438008292000,-0.252000000000
22.445695065000,-0.286000000000
22.453381838000,-0.301000000000
22.461068611000,-0.303000000000
22.468755417000,-0.298000000000
22.476442538000,-0.286000000000
22.484129659000,-0.274000000000
22.491816780000,-0.262000000000
22.499503901000,-0.249000000000
22.507191022000,-0.237000000000
22.514878143000,-0.227000000000
22.522565264000,-0.220000000000
22.530252385000,-0.215000000000
22.537939506000,-0.210000000000
22.545626627000,-0.208000000000
22.553313748000,-0.205000000000
22.561000869000,-0.205000000000
22.568687990000,-0.203000000000
22.576375111000,-0.203000000000
22.584062232000,-0.203000000000
22.591749353000,-0.203000000000
22.599436474000,-0.203000000000
22.607123595000,-0.200000000000
22.614810716000,-0.198000000000
22.622497837000,-0.193000000000
22.630184958000,-0.191000000000
22.637872079000,-0.191000000000
22.645559200000,-0.195000000000
22.653246321000,-0.195000000000
22.660933442000,-0.186000000000
22.668620563000,-0.164000000000
22.676307684000,-0.146000000000
22.683994805000,-0.139000000000
22.691681926000,-0.127000000000
22.699369047000,-0.112000000000
22.707056168000,-0.124000000000
22.714743289000,-0.161000000000
22.722430410000,-0.173000000000
22.730117531000,-0.161000000000
22.737804652000,-0.154000000000
22.745491773000,-0.151000000000
22.753178894000,-0.144000000000
22.760866015000,-0.142000000000
22.768553136000,-0.139000000000
22.776240257000,-0.139000000000
22.783927378000,-0.159000000000
22.791614499000,-0.215000000000
22.799301620000,-0.281000000000
22.806988741000,-0.117000000000
22.814675862000,0.543000000000
22.822362983000,1.472000000000
22.830050104000,2.047000000000
22.837737225000,1.479000000000
22.845424346000,-0.066000000000
22.853111467000,-0.771000000000
22.860798588000,-0.254000000000
22.868485709000,-0.053000000000
22.876172830000,-0.276000000000
22.883859951000,-0.215000000000
22.891547072000,-0.112000000000
22.899234193000,-0.169000000000
22.906921314000,-0.159000000000
22.914608435000,-0.097000000000
22.922295556000,-0.090000000000
22.929982677000,-0.080000000000
22.937669798000,-0.036000000000
22.945356919000,-0.007000000000
22.953044040000,0.014000000000
22.960731161000,0.048000000000
22.968418282000,0.078000000000
22.976105403000,0.105000000000
22.983792524000,0.142000000000
22.991479645000,0.178000000000
22.999166766000,0.213000000000
23.006853887000,0.237000000000
23.014541008000,0.257000000000
23.022228129000,0.267000000000
23.029915318000,0.254000000000
23.037602021000,0.240000000000
23.045288724000,0.227000000000
23.052975427000,0.200000000000
23.060662130000,0.159000000000
23.068348833000,0.107000000000
23.076035536000,0.036000000000
23.083722239000,-0.046000000000
23.091408942000,-0.127000000000
23.099095645000,-0.200000000000
23.106782348000,-0.259000000000
23.114469051000,-0.289000000000
23.122155754000,-0.298000000000
23.129842457000,-0.306000000000
23.137529160000,-0.303000000000
23.145215863000,-0.284000000000
23.152902566000,-0.271000000000
23.160589269000,-0.269000000000
23.168275972000,-0.257000000000
23.175962675000,-0.237000000000
23.183649378000,-0.225000000000
23.191336081000,-0.213000000000
23.199022784000,-0.205000000000
23.206709487000,-0.203000000000
23.214396190000,-0.203000000000
23.222082893000,-0.200000000000
23.229769596000,-0.200000000000
23.237456299000,-0.195000000000
23.245143002000,-0.188000000000
23.252829705000,-0.193000000000
23.260516408000,-0.195000000000
23.268203111000,-0.188000000000
23.275889814000,-0.183000000000
23.283576517000,-0.186000000000
23.291263220000,-0.186000000000
23.298949923000,-0.183000000000
23.306636626000,-0.183000000000
23.314323329000,-0.181000000000
23.322010032000,-0.169000000000
23.329696735000,-0.149000000000
23.337383438000,-0.134000000000
23.345070141000,-0.129000000000
23.352756844000,-0.120000000000
23.360443547000,-0.105000000000
23.368130250000,-0.120000000000
23.375816953000,-0.154000000000
23.383503656000,-0.156000000000
23.391190359000,-0.149000000000
23.398877062000,-0.154000000000
23.406563765000,-0.149000000000
23.414250468000,-0.134000000000
23.421937171000,-0.122000000000
23.429623874000,-0.127000000000
23.437310577000,-0.134000000000
23.444997280000,-0.151000000000
23.452683983000,-0.215000000000
23.460370686000,-0.259000000000
23.468057389000,0.026000000000
23.475744092000,0.803000000000
23.483430795000,1.665000000000
23.491117498000,1.910000000000
23.498804201000,0.967000000000
23.506490904000,-0.428000000000
23.514177607000,-0.644000000000
23.521864310000,-0.112000000000
23.529551013000,-0.112000000000
23.537237716000,-0.254000000000
23.544924419000,-0.132000000000
23.552611122000,-0.093000000000
23.560297825000,-0.142000000000
23.567984528000,-0.100000000000
23.575671231000,-0.053000000000
23.583357934000,-0.056000000000
23.591044697000,-0.034000000000
23.598731818000,0.009000000000
23.606418939000,0.034000000000
23.614106060000,0.048000000000
23.621793181000,0.085000000000
23.629480302000,0.127000000000
23.637167423000,0.154000000000
23.644854544000,0.181000000000
23.652541665000,0.225000000000
23.660228786000,0.259000000000
23.667915907000,0.271000000000
23.675603028000,0.281000000000
23.683290149000,0.286000000000
23.690977270000,0.276000000000
23.698664391000,0.257000000000
23.706351512000,0.242000000000
23.714038633000,0.210000000000
23.721725754000,0.154000000000
23.729412875000,0.093000000000
23.737099996000,0.022000000000
23.744787117000,-0.068000000000
23.752474238000,-0.161000000000
23.760161359000,-0.220000000000
23.767848480000,-0.259000000000
23.775535601000,-0.289000000000
23.783222722000,-0.298000000000
23.790909843000,-0.298000000000
23.798596964000,-0.296000000000
23.806284085000,-0.286000000000
23.813971206000,-0.274000000000
23.821658327000,-0.262000000000
23.829345448000,-0.247000000000
23.837032569000,-0.232000000000
23.844719690000,-0.213000000000
23.852406811000,-0.210000000000
23.860093932000,-0.215000000000
23.867781053000,-0.205000000000
23.875468174000,-0.198000000000
23.883155295000,-0.198000000000
23.890842416000,-0.203000000000
23.898529537000,-0.203000000000
23.906216658000,-0.191000000000
23.913903779000,-0.191000000000
23.921590900000,-0.195000000000
23.929278021000,-0.191000000000
23.936965142000,-0.188000000000
23.944652263000,-0.193000000000
23.952339384000,-0.193000000000
23.960026505000,-0.186000000000
23.967713626000,-0.178000000000
23.975400747000,-0.169000000000
23.983087868000,-0.149000000000
23.990774989000,-0.137000000000
23.998462110000,-0.132000000000
24.006149231000,-0.117000000000
24.013836352000,-0.127000000000
24.021523473000,-0.164000000000
24.029210594000,-0.176000000000
24.036897715000,-0.164000000000
24.044584836000,-0.161000000000
24.052271957000,-0.159000000000
24.059959078000,-0.146000000000
24.067646199000,-0.142000000000
24.075333320000,-0.142000000000
24.083020441000,-0.146000000000
24.090707562000,-0.161000000000
24.098394683000,-0.208000000000
24.106081804000,-0.274000000000
24.113768925000,-0.110000000000
24.121456046000,0.560000000000
24.129143167000,1.430000000000
24.136830288000,1.846000000000
24.144517409000,1.205000000000
24.152204594000,-0.181000000000
24.159891297000,-0.725000000000
24.167578000000,-0.242000000000
24.175264703000,-0.085000000000
24.182951406000,-0.247000000000
24.190638109000,-0.169000000000
24.198324812000,-0.097000000000
24.206011515000,-0.144000000000
24.213698218000,-0.124000000000
24.221384921000,-0.075000000000
24.229071624000,-0.068000000000
24.236758327000,-0.051000000000
24.244445030000,-0.017000000000
24.252131733000,0.007000000000
24.259818436000,0.034000000000
24.267505139000,0.063000000000
24.275191842000,0.090000000000
24.282878545000,0.122000000000
24.290565248000,0.156000000000
24.298251951000,0.193000000000
24.305938654000,0.220000000000
24.313625357000,0.240000000000
24.321312060000,0.252000000000
24.328998763000,0.254000000000
24.336685466000,0.244000000000
24.344372169000,0.225000000000
24.352058872000,0.200000000000
24.359745575000,0.176000000000
24.367432278000,0.137000000000
24.375118981000,0.078000000000
24.382805684000,0.007000000000
24.390492387000,-0.068000000000
24.398179090000,-0.146000000000
24.405865793000,-0.215000000000
24.413552496000,-0.264000000000
24.421239199000,-0.289000000000
24.428925902000,-0.301000000000
24.436612605000,-0.301000000000
24.444299308000,-0.296000000000
24.451986011000,-0.286000000000
24.459672714000,-0.271000000000
24.467359417000,-0.257000000000
24.475046120000,-0.244000000000
24.482732823000,-0.232000000000
24.490419526000,-0.222000000000
24.498106229000,-0.215000000000
24.505792932000,-0.210000000000
24.513479635000,-0.208000000000
24.521166338000,-0.203000000000
24.528853041000,-0.200000000000
24.536539744000,-0.198000000000
24.544226447000,-0.198000000000
24.551913150000,-0.198000000000
24.559599853000,-0.198000000000
24.567286556000,-0.195000000000
24.574973259000,-0.195000000000
24.582659962000,-0.193000000000
24.590346665000,-0.191000000000
24.598033368000,-0.188000000000
24.605720071000,-0.191000000000
24.613406774000,-0.195000000000
24.621093477000,-0.195000000000
24.628780180000,-0.186000000000
24.636466883000,-0.169000000000
24.644153586000,-0.154000000000
24.651840289000,-0.144000000000
24.659526992000,-0.132000000000
24.667213695000,-0.117000000000
24.674900398000,-0.124000000000
24.682587101000,-0.159000000000
24.690273804000,-0.178000000000
24.697960507000,-0.169000000000
24.705647210000,-0.159000000000
24.713333973000,-0.159000000000
24.721021094000,-0.151000000000
24.728708215000,-0.146000000000
24.736395336000,-0.144000000000
24.744082457000,-0.146000000000
24.751769578000,-0.169000000000
24.759456699000,-0.227000000000
24.767143820000,-0.289000000000
24.774830941000,-0.080000000000
24.782518062000,0.622000000000
24.790205183000,1.530000000000
24.797892304000,1.993000000000
24.805579425000,1.283000000000
24.813266546000,-0.222000000000
24.820953667000,-0.747000000000
24.828640788000,-0.205000000000
24.836327909000,-0.078000000000
24.844015030000,-0.284000000000
24.851702151000,-0.203000000000
24.859389272000,-0.124000000000
24.867076393000,-0.176000000000
24.874763514000,-0.151000000000
24.882450635000,-0.097000000000
24.890137756000,-0.093000000000
24.897824877000,-0.078000000000
24.905511998000,-0.039000000000
24.913199119000,-0.017000000000
24.920886240000,0.007000000000
24.928573361000,0.041000000000
24.936260482000,0.073000000000
24.943947603000,0.102000000000
24.951634724000,0.139000000000
24.959321845000,0.173000000000
24.967008966000,0.205000000000
24.974696087000,0.232000000000
24.982383208000,0.244000000000
24.990070329000,0.247000000000
24.997757450000,0.240000000000
25.005444571000,0.225000000000
25.013131692000,0.205000000000
25.020818813000,0.181000000000
25.028505934000,0.139000000000
25.036193055000,0.083000000000
25.043880176000,0.007000000000
25.051567297000,-0.073000000000
25.059254418000,-0.154000000000
25.066941539000,-0.222000000000
25.074628660000,-0.274000000000
25.082315781000,-0.301000000000
25.090002902000,-0.311000000000
25.097690023000,-0.311000000000
25.105377144000,-0.303000000000
25.113064265000,-0.291000000000
25.120751386000,-0.279000000000
25.128438507000,-0.264000000000
25.136125628000,-0.249000000000
25.143812749000,-0.237000000000
25.151499870000,-0.227000000000
25.159186991000,-0.222000000000
25.166874112000,-0.215000000000
25.174561233000,-0.210000000000
25.182248354000,-0.208000000000
25.189935475000,-0.208000000000
25.197622596000,-0.205000000000
25.205309717000,-0.205000000000
25.212996838000,-0.205000000000
25.220683959000,-0.205000000000
25.228371080000,-0.203000000000
25.236058201000,-0.200000000000
25.243745322000,-0.200000000000
25.251432443000,-0.195000000000
25.259119564000,-0.195000000000
25.266806685000,-0.198000000000
25.274493870000,-0.203000000000
25.282180573000,-0.195000000000
25.289867276000,-0.176000000000
25.297553979000,-0.161000000000
25.305240682000,-0.151000000000
25.312927385000,-0.139000000000
25.320614088000,-0.122000000000
25.328300791000,-0.122000000000
25.335987494000,-0.156000000000
25.343674197000,-0.181000000000
25.351360900000,-0.173000000000
25.359047603000,-0.161000000000
25.366734306000,-0.159000000000
25.374421009000,-0.154000000000
25.382107712000,-0.149000000000
25.389794415000,-0.144000000000
25.397481118000,-0.144000000000
25.405167821000,-0.156000000000
25.412854524000,-0.205000000000
25.420541227000,-0.281000000000
25.428227930000,-0.193000000000
25.435914633000,0.369000000000
25.443601336000,1.290000000000
25.451288039000,1.998000000000
25.458974742000,1.717000000000
25.466661445000,0.262000000000
25.474348148000,-0.766000000000
25.482034851000,-0.404000000000
25.489721554000,-0.036000000000
25.497408257000,-0.242000000000
25.505094960000,-0.257000000000
25.512781663000,-0.127000000000
25.520468366000,-0.161000000000
25.528155069000,-0.176000000000
25.535841772000,-0.112000000000
25.543528475000,-0.093000000000
25.551215178000,-0.088000000000
25.558901881000,-0.053000000000
25.566588584000,-0.024000000000
25.574275287000,-0.002000000000
25.581961990000,0.026000000000
25.589648693000,0.063000000000
25.597335396000,0.097000000000
25.605022099000,0.132000000000
25.612708802000,0.169000000000
25.620395505000,0.203000000000
25.628082208000,0.230000000000
25.635768911000,0.249000000000
25.643455614000,0.257000000000
25.651142317000,0.252000000000
25.658829020000,0.240000000000
25.666515723000,0.222000000000
25.674202426000,0.200000000000
25.681889129000,0.164000000000
25.689575832000,0.110000000000
25.697262535000,0.036000000000
25.704949238000,-0.046000000000
25.712635941000,-0.132000000000
25.720322644000,-0.208000000000
25.728009347000,-0.264000000000
25.735696050000,-0.298000000000
25.743382753000,-0.313000000000
25.751069456000,-0.318000000000
25.758756159000,-0.311000000000
25.766442862000,-0.301000000000
25.774129565000,-0.286000000000
25.781816268000,-0.274000000000
25.789502971000,-0.262000000000
25.797189674000,-0.247000000000
25.804876377000,-0.235000000000
25.812563080000,-0.227000000000
25.820249783000,-0.220000000000
25.827936486000,-0.215000000000
25.835623249000,-0.210000000000
25.843310370000,-0.210000000000
25.850997491000,-0.208000000000
25.858684612000,-0.208000000000
25.866371733000,-0.205000000000
25.874058854000,-0.203000000000
25.881745975000,-0.203000000000
25.889433096000,-0.203000000000
25.897120217000,-0.200000000000
25.904807338000,-0.195000000000
25.912494459000,-0.193000000000
25.920181580000,-0.191000000000
25.927868701000,-0.188000000000
25.935555822000,-0.193000000000
25.943242943000,-0.195000000000
25.950930064000,-0.188000000000
25.958617185000,-0.169000000000
25.966304306000,-0.149000000000
25.973991427000,-0.139000000000
25.981678548000,-0.129000000000
25.989365669000,-0.115000000000
25.997052790000,-0.120000000000
26.004739911000,-0.151000000000
26.012427032000,-0.173000000000
26.020114153000,-0.164000000000
26.027801274000,-0.154000000000
26.035488395000,-0.151000000000
26.043175516000,-0.146000000000
26.050862637000,-0.139000000000
26.058549758000,-0.137000000000
26.066236879000,-0.137000000000
26.073924000000,-0.151000000000
26.081611121000,-0.200000000000
26.089298242000,-0.276000000000
26.096985363000,-0.186000000000
26.104672484000,0.377000000000
26.112359605000,1.300000000000
26.120046726000,2.018000000000
26.127733847000,1.729000000000
26.135420968000,0.257000000000
26.143108089000,-0.761000000000
26.150795210000,-0.384000000000
26.158482331000,-0.031000000000
26.166169452000,-0.240000000000
26.173856573000,-0.244000000000
26.181543694000,-0.120000000000
26.189230815000,-0.154000000000
26.196917936000,-0.164000000000
26.204605057000,-0.102000000000
26.212292178000,-0.088000000000
26.219979299000,-0.083000000000
26.227666420000,-0.044000000000
26.235353541000,-0.012000000000
26.243040662000,0.009000000000
26.250727783000,0.041000000000
26.258414904000,0.073000000000
26.266102025000,0.107000000000
26.273789146000,0.144000000000
26.281476267000,0.178000000000
26.289163388000,0.213000000000
26.296850509000,0.247000000000
26.304537630000,0.267000000000
26.312224751000,0.269000000000
26.319911872000,0.267000000000
26.327598993000,0.254000000000
26.335286114000,0.235000000000
26.342973235000,0.210000000000
26.350660356000,0.176000000000
26.358347477000,0.120000000000
26.366034598000,0.053000000000
26.373721719000,-0.024000000000
26.381408840000,-0.110000000000
26.389095961000,-0.188000000000
26.396783150000,-0.247000000000
26.404469853000,-0.286000000000
26.412156556000,-0.306000000000
26.419843259000,-0.313000000000
26.427529962000,-0.308000000000
26.435216665000,-0.289000000000
26.442903368000,-0.267000000000
26.450590071000,-0.257000000000
26.458276774000,-0.252000000000
26.465963477000,-0.242000000000
26.473650180000,-0.227000000000
26.481336883000,-0.220000000000
26.489023586000,-0.218000000000
26.496710289000,-0.218000000000
26.504396992000,-0.213000000000
26.512083695000,-0.203000000000
26.519770398000,-0.200000000000
26.527457101000,-0.205000000000
26.535143804000,-0.203000000000
26.542830507000,-0.198000000000
26.550517210000,-0.200000000000
26.558203913000,-0.200000000000
26.565890616000,-0.198000000000
26.573577319000,-0.198000000000
26.581264022000,-0.191000000000
26.588950725000,-0.181000000000
26.596637428000,-0.191000000000
26.604324131000,-0.198000000000
26.612010834000,-0.191000000000
26.619697537000,-0.178000000000
26.627384240000,-0.159000000000
26.635070943000,-0.139000000000
26.642757646000,-0.137000000000
26.650444349000,-0.129000000000
26.658131052000,-0.107000000000
26.665817755000,-0.120000000000
26.673504458000,-0.164000000000
26.681191161000,-0.171000000000
26.688877864000,-0.151000000000
26.696564567000,-0.151000000000
26.704251270000,-0.156000000000
26.711937973000,-0.142000000000
26.719624676000,-0.127000000000
26.727311379000,-0.129000000000
26.734998082000,-0.142000000000
26.742684785000,-0.161000000000
26.750371488000,-0.215000000000
26.758058191000,-0.274000000000
26.765744894000,-0.039000000000
26.773431597000,0.715000000000
26.781118300000,1.599000000000
26.788805003000,1.927000000000
26.796491706000,1.090000000000
26.804178409000,-0.345000000000
26.811865112000,-0.690000000000
26.819551815000,-0.154000000000
26.827238518000,-0.097000000000
26.834925221000,-0.262000000000
26.842611924000,-0.154000000000
26.850298627000,-0.100000000000
26.857985330000,-0.154000000000
26.865672033000,-0.112000000000
26.873358736000,-0.056000000000
26.881045439000,-0.056000000000
26.888732142000,-0.036000000000
26.896418845000,0.000000000000
26.904105548000,0.012000000000
26.911792251000,0.036000000000
26.919478954000,0.075000000000
26.927165657000,0.107000000000
26.934852360000,0.139000000000
26.942539063000,0.183000000000
26.950225766000,0.215000000000
26.957912529000,0.242000000000
26.965599650000,0.276000000000
26.973286771000,0.289000000000
26.980973892000,0.279000000000
26.988661013000,0.271000000000
26.996348134000,0.264000000000
27.004035255000,0.240000000000
27.011722376000,0.203000000000
27.019409497000,0.156000000000
27.027096618000,0.097000000000
27.034783739000,0.022000000000
27.042470860000,-0.068000000000
27.050157981000,-0.154000000000
27.057845102000,-0.218000000000
27.065532223000,-0.264000000000
27.073219344000,-0.298000000000
27.080906465000,-0.311000000000
27.088593586000,-0.313000000000
27.096280707000,-0.306000000000
27.103967828000,-0.286000000000
27.111654949000,-0.276000000000
27.119342070000,-0.276000000000
27.127029191000,-0.259000000000
27.134716312000,-0.235000000000
27.142403433000,-0.225000000000
27.150090554000,-0.225000000000
27.157777675000,-0.215000000000
27.165464796000,-0.208000000000
27.173151917000,-0.208000000000
27.180839038000,-0.205000000000
27.188526159000,-0.203000000000
27.196213280000,-0.200000000000
27.203900401000,-0.198000000000
27.211587522000,-0.200000000000
27.219274643000,-0.200000000000
27.226961764000,-0.198000000000
27.234648885000,-0.193000000000
27.242336006000,-0.191000000000
27.250023127000,-0.188000000000
27.257710248000,-0.191000000000
27.265397369000,-0.195000000000
27.273084490000,-0.193000000000
27.280771611000,-0.181000000000
27.288458732000,-0.164000000000
27.296145853000,-0.144000000000
27.303832974000,-0.137000000000
27.311520095000,-0.129000000000
27.319207216000,-0.117000000000
27.326894337000,-0.132000000000
27.334581458000,-0.166000000000
27.342268579000,-0.173000000000
27.349955700000,-0.161000000000
27.357642821000,-0.161000000000
27.365329942000,-0.156000000000
27.373017063000,-0.146000000000
27.380704184000,-0.142000000000
27.388391305000,-0.139000000000
27.396078426000,-0.142000000000
27.403765547000,-0.161000000000
27.411452668000,-0.225000000000
27.419139789000,-0.279000000000
27.426826910000,-0.048000000000
27.434514031000,0.680000000000
27.442201152000,1.553000000000
27.449888273000,1.876000000000
27.457575394000,1.053000000000
27.465262515000,-0.355000000000
27.472949636000,-0.695000000000
27.480636757000,-0.171000000000
27.488323878000,-0.110000000000
27.496010999000,-0.259000000000
27.503698120000,-0.154000000000
27.511385241000,-0.105000000000
27.519072426000,-0.156000000000
27.526759129000,-0.122000000000
27.534445832000,-0.075000000000
27.542132535000,-0.073000000000
27.549819238000,-0.051000000000
27.557505941000,-0.017000000000
27.565192644000,0.004000000000
27.572879347000,0.029000000000
27.580566050000,0.061000000000
27.588252753000,0.093000000000
27.595939456000,0.124000000000
27.603626159000,0.156000000000
27.611312862000,0.191000000000
27.618999565000,0.220000000000
27.626686268000,0.244000000000
27.634372971000,0.257000000000
27.642059674000,0.257000000000
27.649746377000,0.244000000000
27.657433080000,0.227000000000
27.665119783000,0.208000000000
27.672806486000,0.181000000000
27.680493189000,0.137000000000
27.688179892000,0.075000000000
27.695866595000,0.002000000000
27.703553298000,-0.080000000000
27.711240001000,-0.161000000000
27.718926704000,-0.230000000000
27.726613407000,-0.274000000000
27.734300110000,-0.301000000000
27.741986813000,-0.311000000000
27.749673516000,-0.311000000000
27.757360219000,-0.301000000000
27.765046922000,-0.289000000000
27.772733625000,-0.276000000000
27.780420328000,-0.262000000000
27.788107031000,-0.249000000000
27.795793734000,-0.237000000000
27.803480437000,-0.227000000000
27.811167140000,-0.220000000000
27.818853843000,-0.213000000000
27.826540546000,-0.208000000000
27.834227249000,-0.205000000000
27.841913952000,-0.205000000000
27.849600655000,-0.203000000000
27.857287358000,-0.200000000000
27.864974061000,-0.200000000000
27.872660764000,-0.198000000000
27.880347467000,-0.198000000000
27.888034170000,-0.198000000000
27.895720873000,-0.195000000000
27.903407576000,-0.193000000000
27.911094279000,-0.191000000000
27.918780982000,-0.188000000000
27.926467685000,-0.183000000000
27.934154388000,-0.186000000000
27.941841091000,-0.193000000000
27.949527794000,-0.191000000000
27.957214497000,-0.176000000000
27.964901200000,-0.156000000000
27.972587903000,-0.144000000000
27.980274606000,-0.134000000000
27.987961309000,-0.120000000000
27.995648012000,-0.110000000000
28.003334715000,-0.132000000000
28.011021418000,-0.164000000000
28.018708121000,-0.169000000000
28.026394824000,-0.156000000000
28.034081527000,-0.151000000000
28.041768230000,-0.151000000000
28.049454933000,-0.144000000000
28.057141636000,-0.137000000000
28.064828339000,-0.137000000000
28.072515042000,-0.146000000000
28.080201805000,-0.181000000000
28.087888926000,-0.257000000000
28.095576047000,-0.276000000000
28.103263168000,0.078000000000
28.110950289000,0.906000000000
28.118637410000,1.771000000000
28.126324531000,1.959000000000
28.134011652000,0.872000000000
28.141698773000,-0.538000000000
28.149385894000,-0.624000000000
28.157073015000,-0.083000000000
28.164760136000,-0.146000000000
28.172447257000,-0.286000000000
28.180134378000,-0.156000000000
28.187821499000,-0.132000000000
28.195508620000,-0.176000000000
28.203195741000,-0.129000000000
28.210882862000,-0.088000000000
28.218569983000,-0.088000000000
28.226257104000,-0.061000000000
28.233944225000,-0.026000000000
28.241631346000,-0.007000000000
28.249318467000,0.019000000000
28.257005588000,0.053000000000
28.264692709000,0.088000000000
28.272379830000,0.120000000000
28.280066951000,0.159000000000
28.287754072000,0.191000000000
28.295441193000,0.220000000000
28.303128314000,0.244000000000
28.310815435000,0.257000000000
28.318502556000,0.259000000000
28.326189677000,0.249000000000
28.333876798000,0.235000000000
28.341563919000,0.215000000000
28.349251040000,0.186000000000
28.356938161000,0.139000000000
28.364625282000,0.073000000000
28.372312403000,-0.004000000000
28.379999524000,-0.088000000000
28.387686645000,-0.169000000000
28.395373766000,-0.237000000000
28.403060887000,-0.281000000000
28.410748008000,-0.306000000000
28.418435129000,-0.313000000000
28.426122250000,-0.311000000000
28.433809371000,-0.303000000000
28.441496492000,-0.291000000000
28.449183613000,-0.279000000000
28.456870734000,-0.264000000000
28.464557855000,-0.252000000000
28.472244976000,-0.240000000000
28.479932097000,-0.230000000000
28.487619218000,-0.222000000000
28.495306339000,-0.218000000000
28.502993460000,-0.213000000000
28.510680581000,-0.213000000000
28.518367702000,-0.210000000000
28.526054823000,-0.208000000000
28.533741944000,-0.208000000000
28.541429065000,-0.208000000000
28.549116186000,-0.205000000000
28.556803307000,-0.200000000000
28.564490428000,-0.200000000000
28.572177549000,-0.200000000000
28.579864670000,-0.200000000000
28.587551791000,-0.198000000000
28.595238912000,-0.191000000000
28.602926033000,-0.188000000000
28.610613154000,-0.186000000000
28.618300275000,-0.186000000000
28.625987396000,-0.191000000000
28.633674517000,-0.186000000000
28.641361702000,-0.169000000000
28.649048405000,-0.149000000000
28.656735108000,-0.139000000000
28.664421811000,-0.129000000000
28.672108514000,-0.115000000000
28.679795217000,-0.110000000000
28.687481920000,-0.139000000000
28.695168623000,-0.169000000000
28.702855326000,-0.164000000000
28.710542029000,-0.151000000000
28.718228732000,-0.149000000000
28.725915435000,-0.146000000000
28.733602138000,-0.139000000000
28.741288841000,-0.134000000000
28.748975544000,-0.132000000000
28.756662247000,-0.144000000000
28.764348950000,-0.183000000000
28.772035653000,-0.269000000000
28.779722356000,-0.247000000000
28.787409059000,0.200000000000
28.795095762000,1.080000000000
28.802782465000,1.905000000000
28.810469168000,1.915000000000
28.818155871000,0.631000000000
28.825842574000,-0.661000000000
28.833529277000,-0.524000000000
28.841215980000,-0.041000000000
28.848902683000,-0.191000000000
28.856589386000,-0.274000000000
28.864276089000,-0.134000000000
28.871962792000,-0.142000000000
28.879649495000,-0.176000000000
28.887336198000,-0.117000000000
28.895022901000,-0.085000000000
28.902709604000,-0.085000000000
28.910396307000,-0.056000000000
28.918083010000,-0.019000000000
28.925769713000,0.000000000000
28.933456416000,0.029000000000
28.941143119000,0.066000000000
28.948829822000,0.097000000000
28.956516525000,0.132000000000
28.964203228000,0.169000000000
28.971889931000,0.203000000000
28.979576634000,0.235000000000
28.987263337000,0.257000000000
28.994950040000,0.267000000000
29.002636743000,0.267000000000
29.010323446000,0.257000000000
29.018010149000,0.240000000000
29.025696852000,0.220000000000
29.033383555000,0.191000000000
29.041070258000,0.142000000000
29.048756961000,0.071000000000
29.056443664000,-0.009000000000
29.064130367000,-0.095000000000
29.071817070000,-0.176000000000
29.079503773000,-0.244000000000
29.087190476000,-0.289000000000
29.094877179000,-0.311000000000
29.102563882000,-0.315000000000
29.110250585000,-0.313000000000
29.117937288000,-0.303000000000
29.125623991000,-0.293000000000
29.133310694000,-0.281000000000
29.140997397000,-0.267000000000
29.148684100000,-0.252000000000
29.156370803000,-0.240000000000
29.164057506000,-0.235000000000
29.171744209000,-0.230000000000
29.179430912000,-0.222000000000
29.187117615000,-0.218000000000
29.194804318000,-0.220000000000
29.202491081000,-0.220000000000
29.210178202000,-0.213000000000
29.217865323000,-0.210000000000
29.225552444000,-0.210000000000
29.233239565000,-0.208000000000
29.240926686000,-0.210000000000
29.248613807000,-0.208000000000
29.256300928000,-0.200000000000
29.263988049000,-0.195000000000
29.271675170000,-0.195000000000
29.279362291000,-0.193000000000
29.287049412000,-0.188000000000
29.294736533000,-0.191000000000
29.302423654000,-0.198000000000
29.310110775000,-0.198000000000
29.317797896000,-0.183000000000
29.325485017000,-0.159000000000
29.333172138000,-0.139000000000
29.340859259000,-0.129000000000
29.348546380000,-0.122000000000
29.356233501000,-0.115000000000
