time,LSB
0.000000000000,0.793000000000
0.007687958000,0.357000000000
0.015375916000,-0.283000000000
0.023063874000,-0.431000000000
0.030751832000,-0.253000000000
0.038439790000,-0.219000000000
0.046127748000,-0.216000000000
0.053815706000,-0.123000000000
0.061503664000,-0.091000000000
0.069191622000,-0.113000000000
0.076879580000,-0.096000000000
0.084567538000,-0.073000000000
0.092255496000,-0.076000000000
0.099943454000,-0.069000000000
0.107631412000,-0.059000000000
0.115319370000,-0.059000000000
0.123007328000,-0.056000000000
0.130695286000,-0.054000000000
0.138383244000,-0.046000000000
0.146071202000,-0.041000000000
0.153759160000,-0.032000000000
0.161447118000,-0.019000000000
0.169135076000,-0.014000000000
0.176823034000,-0.007000000000
0.184510992000,0.004000000000
0.192198950000,0.012000000000
0.199886908000,0.022000000000
0.207574866000,0.044000000000
0.215262824000,0.066000000000
0.222950782000,0.083000000000
0.230638740000,0.093000000000
0.238326698000,0.096000000000
0.246014656000,0.108000000000
0.253702614000,0.113000000000
0.261390572000,0.103000000000
0.269078530000,0.096000000000
0.276766488000,0.081000000000
0.284454446000,0.039000000000
0.292142404000,-0.012000000000
0.299830362000,-0.054000000000
0.307518320000,-0.086000000000
0.315206278000,-0.118000000000
0.322894236000,-0.147000000000
0.330582194000,-0.165000000000
0.338270152000,-0.162000000000
0.345958110000,-0.160000000000
0.353646068000,-0.162000000000
0.361334026000,-0.160000000000
0.369021984000,-0.152000000000
0.376709942000,-0.143000000000
0.384397900000,-0.133000000000
0.392085858000,-0.135000000000
0.399773816000,-0.143000000000
0.407461774000,-0.128000000000
0.415149732000,-0.118000000000
0.422837690000,-0.115000000000
0.430525648000,-0.113000000000
0.438213606000,-0.115000000000
0.445901564000,-0.120000000000
0.453589522000,-0.118000000000
0.461277480000,-0.115000000000
0.468965438000,-0.110000000000
0.476653396000,-0.113000000000
0.484341354000,-0.118000000000
0.492029312000,-0.113000000000
0.499717270000,-0.110000000000
0.507405228000,-0.115000000000
0.515093189000,-0.113000000000
0.522781146000,-0.113000000000
0.530469103000,-0.115000000000
0.538157060000,-0.108000000000
0.545845017000,-0.106000000000
0.553532974000,-0.110000000000
0.561220931000,-0.113000000000
0.568908888000,-0.108000000000
0.576596845000,-0.098000000000
0.584284802000,-0.096000000000
0.591972759000,-0.101000000000
0.599660716000,-0.101000000000
0.607348673000,-0.093000000000
0.615036630000,-0.091000000000
0.622724587000,-0.096000000000
0.630412544000,-0.093000000000
0.638100501000,-0.091000000000
0.645788458000,-0.103000000000
0.653476415000,-0.103000000000
0.661164372000,-0.086000000000
0.668852329000,-0.083000000000
0.676540286000,-0.081000000000
0.684228243000,-0.066000000000
0.691916200000,-0.059000000000
0.699604157000,-0.051000000000
0.707292114000,-0.046000000000
0.714980071000,-0.064000000000
0.722668028000,-0.078000000000
0.730355985000,-0.076000000000
0.738043942000,-0.081000000000
0.745731899000,-0.086000000000
0.753419856000,-0.073000000000
0.761107813000,-0.066000000000
0.768795770000,-0.069000000000
0.776483727000,-0.086000000000
0.784171684000,-0.101000000000
0.791859641000,0.036000000000
0.799547598000,0.458000000000
0.807235555000,0.796000000000
0.814923512000,0.463000000000
0.822611469000,-0.268000000000
0.830299426000,-0.537000000000
0.837987383000,-0.320000000000
0.845675340000,-0.226000000000
0.853363297000,-0.246000000000
0.861051254000,-0.130000000000
0.868739211000,-0.046000000000
0.876427168000,-0.061000000000
0.884115125000,-0.054000000000
0.891803082000,-0.039000000000
0.899491039000,-0.044000000000
0.907178996000,-0.039000000000
0.914866953000,-0.029000000000
0.922554910000,-0.032000000000
0.930242867000,-0.022000000000
0.937930824000,-0.009000000000
0.945618781000,-0.004000000000
0.953306738000,-0.002000000000
0.960994695000,0.004000000000
0.968682652000,0.014000000000
0.976370609000,0.024000000000
0.984058566000,0.041000000000
0.991746523000,0.049000000000
0.999434480000,0.046000000000
1.007122437000,0.064000000000
1.014810394000,0.091000000000
1.022498351000,0.106000000000
1.030186308000,0.120000000000
1.037874265000,0.143000000000
1.045562222000,0.147000000000
1.053250179000,0.150000000000
1.060938136000,0.155000000000
1.068626093000,0.150000000000
1.076314122000,0.133000000000
1.084001870000,0.110000000000
1.091689618000,0.076000000000
1.099377366000,0.027000000000
1.107065114000,-0.029000000000
1.114752862000,-0.073000000000
1.122440610000,-0.103000000000
1.130128358000,-0.128000000000
1.137816106000,-0.145000000000
1.145503854000,-0.160000000000
1.153191602000,-0.160000000000
1.160879350000,-0.157000000000
1.168567098000,-0.157000000000
1.176254846000,-0.152000000000
1.183942594000,-0.143000000000
1.191630342000,-0.135000000000
1.199318090000,-0.133000000000
1.207005838000,-0.125000000000
1.214693586000,-0.113000000000
1.222381334000,-0.106000000000
1.230069082000,-0.106000000000
1.237756830000,-0.098000000000
1.245444578000,-0.096000000000
1.253132326000,-0.108000000000
1.260820074000,-0.110000000000
1.268507822000,-0.098000000000
1.276195570000,-0.093000000000
1.283883318000,-0.098000000000
1.291571066000,-0.101000000000
1.299258814000,-0.103000000000
1.306946562000,-0.106000000000
1.314634310000,-0.103000000000
1.322322058000,-0.098000000000
1.330009806000,-0.101000000000
1.337697554000,-0.103000000000
1.345385302000,-0.103000000000
1.353073050000,-0.098000000000
1.360760798000,-0.093000000000
1.368448546000,-0.093000000000
1.376136294000,-0.096000000000
1.383824042000,-0.096000000000
1.391511790000,-0.093000000000
1.399199538000,-0.093000000000
1.406887286000,-0.091000000000
1.414575034000,-0.083000000000
1.422262782000,-0.081000000000
1.429950530000,-0.083000000000
1.437638278000,-0.083000000000
1.445326026000,-0.076000000000
1.453013774000,-0.078000000000
1.460701522000,-0.083000000000
1.468389270000,-0.083000000000
1.476077018000,-0.086000000000
1.483764766000,-0.086000000000
1.491452514000,-0.078000000000
1.499140262000,-0.064000000000
1.506828010000,-0.054000000000
1.514515758000,-0.046000000000
1.522203506000,-0.034000000000
1.529891254000,-0.041000000000
1.537579002000,-0.061000000000
1.545266750000,-0.066000000000
1.552954498000,-0.066000000000
1.560642246000,-0.071000000000
1.568329994000,-0.066000000000
1.576017742000,-0.059000000000
1.583705490000,-0.059000000000
1.591393238000,-0.066000000000
1.599080986000,-0.098000000000
1.606768734000,-0.110000000000
1.614456482000,0.083000000000
1.622144230000,0.557000000000
1.629831978000,0.855000000000
1.637519798000,0.478000000000
1.645207825000,-0.209000000000
1.652895852000,-0.424000000000
1.660583879000,-0.236000000000
1.668271906000,-0.192000000000
1.675959933000,-0.207000000000
1.683647960000,-0.101000000000
1.691335987000,-0.059000000000
1.699024014000,-0.093000000000
1.706712041000,-0.078000000000
1.714400068000,-0.051000000000
1.722088095000,-0.056000000000
1.729776122000,-0.051000000000
1.737464149000,-0.039000000000
1.745152176000,-0.039000000000
1.752840203000,-0.036000000000
1.760528230000,-0.027000000000
1.768216257000,-0.027000000000
1.775904284000,-0.027000000000
1.783592311000,-0.014000000000
1.791280338000,0.000000000000
1.798968365000,0.004000000000
1.806656392000,0.002000000000
1.814344419000,0.009000000000
1.822032446000,0.022000000000
1.829720473000,0.034000000000
1.837408500000,0.051000000000
1.845096527000,0.066000000000
1.852784554000,0.076000000000
1.860472581000,0.088000000000
1.868160608000,0.101000000000
1.875848635000,0.110000000000
1.883536662000,0.120000000000
1.891224689000,0.120000000000
1.898912716000,0.106000000000
1.906600743000,0.088000000000
1.914288770000,0.061000000000
1.921976797000,0.017000000000
1.929664824000,-0.029000000000
1.937352851000,-0.066000000000
1.945040878000,-0.096000000000
1.952728905000,-0.118000000000
1.960416932000,-0.130000000000
1.968104959000,-0.133000000000
1.975792986000,-0.133000000000
1.983481013000,-0.138000000000
1.991169040000,-0.133000000000
1.998857067000,-0.123000000000
2.006545094000,-0.120000000000
2.014233121000,-0.115000000000
2.021921148000,-0.108000000000
2.029609175000,-0.106000000000
2.037297202000,-0.103000000000
2.044985229000,-0.101000000000
2.052673256000,-0.101000000000
2.060361283000,-0.093000000000
2.068049310000,-0.091000000000
2.075737337000,-0.093000000000
2.083425364000,-0.091000000000
2.091113391000,-0.088000000000
2.098801418000,-0.093000000000
2.106489445000,-0.093000000000
2.114177472000,-0.091000000000
2.121865499000,-0.091000000000
2.129553526000,-0.096000000000
2.137241553000,-0.091000000000
2.144929580000,-0.088000000000
2.152617607000,-0.091000000000
2.160305634000,-0.091000000000
2.167993661000,-0.083000000000
2.175681688000,-0.086000000000
2.183369715000,-0.088000000000
2.191057742000,-0.083000000000
2.198745818000,-0.078000000000
2.206433845000,-0.081000000000
2.214121872000,-0.078000000000
2.221809899000,-0.076000000000
2.229497926000,-0.076000000000
2.237185953000,-0.073000000000
2.244873980000,-0.073000000000
2.252562007000,-0.071000000000
2.260250034000,-0.069000000000
2.267938061000,-0.066000000000
2.275626088000,-0.064000000000
2.283314115000,-0.064000000000
2.291002142000,-0.069000000000
2.298690169000,-0.076000000000
2.306378196000,-0.078000000000
2.314066223000,-0.073000000000
2.321754250000,-0.066000000000
2.329442277000,-0.054000000000
2.337130304000,-0.044000000000
2.344818331000,-0.036000000000
2.352506358000,-0.022000000000
2.360194385000,-0.024000000000
2.367882412000,-0.044000000000
2.375570439000,-0.051000000000
2.383258466000,-0.049000000000
2.390946493000,-0.056000000000
2.398634520000,-0.059000000000
2.406322547000,-0.049000000000
2.414010574000,-0.049000000000
2.421698601000,-0.059000000000
2.429386628000,-0.088000000000
2.437074655000,-0.098000000000
2.444762682000,0.078000000000
2.452450709000,0.535000000000
2.460138736000,0.855000000000
2.467826763000,0.527000000000
2.475514790000,-0.150000000000
2.483202817000,-0.394000000000
2.490890844000,-0.221000000000
2.498578871000,-0.172000000000
2.506266898000,-0.194000000000
2.513954925000,-0.098000000000
2.521642952000,-0.049000000000
2.529330979000,-0.071000000000
2.537019006000,-0.056000000000
2.544707033000,-0.041000000000
2.552395060000,-0.051000000000
2.560083087000,-0.041000000000
2.567771114000,-0.024000000000
2.575459141000,-0.029000000000
2.583147168000,-0.022000000000
2.590835195000,-0.007000000000
2.598523222000,0.000000000000
2.606211249000,-0.002000000000
2.613899276000,-0.004000000000
2.621587303000,0.000000000000
2.629275330000,0.017000000000
2.636963357000,0.027000000000
2.644651384000,0.027000000000
2.652339411000,0.036000000000
2.660027438000,0.054000000000
2.667715465000,0.066000000000
2.675403492000,0.091000000000
2.683091519000,0.113000000000
2.690779546000,0.120000000000
2.698467573000,0.123000000000
2.706155600000,0.135000000000
2.713843627000,0.145000000000
2.721531654000,0.143000000000
2.729219681000,0.128000000000
2.736907708000,0.108000000000
2.744595735000,0.071000000000
2.752283762000,0.029000000000
2.759971838000,-0.002000000000
2.767659447000,-0.044000000000
2.775347056000,-0.083000000000
2.783034665000,-0.103000000000
2.790722274000,-0.110000000000
2.798409883000,-0.123000000000
2.806097492000,-0.135000000000
2.813785101000,-0.135000000000
2.821472710000,-0.115000000000
2.829160319000,-0.106000000000
2.836847928000,-0.108000000000
2.844535537000,-0.106000000000
2.852223146000,-0.101000000000
2.859910755000,-0.093000000000
2.867598364000,-0.083000000000
2.875285973000,-0.086000000000
2.882973582000,-0.088000000000
2.890661191000,-0.081000000000
2.898348800000,-0.076000000000
2.906036409000,-0.076000000000
2.913724018000,-0.081000000000
2.921411627000,-0.081000000000
2.929099236000,-0.076000000000
2.936786845000,-0.073000000000
2.944474454000,-0.071000000000
2.952162063000,-0.071000000000
2.959849672000,-0.069000000000
2.967537281000,-0.069000000000
2.975224890000,-0.073000000000
2.982912499000,-0.069000000000
2.990600108000,-0.056000000000
2.998287717000,-0.066000000000
3.005975326000,-0.073000000000
3.013662935000,-0.064000000000
3.021350544000,-0.056000000000
3.029038153000,-0.056000000000
3.036725762000,-0.051000000000
3.044413371000,-0.046000000000
3.052100980000,-0.054000000000
3.059788589000,-0.054000000000
3.067476198000,-0.039000000000
3.075163807000,-0.039000000000
3.082851416000,-0.041000000000
3.090539025000,-0.036000000000
3.098226634000,-0.034000000000
3.105914243000,-0.039000000000
3.113601852000,-0.041000000000
3.121289461000,-0.032000000000
3.128977070000,-0.027000000000
3.136664679000,-0.029000000000
3.144352288000,-0.019000000000
3.152039897000,0.004000000000
3.159727506000,0.012000000000
3.167415115000,0.012000000000
3.175102724000,0.012000000000
3.182790333000,0.000000000000
3.190477942000,-0.012000000000
3.198165551000,-0.004000000000
3.205853160000,0.000000000000
3.213540769000,-0.007000000000
3.221228378000,-0.009000000000
3.228915987000,-0.004000000000
3.236603596000,0.000000000000
3.244291205000,-0.012000000000
3.251978814000,-0.014000000000
3.259666423000,0.140000000000
3.267354032000,0.554000000000
3.275041641000,0.863000000000
3.282729250000,0.515000000000
3.290416859000,-0.192000000000
3.298104468000,-0.438000000000
3.305792077000,-0.229000000000
3.313479686000,-0.140000000000
3.321167336000,-0.157000000000
3.328855363000,-0.046000000000
3.336543390000,0.036000000000
3.344231417000,0.014000000000
3.351919444000,0.022000000000
3.359607471000,0.059000000000
3.367295498000,0.056000000000
3.374983525000,0.044000000000
3.382671552000,0.061000000000
3.390359579000,0.081000000000
3.398047606000,0.078000000000
3.405735633000,0.076000000000
3.413423660000,0.086000000000
3.421111687000,0.098000000000
3.428799714000,0.106000000000
3.436487741000,0.110000000000
3.444175768000,0.123000000000
3.451863795000,0.133000000000
3.459551822000,0.150000000000
3.467239849000,0.170000000000
3.474927876000,0.177000000000
3.482615903000,0.192000000000
3.490303930000,0.214000000000
3.497991957000,0.229000000000
3.505679984000,0.241000000000
3.513368011000,0.263000000000
3.521056038000,0.268000000000
3.528744065000,0.261000000000
3.536432092000,0.261000000000
3.544120119000,0.258000000000
3.551808146000,0.234000000000
3.559496173000,0.182000000000
3.567184200000,0.125000000000
3.574872227000,0.078000000000
3.582560254000,0.034000000000
3.590248281000,-0.004000000000
3.597936308000,-0.024000000000
3.605624335000,-0.036000000000
3.613312362000,-0.049000000000
3.621000389000,-0.051000000000
3.628688416000,-0.044000000000
3.636376443000,-0.044000000000
3.644064470000,-0.049000000000
3.651752497000,-0.036000000000
3.659440524000,-0.022000000000
3.667128551000,-0.017000000000
3.674816578000,-0.012000000000
3.682504605000,-0.007000000000
3.690192632000,-0.004000000000
3.697880659000,0.000000000000
3.705568686000,0.009000000000
3.713256713000,0.012000000000
3.720944740000,0.012000000000
3.728632767000,0.014000000000
3.736320794000,0.009000000000
3.744008821000,0.007000000000
3.751696848000,0.014000000000
3.759384875000,0.007000000000
3.767072902000,-0.009000000000
3.774760929000,-0.007000000000
3.782448956000,0.007000000000
3.790136983000,0.002000000000
3.797825010000,-0.007000000000
3.805513037000,-0.004000000000
3.813201064000,-0.004000000000
3.820889091000,-0.009000000000
3.828577118000,-0.007000000000
3.836265145000,0.000000000000
3.843953172000,0.002000000000
3.851641199000,-0.004000000000
3.859329226000,-0.002000000000
3.867017253000,0.004000000000
3.874705280000,0.000000000000
3.882393360000,-0.004000000000
3.890081387000,0.004000000000
3.897769414000,0.004000000000
3.905457441000,0.000000000000
3.913145468000,0.000000000000
3.920833495000,0.002000000000
3.928521522000,-0.007000000000
3.936209549000,-0.017000000000
3.943897576000,-0.012000000000
3.951585603000,0.002000000000
3.959273630000,0.009000000000
3.966961657000,0.017000000000
3.974649684000,0.032000000000
3.982337711000,0.036000000000
3.990025738000,0.017000000000
3.997713765000,0.000000000000
4.005401792000,-0.004000000000
4.013089819000,-0.002000000000
4.020777846000,0.000000000000
4.028465873000,0.000000000000
4.036153900000,-0.004000000000
4.043841927000,-0.009000000000
4.051529954000,-0.014000000000
4.059217981000,-0.039000000000
4.066906008000,-0.007000000000
4.074594035000,0.288000000000
4.082282062000,0.766000000000
4.089970089000,0.833000000000
4.097658116000,0.239000000000
4.105346143000,-0.327000000000
4.113034170000,-0.318000000000
4.120722197000,-0.140000000000
4.128410224000,-0.155000000000
4.136098251000,-0.128000000000
4.143786278000,-0.029000000000
4.151474305000,-0.022000000000
4.159162332000,-0.034000000000
4.166850359000,-0.014000000000
4.174538386000,-0.012000000000
4.182226413000,-0.009000000000
4.189914440000,0.007000000000
4.197602467000,0.004000000000
4.205290494000,0.000000000000
4.212978521000,0.009000000000
4.220666548000,0.009000000000
4.228354575000,0.009000000000
4.236042602000,0.019000000000
4.243730629000,0.024000000000
4.251418656000,0.029000000000
4.259106683000,0.036000000000
4.266794710000,0.041000000000
4.274482737000,0.051000000000
4.282170764000,0.061000000000
4.289858791000,0.069000000000
4.297546818000,0.078000000000
4.305234845000,0.098000000000
4.312922872000,0.118000000000
4.320610899000,0.130000000000
4.328298926000,0.140000000000
4.335986953000,0.145000000000
4.343674980000,0.150000000000
4.351363007000,0.145000000000
4.359051034000,0.128000000000
4.366739061000,0.103000000000
4.374427088000,0.071000000000
4.382115115000,0.027000000000
4.389803142000,-0.014000000000
4.397491169000,-0.051000000000
4.405179196000,-0.083000000000
4.412867223000,-0.110000000000
4.420555250000,-0.120000000000
4.428243277000,-0.118000000000
4.435931304000,-0.115000000000
4.443619380000,-0.118000000000
4.451307198000,-0.113000000000
4.458995016000,-0.106000000000
4.466682834000,-0.101000000000
4.474370652000,-0.096000000000
4.482058470000,-0.093000000000
4.489746288000,-0.091000000000
4.497434106000,-0.091000000000
4.505121924000,-0.088000000000
4.512809742000,-0.083000000000
4.520497560000,-0.081000000000
4.528185378000,-0.083000000000
4.535873196000,-0.081000000000
4.543561014000,-0.076000000000
4.551248832000,-0.078000000000
4.558936650000,-0.083000000000
4.566624468000,-0.081000000000
4.574312286000,-0.081000000000
4.582000104000,-0.086000000000
4.589687922000,-0.081000000000
4.597375740000,-0.076000000000
4.605063558000,-0.081000000000
4.612751376000,-0.086000000000
4.620439194000,-0.083000000000
4.628127012000,-0.081000000000
4.635814830000,-0.078000000000
4.643502648000,-0.078000000000
4.651190466000,-0.078000000000
4.658878284000,-0.076000000000
4.666566102000,-0.071000000000
4.674253920000,-0.069000000000
4.681941738000,-0.066000000000
4.689629556000,-0.069000000000
4.697317374000,-0.073000000000
4.705005192000,-0.071000000000
4.712693010000,-0.069000000000
4.720380828000,-0.064000000000
4.728068646000,-0.064000000000
4.735756464000,-0.066000000000
4.743444282000,-0.069000000000
4.751132100000,-0.071000000000
4.758819918000,-0.073000000000
4.766507736000,-0.073000000000
4.774195554000,-0.071000000000
4.781883372000,-0.071000000000
4.789571190000,-0.061000000000
4.797259008000,-0.046000000000
4.804946826000,-0.041000000000
4.812634644000,-0.032000000000
4.820322462000,-0.029000000000
4.828010280000,-0.044000000000
4.835698098000,-0.059000000000
4.843385916000,-0.061000000000
4.851073734000,-0.061000000000
4.858761552000,-0.064000000000
4.866449370000,-0.066000000000
4.874137188000,-0.069000000000
4.881825006000,-0.069000000000
4.889512824000,-0.078000000000
4.897200642000,-0.106000000000
4.904888460000,-0.012000000000
4.912576278000,0.377000000000
4.920264096000,0.801000000000
4.927951914000,0.673000000000
4.935639732000,0.012000000000
4.943327550000,-0.404000000000
4.951015368000,-0.298000000000
4.958703186000,-0.182000000000
4.966391004000,-0.209000000000
4.974078822000,-0.155000000000
4.981766640000,-0.088000000000
4.989454458000,-0.101000000000
4.997142276000,-0.093000000000
5.004830139000,-0.066000000000
5.012518096000,-0.069000000000
5.020206053000,-0.073000000000
5.027894010000,-0.061000000000
5.035581967000,-0.056000000000
5.043269924000,-0.059000000000
5.050957881000,-0.049000000000
5.058645838000,-0.034000000000
5.066333795000,-0.036000000000
5.074021752000,-0.046000000000
5.081709709000,-0.036000000000
5.089397666000,-0.019000000000
5.097085623000,-0.012000000000
5.104773580000,-0.009000000000
5.112461537000,0.002000000000
5.120149494000,0.014000000000
5.127837451000,0.034000000000
5.135525408000,0.054000000000
5.143213365000,0.069000000000
5.150901322000,0.081000000000
5.158589279000,0.093000000000
5.166277236000,0.101000000000
5.173965193000,0.106000000000
5.181653150000,0.106000000000
5.189341107000,0.098000000000
5.197029064000,0.083000000000
5.204717021000,0.051000000000
5.212404978000,0.012000000000
5.220092935000,-0.029000000000
5.227780892000,-0.073000000000
5.235468849000,-0.113000000000
5.243156806000,-0.135000000000
5.250844763000,-0.150000000000
5.258532720000,-0.162000000000
5.266220677000,-0.167000000000
5.273908634000,-0.165000000000
5.281596591000,-0.157000000000
5.289284548000,-0.157000000000
5.296972505000,-0.157000000000
5.304660462000,-0.145000000000
5.312348419000,-0.140000000000
5.320036376000,-0.143000000000
5.327724333000,-0.143000000000
5.335412290000,-0.135000000000
5.343100247000,-0.128000000000
5.350788204000,-0.125000000000
5.358476161000,-0.123000000000
5.366164118000,-0.123000000000
5.373852075000,-0.125000000000
5.381540032000,-0.128000000000
5.389227989000,-0.123000000000
5.396915946000,-0.115000000000
5.404603903000,-0.110000000000
5.412291860000,-0.120000000000
5.419979817000,-0.123000000000
5.427667774000,-0.118000000000
5.435355731000,-0.115000000000
5.443043688000,-0.123000000000
5.450731645000,-0.130000000000
5.458419602000,-0.125000000000
5.466107559000,-0.113000000000
5.473795516000,-0.108000000000
5.481483473000,-0.115000000000
5.489171430000,-0.113000000000
5.496859387000,-0.110000000000
5.504547344000,-0.115000000000
5.512235301000,-0.115000000000
5.519923258000,-0.101000000000
5.527611215000,-0.096000000000
5.535299172000,-0.098000000000
5.542987129000,-0.098000000000
5.550675086000,-0.101000000000
5.558363043000,-0.101000000000
5.566051072000,-0.098000000000
5.573738960000,-0.091000000000
5.581426848000,-0.096000000000
5.589114736000,-0.106000000000
5.596802624000,-0.101000000000
5.604490512000,-0.086000000000
5.612178400000,-0.096000000000
5.619866288000,-0.106000000000
5.627554176000,-0.086000000000
5.635242064000,-0.064000000000
5.642929952000,-0.059000000000
5.650617840000,-0.056000000000
5.658305728000,-0.059000000000
5.665993616000,-0.078000000000
5.673681504000,-0.086000000000
5.681369392000,-0.083000000000
5.689057280000,-0.086000000000
5.696745168000,-0.088000000000
5.704433056000,-0.088000000000
5.712120944000,-0.086000000000
5.719808832000,-0.086000000000
5.727496720000,-0.101000000000
5.735184608000,-0.059000000000
5.742872496000,0.231000000000
5.750560384000,0.685000000000
5.758248272000,0.702000000000
5.765936160000,0.064000000000
5.773624048000,-0.485000000000
5.781311936000,-0.436000000000
5.788999824000,-0.244000000000
5.796687712000,-0.249000000000
5.804375600000,-0.204000000000
5.812063488000,-0.088000000000
5.819751376000,-0.073000000000
5.827439264000,-0.096000000000
5.835127152000,-0.066000000000
5.842815040000,-0.044000000000
5.850502928000,-0.054000000000
5.858190816000,-0.051000000000
5.865878704000,-0.036000000000
5.873566592000,-0.029000000000
5.881254480000,-0.027000000000
5.888942368000,-0.022000000000
5.896630256000,-0.012000000000
5.904318144000,-0.007000000000
5.912006032000,-0.002000000000
5.919693920000,0.007000000000
5.927381808000,0.019000000000
5.935069696000,0.032000000000
5.942757584000,0.039000000000
5.950445472000,0.051000000000
5.958133360000,0.071000000000
5.965821248000,0.088000000000
5.973509136000,0.106000000000
5.981197024000,0.120000000000
5.988884912000,0.140000000000
5.996572800000,0.150000000000
6.004260688000,0.150000000000
6.011948576000,0.150000000000
6.019636464000,0.140000000000
6.027324352000,0.125000000000
6.035012240000,0.098000000000
6.042700128000,0.049000000000
6.050388016000,-0.004000000000
6.058075904000,-0.044000000000
6.065763792000,-0.086000000000
6.073451680000,-0.128000000000
6.081139568000,-0.150000000000
6.088827456000,-0.152000000000
6.096515344000,-0.155000000000
6.104203232000,-0.157000000000
6.111891120000,-0.157000000000
6.119579008000,-0.150000000000
6.127266922000,-0.143000000000
6.134954949000,-0.140000000000
6.142642976000,-0.133000000000
6.150331003000,-0.125000000000
6.158019030000,-0.118000000000
6.165707057000,-0.110000000000
6.173395084000,-0.103000000000
6.181083111000,-0.101000000000
6.188771138000,-0.096000000000
6.196459165000,-0.088000000000
6.204147192000,-0.088000000000
6.211835219000,-0.088000000000
6.219523246000,-0.091000000000
6.227211273000,-0.093000000000
6.234899300000,-0.091000000000
6.242587327000,-0.088000000000
6.250275354000,-0.096000000000
6.257963381000,-0.093000000000
6.265651408000,-0.083000000000
6.273339435000,-0.083000000000
6.281027462000,-0.091000000000
6.288715489000,-0.088000000000
6.296403516000,-0.086000000000
6.304091543000,-0.091000000000
6.311779570000,-0.088000000000
6.319467597000,-0.081000000000
6.327155624000,-0.078000000000
6.334843651000,-0.078000000000
6.342531678000,-0.076000000000
6.350219705000,-0.069000000000
6.357907732000,-0.064000000000
6.365595759000,-0.071000000000
6.373283786000,-0.071000000000
6.380971813000,-0.061000000000
6.388659840000,-0.059000000000
6.396347867000,-0.061000000000
6.404035894000,-0.056000000000
6.411723921000,-0.054000000000
6.419411948000,-0.059000000000
6.427099975000,-0.061000000000
6.434788002000,-0.061000000000
6.442476029000,-0.061000000000
6.450164056000,-0.064000000000
6.457852083000,-0.061000000000
6.465540110000,-0.044000000000
6.473228137000,-0.032000000000
6.480916164000,-0.029000000000
6.488604191000,-0.014000000000
6.496292218000,-0.007000000000
6.503980245000,-0.029000000000
6.511668272000,-0.044000000000
6.519356299000,-0.041000000000
6.527044326000,-0.041000000000
6.534732353000,-0.046000000000
6.542420380000,-0.041000000000
6.550108407000,-0.034000000000
6.557796434000,-0.041000000000
6.565484461000,-0.059000000000
6.573172488000,-0.086000000000
6.580860515000,-0.039000000000
6.588548542000,0.283000000000
6.596236569000,0.761000000000
6.603924596000,0.811000000000
6.611612623000,0.224000000000
6.619300650000,-0.320000000000
6.626988677000,-0.310000000000
6.634676704000,-0.160000000000
6.642364731000,-0.177000000000
6.650052758000,-0.135000000000
6.657740785000,-0.044000000000
6.665428812000,-0.054000000000
6.673116839000,-0.066000000000
6.680804866000,-0.036000000000
6.688492942000,-0.032000000000
6.696180551000,-0.034000000000
6.703868160000,-0.019000000000
6.711555769000,-0.014000000000
6.719243378000,-0.014000000000
6.726930987000,-0.007000000000
6.734618596000,-0.004000000000
6.742306205000,-0.004000000000
6.749993814000,-0.002000000000
6.757681423000,0.002000000000
6.765369032000,0.009000000000
6.773056641000,0.014000000000
6.780744250000,0.024000000000
6.788431859000,0.036000000000
6.796119468000,0.046000000000
6.803807077000,0.054000000000
6.811494686000,0.069000000000
6.819182295000,0.091000000000
6.826869904000,0.106000000000
6.834557513000,0.110000000000
6.842245122000,0.118000000000
6.849932731000,0.133000000000
6.857620340000,0.140000000000
6.865307949000,0.140000000000
6.872995558000,0.130000000000
6.880683167000,0.103000000000
6.888370776000,0.064000000000
6.896058385000,0.019000000000
6.903745994000,-0.017000000000
6.911433603000,-0.051000000000
6.919121212000,-0.081000000000
6.926808821000,-0.101000000000
6.934496430000,-0.110000000000
6.942184039000,-0.118000000000
6.949871648000,-0.123000000000
6.957559257000,-0.115000000000
6.965246866000,-0.110000000000
6.972934475000,-0.108000000000
6.980622084000,-0.106000000000
6.988309693000,-0.096000000000
6.995997302000,-0.088000000000
7.003684911000,-0.088000000000
7.011372520000,-0.088000000000
7.019060129000,-0.083000000000
7.026747738000,-0.078000000000
7.034435347000,-0.078000000000
7.042122956000,-0.081000000000
7.049810565000,-0.083000000000
7.057498174000,-0.081000000000
7.065185783000,-0.073000000000
7.072873392000,-0.071000000000
7.080561001000,-0.071000000000
7.088248610000,-0.073000000000
7.095936219000,-0.073000000000
7.103623828000,-0.069000000000
7.111311437000,-0.069000000000
7.118999046000,-0.073000000000
7.126686655000,-0.076000000000
7.134374264000,-0.071000000000
7.142061873000,-0.069000000000
7.149749482000,-0.069000000000
7.157437091000,-0.069000000000
7.165124700000,-0.064000000000
7.172812309000,-0.061000000000
7.180499918000,-0.061000000000
7.188187527000,-0.059000000000
7.195875136000,-0.051000000000
7.203562745000,-0.056000000000
7.211250354000,-0.066000000000
7.218937963000,-0.066000000000
7.226625572000,-0.054000000000
7.234313181000,-0.046000000000
7.242000790000,-0.046000000000
7.249688444000,-0.051000000000
7.257376471000,-0.051000000000
7.265064498000,-0.046000000000
7.272752525000,-0.041000000000
7.280440552000,-0.046000000000
7.288128579000,-0.051000000000
7.295816606000,-0.059000000000
7.303504633000,-0.064000000000
7.311192660000,-0.059000000000
7.318880687000,-0.041000000000
7.326568714000,-0.029000000000
7.334256741000,-0.029000000000
7.341944768000,-0.019000000000
7.349632795000,-0.009000000000
7.357320822000,-0.022000000000
7.365008849000,-0.041000000000
7.372696876000,-0.041000000000
7.380384903000,-0.041000000000
7.388072930000,-0.044000000000
7.395760957000,-0.041000000000
7.403448984000,-0.041000000000
7.411137011000,-0.051000000000
7.418825038000,-0.056000000000
7.426513065000,-0.073000000000
7.434201092000,-0.041000000000
7.441889119000,0.258000000000
7.449577146000,0.737000000000
7.457265173000,0.791000000000
7.464953200000,0.199000000000
7.472641227000,-0.345000000000
7.480329254000,-0.340000000000
7.488017281000,-0.182000000000
7.495705308000,-0.184000000000
7.503393335000,-0.143000000000
7.511081362000,-0.061000000000
7.518769389000,-0.066000000000
7.526457416000,-0.078000000000
7.534145443000,-0.049000000000
7.541833470000,-0.034000000000
7.549521497000,-0.036000000000
7.557209524000,-0.036000000000
7.564897551000,-0.032000000000
7.572585578000,-0.022000000000
7.580273605000,-0.012000000000
7.587961632000,-0.007000000000
7.595649659000,-0.009000000000
7.603337686000,0.000000000000
7.611025713000,0.014000000000
7.618713740000,0.022000000000
7.626401767000,0.024000000000
7.634089794000,0.036000000000
7.641777821000,0.051000000000
7.649465848000,0.059000000000
7.657153875000,0.071000000000
7.664841902000,0.091000000000
7.672529929000,0.108000000000
7.680217956000,0.125000000000
7.687905983000,0.143000000000
7.695594010000,0.147000000000
7.703282037000,0.150000000000
7.710970064000,0.157000000000
7.718658091000,0.155000000000
7.726346118000,0.138000000000
7.734034145000,0.106000000000
7.741722172000,0.061000000000
7.749410199000,0.019000000000
7.757098226000,-0.012000000000
7.764786253000,-0.046000000000
7.772474280000,-0.091000000000
7.780162307000,-0.120000000000
7.787850334000,-0.125000000000
7.795538361000,-0.130000000000
7.803226388000,-0.138000000000
7.810914464000,-0.133000000000
7.818602282000,-0.125000000000
7.826290100000,-0.123000000000
7.833977918000,-0.123000000000
7.841665736000,-0.110000000000
7.849353554000,-0.096000000000
7.857041372000,-0.101000000000
7.864729190000,-0.103000000000
7.872417008000,-0.093000000000
7.880104826000,-0.086000000000
7.887792644000,-0.091000000000
7.895480462000,-0.091000000000
7.903168280000,-0.088000000000
7.910856098000,-0.091000000000
7.918543916000,-0.093000000000
7.926231734000,-0.088000000000
7.933919552000,-0.086000000000
7.941607370000,-0.091000000000
7.949295188000,-0.091000000000
7.956983006000,-0.081000000000
7.964670824000,-0.086000000000
7.972358642000,-0.091000000000
7.980046460000,-0.088000000000
7.987734278000,-0.088000000000
7.995422096000,-0.093000000000
8.003109914000,-0.093000000000
8.010797732000,-0.096000000000
8.018485550000,-0.091000000000
8.026173368000,-0.078000000000
8.033861186000,-0.071000000000
8.041549004000,-0.078000000000
8.049236822000,-0.086000000000
8.056924640000,-0.083000000000
8.064612458000,-0.081000000000
8.072300276000,-0.086000000000
8.079988094000,-0.076000000000
8.087675912000,-0.064000000000
8.095363730000,-0.066000000000
8.103051548000,-0.071000000000
8.110739366000,-0.069000000000
8.118427184000,-0.073000000000
8.126115002000,-0.076000000000
8.133802820000,-0.073000000000
8.141490638000,-0.069000000000
8.149178456000,-0.064000000000
8.156866274000,-0.056000000000
8.164554092000,-0.044000000000
8.172241910000,-0.032000000000
8.179929728000,-0.022000000000
8.187617546000,-0.032000000000
8.195305364000,-0.051000000000
8.202993182000,-0.056000000000
8.210681000000,-0.061000000000
8.218368818000,-0.069000000000
8.226056636000,-0.064000000000
8.233744454000,-0.056000000000
8.241432272000,-0.061000000000
8.249120090000,-0.069000000000
8.256807908000,-0.081000000000
8.264495726000,-0.029000000000
8.272183544000,0.268000000000
8.279871362000,0.724000000000
8.287559180000,0.732000000000
8.295246998000,0.071000000000
8.302934816000,-0.480000000000
8.310622634000,-0.416000000000
8.318310452000,-0.226000000000
8.325998270000,-0.229000000000
8.333686088000,-0.172000000000
8.341373906000,-0.061000000000
8.349061724000,-0.049000000000
8.356749542000,-0.064000000000
8.364437360000,-0.039000000000
8.372125223000,-0.029000000000
8.379813180000,-0.034000000000
8.387501137000,-0.024000000000
8.395189094000,-0.012000000000
8.402877051000,-0.007000000000
8.410565008000,0.002000000000
8.418252965000,0.007000000000
8.425940922000,0.007000000000
8.433628879000,0.009000000000
8.441316836000,0.017000000000
8.449004793000,0.027000000000
8.456692750000,0.039000000000
8.464380707000,0.049000000000
8.472068664000,0.059000000000
8.479756621000,0.076000000000
8.487444578000,0.091000000000
8.495132535000,0.103000000000
8.502820492000,0.120000000000
8.510508449000,0.138000000000
8.518196406000,0.152000000000
8.525884363000,0.167000000000
8.533572320000,0.172000000000
8.541260277000,0.165000000000
8.548948234000,0.155000000000
8.556636191000,0.145000000000
8.564324148000,0.113000000000
8.572012105000,0.066000000000
8.579700062000,0.022000000000
8.587388019000,-0.027000000000
8.595075976000,-0.071000000000
8.602763933000,-0.101000000000
8.610451890000,-0.120000000000
8.618139847000,-0.133000000000
8.625827804000,-0.135000000000
8.633515761000,-0.135000000000
8.641203718000,-0.133000000000
8.648891675000,-0.128000000000
8.656579632000,-0.123000000000
8.664267589000,-0.123000000000
8.671955546000,-0.118000000000
8.679643503000,-0.108000000000
8.687331460000,-0.101000000000
8.695019417000,-0.091000000000
8.702707374000,-0.081000000000
8.710395331000,-0.083000000000
8.718083288000,-0.086000000000
8.725771245000,-0.081000000000
8.733459202000,-0.081000000000
8.741147159000,-0.081000000000
8.748835116000,-0.078000000000
8.756523073000,-0.086000000000
8.764211030000,-0.091000000000
8.771898987000,-0.091000000000
8.779586944000,-0.091000000000
8.787274901000,-0.091000000000
8.794962858000,-0.091000000000
8.802650815000,-0.091000000000
8.810338772000,-0.091000000000
8.818026729000,-0.091000000000
8.825714686000,-0.093000000000
8.833402643000,-0.088000000000
8.841090600000,-0.088000000000
8.848778557000,-0.088000000000
8.856466514000,-0.086000000000
8.864154471000,-0.081000000000
8.871842428000,-0.078000000000
8.879530385000,-0.081000000000
8.887218342000,-0.081000000000
8.894906299000,-0.076000000000
8.902594256000,-0.076000000000
8.910282213000,-0.076000000000
8.917970170000,-0.071000000000
8.925658127000,-0.066000000000
8.933346156000,-0.069000000000
8.941034044000,-0.071000000000
8.948721932000,-0.071000000000
8.956409820000,-0.064000000000
8.964097708000,-0.061000000000
8.971785596000,-0.066000000000
8.979473484000,-0.073000000000
8.987161372000,-0.078000000000
8.994849260000,-0.076000000000
9.002537148000,-0.076000000000
9.010225036000,-0.064000000000
9.017912924000,-0.046000000000
9.025600812000,-0.036000000000
9.033288700000,-0.029000000000
9.040976588000,-0.032000000000
9.048664476000,-0.046000000000
9.056352364000,-0.056000000000
9.064040252000,-0.056000000000
9.071728140000,-0.054000000000
9.079416028000,-0.051000000000
9.087103916000,-0.051000000000
9.094791804000,-0.054000000000
9.102479692000,-0.059000000000
9.110167580000,-0.081000000000
9.117855468000,-0.086000000000
9.125543356000,0.130000000000
9.133231244000,0.616000000000
9.140919132000,0.892000000000
9.148607020000,0.495000000000
9.156294908000,-0.167000000000
9.163982796000,-0.362000000000
9.171670684000,-0.192000000000
9.179358572000,-0.160000000000
9.187046460000,-0.180000000000
9.194734348000,-0.091000000000
9.202422236000,-0.056000000000
9.210110124000,-0.083000000000
9.217798012000,-0.069000000000
9.225485900000,-0.041000000000
9.233173788000,-0.046000000000
9.240861676000,-0.046000000000
9.248549564000,-0.029000000000
9.256237452000,-0.022000000000
9.263925340000,-0.027000000000
9.271613228000,-0.022000000000
9.279301116000,-0.014000000000
9.286989004000,-0.009000000000
9.294676892000,-0.002000000000
9.302364780000,-0.004000000000
9.310052668000,-0.002000000000
9.317740556000,0.012000000000
9.325428444000,0.029000000000
9.333116332000,0.034000000000
9.340804220000,0.039000000000
9.348492108000,0.056000000000
9.356179996000,0.078000000000
9.363867884000,0.088000000000
9.371555772000,0.098000000000
9.379243660000,0.110000000000
9.386931548000,0.123000000000
9.394619436000,0.130000000000
9.402307324000,0.135000000000
9.409995212000,0.133000000000
9.417683100000,0.108000000000
9.425370988000,0.071000000000
9.433058876000,0.036000000000
9.440746764000,0.004000000000
9.448434652000,-0.036000000000
9.456122540000,-0.076000000000
9.463810428000,-0.098000000000
9.471498316000,-0.110000000000
9.479186204000,-0.120000000000
9.486874092000,-0.123000000000
9.494562006000,-0.120000000000
9.502250033000,-0.115000000000
9.509938060000,-0.108000000000
9.517626087000,-0.103000000000
9.525314114000,-0.098000000000
9.533002141000,-0.093000000000
9.540690168000,-0.093000000000
9.548378195000,-0.096000000000
9.556066222000,-0.088000000000
9.563754249000,-0.086000000000
9.571442276000,-0.083000000000
9.579130303000,-0.081000000000
9.586818330000,-0.083000000000
9.594506357000,-0.086000000000
9.602194384000,-0.086000000000
9.609882411000,-0.088000000000
9.617570438000,-0.086000000000
9.625258465000,-0.081000000000
9.632946492000,-0.081000000000
9.640634519000,-0.081000000000
9.648322546000,-0.076000000000
9.656010573000,-0.076000000000
9.663698600000,-0.081000000000
9.671386627000,-0.083000000000
9.679074654000,-0.081000000000
9.686762681000,-0.076000000000
9.694450708000,-0.083000000000
9.702138735000,-0.086000000000
9.709826762000,-0.069000000000
9.717514789000,-0.064000000000
9.725202816000,-0.073000000000
9.732890843000,-0.071000000000
9.740578870000,-0.069000000000
9.748266897000,-0.073000000000
9.755954924000,-0.071000000000
9.763642951000,-0.064000000000
9.771330978000,-0.064000000000
9.779019005000,-0.069000000000
9.786707032000,-0.066000000000
9.794395059000,-0.059000000000
9.802083086000,-0.061000000000
9.809771113000,-0.069000000000
9.817459140000,-0.073000000000
9.825147167000,-0.071000000000
9.832835194000,-0.066000000000
9.840523221000,-0.059000000000
9.848211248000,-0.049000000000
9.855899275000,-0.039000000000
9.863587302000,-0.024000000000
9.871275329000,-0.022000000000
9.878963356000,-0.036000000000
9.886651383000,-0.049000000000
9.894339410000,-0.051000000000
9.902027437000,-0.059000000000
9.909715464000,-0.066000000000
9.917403491000,-0.054000000000
9.925091518000,-0.054000000000
9.932779545000,-0.066000000000
9.940467572000,-0.069000000000
9.948155599000,-0.071000000000
9.955843626000,0.009000000000
9.963531653000,0.377000000000
9.971219680000,0.803000000000
9.978907707000,0.665000000000
9.986595734000,-0.009000000000
9.994283761000,-0.419000000000
10.001971788000,-0.303000000000
10.009659815000,-0.182000000000
10.017347842000,-0.204000000000
10.025035869000,-0.130000000000
10.032723896000,-0.049000000000
10.040411923000,-0.069000000000
10.048099950000,-0.076000000000
10.055788026000,-0.049000000000
10.063475635000,-0.046000000000
10.071163244000,-0.051000000000
10.078850853000,-0.032000000000
10.086538462000,-0.019000000000
10.094226071000,-0.019000000000
10.101913680000,-0.014000000000
10.109601289000,-0.009000000000
10.117288898000,-0.009000000000
10.124976507000,-0.002000000000
10.132664116000,0.004000000000
10.140351725000,0.012000000000
10.148039334000,0.029000000000
10.155726943000,0.044000000000
10.163414552000,0.049000000000
10.171102161000,0.051000000000
10.178789770000,0.071000000000
10.186477379000,0.098000000000
10.194164988000,0.110000000000
10.201852597000,0.125000000000
10.209540206000,0.143000000000
10.217227815000,0.155000000000
10.224915424000,0.152000000000
10.232603033000,0.150000000000
10.240290642000,0.145000000000
10.247978251000,0.130000000000
10.255665860000,0.106000000000
10.263353469000,0.064000000000
10.271041078000,0.012000000000
10.278728687000,-0.029000000000
10.286416296000,-0.061000000000
10.294103905000,-0.106000000000
10.301791514000,-0.140000000000
10.309479123000,-0.138000000000
10.317166732000,-0.128000000000
10.324854341000,-0.130000000000
10.332541950000,-0.125000000000
10.340229559000,-0.115000000000
10.347917168000,-0.113000000000
10.355604777000,-0.110000000000
10.363292386000,-0.108000000000
10.370979995000,-0.103000000000
10.378667604000,-0.093000000000
10.386355213000,-0.088000000000
10.394042822000,-0.091000000000
10.401730431000,-0.091000000000
10.409418040000,-0.088000000000
10.417105649000,-0.078000000000
10.424793258000,-0.073000000000
10.432480867000,-0.078000000000
10.440168476000,-0.081000000000
10.447856085000,-0.081000000000
10.455543694000,-0.083000000000
10.463231303000,-0.086000000000
10.470918912000,-0.083000000000
10.478606521000,-0.081000000000
10.486294130000,-0.081000000000
10.493981739000,-0.091000000000
10.501669348000,-0.088000000000
10.509356957000,-0.076000000000
10.517044566000,-0.076000000000
10.524732175000,-0.081000000000
10.532419784000,-0.078000000000
10.540107393000,-0.078000000000
10.547795002000,-0.076000000000
10.555482611000,-0.076000000000
10.563170220000,-0.078000000000
10.570857829000,-0.076000000000
10.578545438000,-0.071000000000
10.586233047000,-0.071000000000
10.593920656000,-0.076000000000
10.601608265000,-0.083000000000
10.609295874000,-0.083000000000
10.616983528000,-0.071000000000
10.624671555000,-0.061000000000
10.632359582000,-0.056000000000
10.640047609000,-0.044000000000
10.647735636000,-0.034000000000
10.655423663000,-0.032000000000
10.663111690000,-0.032000000000
10.670799717000,-0.041000000000
10.678487744000,-0.059000000000
10.686175771000,-0.069000000000
10.693863798000,-0.066000000000
10.701551825000,-0.061000000000
10.709239852000,-0.064000000000
10.716927879000,-0.059000000000
10.724615906000,-0.049000000000
10.732303933000,-0.073000000000
10.739991960000,-0.073000000000
10.747679987000,0.130000000000
10.755368014000,0.581000000000
10.763056041000,0.808000000000
10.770744068000,0.335000000000
10.778432095000,-0.355000000000
10.786120122000,-0.488000000000
10.793808149000,-0.271000000000
10.801496176000,-0.219000000000
10.809184203000,-0.202000000000
10.816872230000,-0.081000000000
10.824560257000,-0.032000000000
10.832248284000,-0.049000000000
10.839936311000,-0.039000000000
10.847624338000,-0.027000000000
10.855312365000,-0.027000000000
10.863000392000,-0.019000000000
10.870688419000,-0.012000000000
10.878376446000,-0.004000000000
10.886064473000,0.007000000000
10.893752500000,0.009000000000
10.901440527000,0.012000000000
10.909128554000,0.019000000000
10.916816581000,0.024000000000
10.924504608000,0.034000000000
10.932192635000,0.046000000000
10.939880662000,0.051000000000
10.947568689000,0.059000000000
10.955256716000,0.078000000000
10.962944743000,0.093000000000
10.970632770000,0.108000000000
10.978320797000,0.138000000000
10.986008824000,0.162000000000
10.993696851000,0.167000000000
11.001384878000,0.167000000000
11.009072905000,0.172000000000
11.016760932000,0.177000000000
11.024448959000,0.177000000000
11.032136986000,0.165000000000
11.039825013000,0.138000000000
11.047513040000,0.101000000000
11.055201067000,0.046000000000
11.062889094000,-0.017000000000
11.070577121000,-0.064000000000
11.078265148000,-0.088000000000
11.085953175000,-0.110000000000
11.093641202000,-0.133000000000
11.101329229000,-0.133000000000
11.109017256000,-0.125000000000
11.116705283000,-0.133000000000
11.124393310000,-0.130000000000
11.132081337000,-0.118000000000
11.139769364000,-0.110000000000
11.147457391000,-0.106000000000
11.155145418000,-0.096000000000
11.162833445000,-0.091000000000
11.170521472000,-0.078000000000
11.178209548000,-0.071000000000
11.185897366000,-0.071000000000
11.193585184000,-0.071000000000
11.201273002000,-0.061000000000
11.208960820000,-0.061000000000
11.216648638000,-0.069000000000
11.224336456000,-0.066000000000
11.232024274000,-0.059000000000
11.239712092000,-0.059000000000
11.247399910000,-0.066000000000
11.255087728000,-0.061000000000
11.262775546000,-0.059000000000
11.270463364000,-0.064000000000
11.278151182000,-0.061000000000
11.285839000000,-0.059000000000
11.293526818000,-0.064000000000
11.301214636000,-0.061000000000
11.308902454000,-0.054000000000
11.316590272000,-0.049000000000
11.324278090000,-0.051000000000
11.331965908000,-0.051000000000
11.339653726000,-0.044000000000
11.347341544000,-0.044000000000
11.355029362000,-0.049000000000
11.362717180000,-0.049000000000
11.370404998000,-0.046000000000
11.378092816000,-0.049000000000
11.385780634000,-0.044000000000
11.393468452000,-0.022000000000
11.401156270000,-0.014000000000
11.408844088000,-0.022000000000
11.416531906000,-0.007000000000
11.424219724000,0.017000000000
11.431907542000,0.004000000000
11.439595360000,-0.019000000000
11.447283178000,-0.022000000000
11.454970996000,-0.022000000000
11.462658814000,-0.027000000000
11.470346632000,-0.027000000000
11.478034450000,-0.014000000000
11.485722268000,-0.014000000000
11.493410086000,-0.034000000000
11.501097904000,-0.049000000000
11.508785722000,0.066000000000
11.516473540000,0.458000000000
11.524161358000,0.845000000000
11.531849176000,0.601000000000
11.539536994000,-0.140000000000
11.547224812000,-0.483000000000
11.554912630000,-0.283000000000
11.562600448000,-0.160000000000
11.570288266000,-0.187000000000
11.577976084000,-0.091000000000
11.585663902000,0.007000000000
11.593351720000,-0.004000000000
11.601039538000,-0.012000000000
11.608727356000,0.017000000000
11.616415174000,0.027000000000
11.624102992000,0.022000000000
11.631790810000,0.027000000000
11.639478628000,0.036000000000
11.647166446000,0.044000000000
11.654854264000,0.044000000000
11.662542082000,0.049000000000
11.670229900000,0.056000000000
11.677917718000,0.061000000000
11.685605536000,0.073000000000
11.693293354000,0.081000000000
11.700981172000,0.083000000000
11.708668990000,0.091000000000
11.716356808000,0.106000000000
11.724044626000,0.120000000000
11.731732444000,0.138000000000
11.739420307000,0.160000000000
11.747108264000,0.177000000000
11.754796221000,0.189000000000
11.762484178000,0.199000000000
11.770172135000,0.207000000000
11.777860092000,0.209000000000
11.785548049000,0.204000000000
11.793236006000,0.194000000000
11.800923963000,0.175000000000
11.808611920000,0.133000000000
11.816299877000,0.078000000000
11.823987834000,0.036000000000
11.831675791000,-0.004000000000
11.839363748000,-0.049000000000
11.847051705000,-0.081000000000
11.854739662000,-0.093000000000
11.862427619000,-0.098000000000
11.870115576000,-0.101000000000
11.877803533000,-0.103000000000
11.885491490000,-0.103000000000
11.893179447000,-0.098000000000
11.900867404000,-0.088000000000
11.908555361000,-0.078000000000
11.916243318000,-0.076000000000
11.923931275000,-0.071000000000
11.931619232000,-0.061000000000
11.939307189000,-0.056000000000
11.946995146000,-0.059000000000
11.954683103000,-0.056000000000
11.962371060000,-0.044000000000
11.970059017000,-0.044000000000
11.977746974000,-0.049000000000
11.985434931000,-0.046000000000
11.993122888000,-0.041000000000
12.000810845000,-0.041000000000
12.008498802000,-0.044000000000
12.016186759000,-0.049000000000
12.023874716000,-0.051000000000
12.031562673000,-0.051000000000
12.039250630000,-0.051000000000
12.046938587000,-0.046000000000
12.054626544000,-0.049000000000
12.062314501000,-0.049000000000
12.070002458000,-0.046000000000
12.077690415000,-0.046000000000
12.085378372000,-0.051000000000
12.093066329000,-0.049000000000
12.100754286000,-0.044000000000
12.108442243000,-0.046000000000
12.116130200000,-0.051000000000
12.123818157000,-0.046000000000
12.131506114000,-0.049000000000
12.139194071000,-0.054000000000
12.146882028000,-0.044000000000
12.154569985000,-0.027000000000
12.162257942000,-0.019000000000
12.169945899000,-0.009000000000
12.177633856000,-0.002000000000
12.185321813000,-0.007000000000
12.193009770000,-0.027000000000
12.200697727000,-0.032000000000
12.208385684000,-0.029000000000
12.216073641000,-0.032000000000
12.223761598000,-0.034000000000
12.231449555000,-0.032000000000
12.239137512000,-0.027000000000
12.246825469000,-0.032000000000
12.254513426000,-0.056000000000
12.262201383000,-0.059000000000
12.269889340000,0.150000000000
12.277577297000,0.621000000000
12.285265254000,0.890000000000
12.292953211000,0.485000000000
12.300641240000,-0.192000000000
12.308329128000,-0.382000000000
12.316017016000,-0.194000000000
12.323704904000,-0.152000000000
12.331392792000,-0.167000000000
12.339080680000,-0.073000000000
12.346768568000,-0.039000000000
12.354456456000,-0.061000000000
12.362144344000,-0.044000000000
12.369832232000,-0.019000000000
12.377520120000,-0.024000000000
12.385208008000,-0.024000000000
12.392895896000,-0.014000000000
12.400583784000,-0.009000000000
12.408271672000,-0.007000000000
12.415959560000,-0.004000000000
12.423647448000,0.000000000000
12.431335336000,0.004000000000
12.439023224000,0.007000000000
12.446711112000,0.014000000000
12.454399000000,0.027000000000
12.462086888000,0.034000000000
12.469774776000,0.036000000000
12.477462664000,0.046000000000
12.485150552000,0.064000000000
12.492838440000,0.083000000000
12.500526328000,0.101000000000
12.508214216000,0.110000000000
12.515902104000,0.125000000000
12.523589992000,0.143000000000
12.531277880000,0.147000000000
12.538965768000,0.145000000000
12.546653656000,0.145000000000
12.554341544000,0.135000000000
12.562029432000,0.108000000000
12.569717320000,0.071000000000
12.577405208000,0.032000000000
12.585093096000,-0.012000000000
12.592780984000,-0.061000000000
12.600468872000,-0.096000000000
12.608156760000,-0.115000000000
12.615844648000,-0.125000000000
12.623532536000,-0.128000000000
12.631220424000,-0.130000000000
12.638908312000,-0.130000000000
12.646596200000,-0.130000000000
12.654284088000,-0.128000000000
12.661971976000,-0.123000000000
12.669659864000,-0.113000000000
12.677347752000,-0.106000000000
12.685035640000,-0.103000000000
12.692723528000,-0.103000000000
12.700411416000,-0.101000000000
12.708099304000,-0.098000000000
12.715787192000,-0.096000000000
12.723475080000,-0.088000000000
12.731162968000,-0.083000000000
12.738850856000,-0.088000000000
12.746538744000,-0.096000000000
12.754226632000,-0.091000000000
12.761914520000,-0.088000000000
12.769602408000,-0.088000000000
12.777290296000,-0.088000000000
12.784978184000,-0.086000000000
12.792666072000,-0.086000000000
12.800353960000,-0.086000000000
12.808041848000,-0.091000000000
12.815729736000,-0.088000000000
12.823417624000,-0.081000000000
12.831105512000,-0.078000000000
12.838793400000,-0.088000000000
12.846481288000,-0.096000000000
12.854169176000,-0.091000000000
12.861857090000,-0.081000000000
12.869545117000,-0.066000000000
12.877233144000,-0.059000000000
12.884921171000,-0.056000000000
12.892609198000,-0.044000000000
12.900297225000,-0.034000000000
12.907985252000,-0.046000000000
12.915673279000,-0.064000000000
12.923361306000,-0.066000000000
12.931049333000,-0.066000000000
12.938737360000,-0.069000000000
12.946425387000,-0.066000000000
12.954113414000,-0.061000000000
12.961801441000,-0.066000000000
12.969489468000,-0.086000000000
12.977177495000,-0.101000000000
12.984865522000,0.041000000000
12.992553549000,0.480000000000
13.000241576000,0.850000000000
13.007929603000,0.569000000000
13.015617630000,-0.143000000000
13.023305657000,-0.446000000000
13.030993684000,-0.266000000000
13.038681711000,-0.172000000000
13.046369738000,-0.194000000000
13.054057765000,-0.106000000000
13.061745792000,-0.041000000000
13.069433819000,-0.061000000000
13.077121846000,-0.051000000000
13.084809873000,-0.027000000000
13.092497900000,-0.027000000000
13.100185927000,-0.027000000000
13.107873954000,-0.014000000000
13.115561981000,-0.007000000000
13.123250008000,-0.004000000000
13.130938035000,0.000000000000
13.138626062000,0.007000000000
13.146314089000,0.017000000000
13.154002116000,0.024000000000
13.161690143000,0.024000000000
13.169378170000,0.029000000000
13.177066197000,0.046000000000
13.184754224000,0.061000000000
13.192442251000,0.071000000000
13.200130278000,0.086000000000
13.207818305000,0.103000000000
13.215506332000,0.120000000000
13.223194359000,0.143000000000
13.230882386000,0.160000000000
13.238570413000,0.167000000000
13.246258440000,0.177000000000
13.253946467000,0.189000000000
13.261634494000,0.189000000000
13.269322521000,0.175000000000
13.277010548000,0.140000000000
13.284698575000,0.093000000000
13.292386602000,0.049000000000
13.300074629000,0.002000000000
13.307762656000,-0.044000000000
13.315450683000,-0.088000000000
13.323138710000,-0.103000000000
13.330826737000,-0.098000000000
13.338514764000,-0.103000000000
13.346202791000,-0.113000000000
13.353890818000,-0.106000000000
13.361578845000,-0.098000000000
13.369266872000,-0.101000000000
13.376954899000,-0.096000000000
13.384642926000,-0.083000000000
13.392330953000,-0.081000000000
13.400018980000,-0.083000000000
13.407707007000,-0.073000000000
13.415395034000,-0.071000000000
13.423083110000,-0.073000000000
13.430770719000,-0.069000000000
13.438458328000,-0.064000000000
13.446145937000,-0.059000000000
13.453833546000,-0.056000000000
13.461521155000,-0.061000000000
13.469208764000,-0.066000000000
13.476896373000,-0.064000000000
13.484583982000,-0.059000000000
13.492271591000,-0.064000000000
13.499959200000,-0.064000000000
13.507646809000,-0.054000000000
13.515334418000,-0.051000000000
13.523022027000,-0.059000000000
13.530709636000,-0.064000000000
13.538397245000,-0.066000000000
13.546084854000,-0.066000000000
13.553772463000,-0.069000000000
13.561460072000,-0.061000000000
13.569147681000,-0.046000000000
13.576835290000,-0.032000000000
13.584522899000,-0.024000000000
13.592210508000,-0.014000000000
13.599898117000,-0.014000000000
13.607585726000,-0.034000000000
13.615273335000,-0.041000000000
13.622960944000,-0.036000000000
13.630648553000,-0.039000000000
13.638336162000,-0.044000000000
13.646023771000,-0.044000000000
13.653711380000,-0.041000000000
13.661398989000,-0.041000000000
13.669086598000,-0.064000000000
13.676774207000,-0.081000000000
13.684461816000,0.083000000000
13.692149425000,0.527000000000
13.699837034000,0.850000000000
13.707524643000,0.507000000000
13.715212252000,-0.192000000000
13.722899861000,-0.436000000000
13.730587470000,-0.239000000000
13.738275079000,-0.165000000000
13.745962688000,-0.182000000000
13.753650297000,-0.081000000000
13.761337906000,-0.022000000000
13.769025515000,-0.046000000000
13.776713124000,-0.034000000000
13.784400733000,-0.009000000000
13.792088342000,-0.017000000000
13.799775951000,-0.019000000000
13.807463560000,-0.009000000000
13.815151169000,-0.007000000000
13.822838778000,0.000000000000
13.830526387000,0.014000000000
13.838213996000,0.014000000000
13.845901605000,0.014000000000
13.853589214000,0.022000000000
13.861276823000,0.032000000000
13.868964432000,0.039000000000
13.876652041000,0.046000000000
13.884339650000,0.049000000000
13.892027259000,0.064000000000
13.899714868000,0.086000000000
13.907402477000,0.103000000000
13.915090086000,0.118000000000
13.922777695000,0.140000000000
13.930465304000,0.152000000000
13.938152913000,0.162000000000
13.945840522000,0.167000000000
13.953528131000,0.170000000000
13.961215740000,0.167000000000
13.968903349000,0.147000000000
13.976590958000,0.118000000000
13.984278612000,0.078000000000
13.991966639000,0.019000000000
13.999654666000,-0.034000000000
14.007342693000,-0.071000000000
14.015030720000,-0.106000000000
14.022718747000,-0.133000000000
14.030406774000,-0.143000000000
14.038094801000,-0.143000000000
14.045782828000,-0.143000000000
14.053470855000,-0.143000000000
14.061158882000,-0.138000000000
14.068846909000,-0.133000000000
14.076534936000,-0.128000000000
14.084222963000,-0.123000000000
14.091910990000,-0.113000000000
14.099599017000,-0.106000000000
14.107287044000,-0.108000000000
14.114975071000,-0.108000000000
14.122663098000,-0.106000000000
14.130351125000,-0.101000000000
14.138039152000,-0.101000000000
14.145727179000,-0.103000000000
14.153415206000,-0.101000000000
14.161103233000,-0.093000000000
14.168791260000,-0.098000000000
14.176479287000,-0.103000000000
14.184167314000,-0.103000000000
14.191855341000,-0.106000000000
14.199543368000,-0.103000000000
14.207231395000,-0.101000000000
14.214919422000,-0.110000000000
14.222607449000,-0.123000000000
14.230295476000,-0.123000000000
14.237983503000,-0.115000000000
14.245671530000,-0.103000000000
14.253359557000,-0.093000000000
14.261047584000,-0.081000000000
14.268735611000,-0.066000000000
14.276423638000,-0.066000000000
14.284111665000,-0.086000000000
14.291799692000,-0.096000000000
14.299487719000,-0.091000000000
14.307175746000,-0.091000000000
14.314863773000,-0.086000000000
14.322551800000,-0.083000000000
14.330239827000,-0.093000000000
14.337927854000,-0.103000000000
14.345615881000,-0.108000000000
14.353303908000,-0.113000000000
14.360991935000,0.002000000000
14.368679962000,0.394000000000
14.376367989000,0.784000000000
14.384056016000,0.554000000000
14.391744043000,-0.170000000000
14.399432070000,-0.517000000000
14.407120097000,-0.325000000000
14.414808124000,-0.209000000000
14.422496151000,-0.239000000000
14.430184178000,-0.145000000000
14.437872205000,-0.066000000000
14.445560232000,-0.096000000000
14.453248259000,-0.088000000000
14.460936286000,-0.051000000000
14.468624313000,-0.059000000000
14.476312340000,-0.064000000000
14.484000367000,-0.049000000000
14.491688394000,-0.039000000000
14.499376421000,-0.032000000000
14.507064448000,-0.032000000000
14.514752475000,-0.034000000000
14.522440502000,-0.024000000000
14.530128529000,-0.009000000000
14.537816556000,-0.004000000000
14.545504632000,-0.002000000000
14.553192450000,0.009000000000
14.560880268000,0.019000000000
14.568568086000,0.032000000000
14.576255904000,0.059000000000
14.583943722000,0.073000000000
14.591631540000,0.076000000000
14.599319358000,0.093000000000
14.607007176000,0.123000000000
14.614694994000,0.140000000000
14.622382812000,0.140000000000
14.630070630000,0.135000000000
14.637758448000,0.135000000000
14.645446266000,0.125000000000
14.653134084000,0.093000000000
14.660821902000,0.041000000000
14.668509720000,-0.017000000000
14.676197538000,-0.064000000000
14.683885356000,-0.101000000000
14.691573174000,-0.135000000000
14.699260992000,-0.167000000000
14.706948810000,-0.177000000000
14.714636628000,-0.172000000000
14.722324446000,-0.170000000000
14.730012264000,-0.170000000000
14.737700082000,-0.167000000000
14.745387900000,-0.165000000000
14.753075718000,-0.155000000000
14.760763536000,-0.140000000000
14.768451354000,-0.133000000000
14.776139172000,-0.138000000000
14.783826990000,-0.135000000000
14.791514808000,-0.128000000000
14.799202626000,-0.118000000000
14.806890444000,-0.115000000000
14.814578262000,-0.118000000000
14.822266080000,-0.113000000000
14.829953898000,-0.108000000000
14.837641716000,-0.115000000000
14.845329534000,-0.123000000000
14.853017352000,-0.123000000000
14.860705170000,-0.120000000000
14.868392988000,-0.120000000000
14.876080806000,-0.128000000000
14.883768624000,-0.128000000000
14.891456442000,-0.125000000000
14.899144260000,-0.128000000000
14.906832078000,-0.123000000000
14.914519896000,-0.110000000000
14.922207714000,-0.106000000000
14.929895532000,-0.093000000000
14.937583350000,-0.078000000000
14.945271168000,-0.093000000000
14.952958986000,-0.110000000000
14.960646804000,-0.113000000000
14.968334622000,-0.108000000000
14.976022440000,-0.106000000000
14.983710258000,-0.103000000000
14.991398076000,-0.098000000000
14.999085894000,-0.103000000000
15.006773712000,-0.120000000000
15.014461530000,-0.108000000000
15.022149348000,0.101000000000
15.029837166000,0.559000000000
15.037524984000,0.764000000000
15.045212802000,0.244000000000
15.052900620000,-0.441000000000
15.060588438000,-0.522000000000
15.068276256000,-0.286000000000
15.075964074000,-0.249000000000
15.083651892000,-0.244000000000
15.091339710000,-0.118000000000
15.099027528000,-0.071000000000
15.106715391000,-0.101000000000
15.114403348000,-0.081000000000
15.122091305000,-0.051000000000
15.129779262000,-0.049000000000
15.137467219000,-0.039000000000
15.145155176000,-0.036000000000
15.152843133000,-0.044000000000
15.160531090000,-0.036000000000
15.168219047000,-0.027000000000
15.175907004000,-0.024000000000
15.183594961000,-0.004000000000
15.191282918000,0.002000000000
15.198970875000,0.000000000000
15.206658832000,0.012000000000
15.214346789000,0.032000000000
15.222034746000,0.054000000000
15.229722703000,0.071000000000
15.237410660000,0.078000000000
15.245098617000,0.096000000000
15.252786574000,0.120000000000
15.260474531000,0.135000000000
15.268162488000,0.143000000000
15.275850445000,0.152000000000
15.283538402000,0.165000000000
15.291226359000,0.170000000000
15.298914316000,0.162000000000
15.306602273000,0.133000000000
15.314290230000,0.078000000000
15.321978187000,0.024000000000
15.329666144000,-0.022000000000
15.337354101000,-0.076000000000
15.345042058000,-0.128000000000
15.352730015000,-0.147000000000
15.360417972000,-0.157000000000
15.368105929000,-0.170000000000
15.375793886000,-0.172000000000
15.383481843000,-0.175000000000
15.391169800000,-0.175000000000
15.398857757000,-0.167000000000
15.406545714000,-0.157000000000
15.414233671000,-0.147000000000
15.421921628000,-0.140000000000
15.429609585000,-0.138000000000
15.437297542000,-0.135000000000
15.444985499000,-0.125000000000
15.452673456000,-0.113000000000
15.460361413000,-0.103000000000
15.468049370000,-0.108000000000
15.475737327000,-0.110000000000
15.483425284000,-0.103000000000
15.491113241000,-0.103000000000
15.498801198000,-0.113000000000
15.506489155000,-0.118000000000
15.514177112000,-0.118000000000
15.521865069000,-0.120000000000
15.529553026000,-0.118000000000
15.537240983000,-0.113000000000
15.544928940000,-0.115000000000
15.552616897000,-0.113000000000
15.560304854000,-0.103000000000
15.567992811000,-0.103000000000
15.575680768000,-0.098000000000
15.583368725000,-0.083000000000
15.591056682000,-0.086000000000
15.598744639000,-0.098000000000
15.606432596000,-0.098000000000
15.614120553000,-0.101000000000
15.621808510000,-0.098000000000
15.629496467000,-0.093000000000
15.637184424000,-0.098000000000
15.644872381000,-0.103000000000
15.652560338000,-0.125000000000
15.660248295000,-0.123000000000
15.667936324000,0.101000000000
15.675624212000,0.589000000000
15.683312100000,0.803000000000
15.690999988000,0.281000000000
15.698687876000,-0.419000000000
15.706375764000,-0.512000000000
15.714063652000,-0.271000000000
15.721751540000,-0.236000000000
15.729439428000,-0.239000000000
15.737127316000,-0.113000000000
15.744815204000,-0.059000000000
15.752503092000,-0.091000000000
15.760190980000,-0.078000000000
15.767878868000,-0.056000000000
15.775566756000,-0.056000000000
15.783254644000,-0.041000000000
15.790942532000,-0.036000000000
15.798630420000,-0.046000000000
15.806318308000,-0.039000000000
15.814006196000,-0.024000000000
15.821694084000,-0.019000000000
15.829381972000,-0.014000000000
15.837069860000,-0.009000000000
15.844757748000,-0.002000000000
15.852445636000,0.007000000000
15.860133524000,0.012000000000
15.867821412000,0.019000000000
15.875509300000,0.034000000000
15.883197188000,0.054000000000
15.890885076000,0.071000000000
15.898572964000,0.086000000000
15.906260852000,0.106000000000
15.913948740000,0.120000000000
15.921636628000,0.128000000000
15.929324516000,0.135000000000
15.937012404000,0.135000000000
15.944700292000,0.130000000000
15.952388180000,0.108000000000
15.960076068000,0.071000000000
15.967763956000,0.022000000000
15.975451844000,-0.034000000000
15.983139732000,-0.086000000000
15.990827620000,-0.118000000000
15.998515508000,-0.138000000000
16.006203396000,-0.150000000000
16.013891284000,-0.150000000000
16.021579172000,-0.155000000000
16.029267060000,-0.160000000000
16.036954948000,-0.155000000000
16.044642836000,-0.147000000000
16.052330724000,-0.143000000000
16.060018612000,-0.135000000000
16.067706500000,-0.133000000000
16.075394388000,-0.138000000000
16.083082276000,-0.130000000000
16.090770164000,-0.115000000000
16.098458052000,-0.115000000000
16.106145940000,-0.115000000000
16.113833828000,-0.108000000000
16.121521716000,-0.106000000000
16.129209604000,-0.110000000000
16.136897492000,-0.106000000000
16.144585380000,-0.103000000000
16.152273268000,-0.110000000000
16.159961156000,-0.115000000000
16.167649044000,-0.110000000000
16.175336932000,-0.108000000000
16.183024820000,-0.113000000000
16.190712708000,-0.110000000000
16.198400596000,-0.103000000000
16.206088484000,-0.110000000000
16.213776372000,-0.115000000000
16.221464260000,-0.118000000000
16.229152174000,-0.123000000000
16.236840201000,-0.113000000000
16.244528228000,-0.091000000000
16.252216255000,-0.081000000000
16.259904282000,-0.076000000000
16.267592309000,-0.064000000000
16.275280336000,-0.061000000000
16.282968363000,-0.081000000000
16.290656390000,-0.096000000000
16.298344417000,-0.091000000000
16.306032444000,-0.088000000000
16.313720471000,-0.096000000000
16.321408498000,-0.096000000000
16.329096525000,-0.083000000000
16.336784552000,-0.083000000000
16.344472579000,-0.115000000000
16.352160606000,-0.113000000000
16.359848633000,0.115000000000
16.367536660000,0.599000000000
16.375224687000,0.843000000000
16.382912714000,0.414000000000
16.390600741000,-0.253000000000
16.398288768000,-0.411000000000
16.405976795000,-0.219000000000
16.413664822000,-0.189000000000
16.421352849000,-0.199000000000
16.429040876000,-0.103000000000
16.436728903000,-0.086000000000
16.444416930000,-0.118000000000
16.452104957000,-0.093000000000
16.459792984000,-0.069000000000
16.467481011000,-0.069000000000
16.475169038000,-0.061000000000
16.482857065000,-0.054000000000
16.490545092000,-0.051000000000
16.498233119000,-0.046000000000
16.505921146000,-0.046000000000
16.513609173000,-0.046000000000
16.521297200000,-0.039000000000
16.528985227000,-0.029000000000
16.536673254000,-0.019000000000
16.544361281000,-0.014000000000
16.552049308000,-0.007000000000
16.559737335000,0.002000000000
16.567425362000,0.014000000000
16.575113389000,0.029000000000
16.582801416000,0.041000000000
16.590489443000,0.054000000000
16.598177470000,0.069000000000
16.605865497000,0.091000000000
16.613553524000,0.106000000000
16.621241551000,0.110000000000
16.628929578000,0.118000000000
16.636617605000,0.123000000000
16.644305632000,0.106000000000
16.651993659000,0.073000000000
16.659681686000,0.034000000000
16.667369713000,-0.012000000000
16.675057740000,-0.059000000000
16.682745767000,-0.091000000000
16.690433794000,-0.110000000000
16.698121821000,-0.128000000000
16.705809848000,-0.140000000000
16.713497875000,-0.140000000000
16.721185902000,-0.138000000000
16.728873929000,-0.133000000000
16.736561956000,-0.128000000000
16.744249983000,-0.128000000000
16.751938010000,-0.128000000000
16.759626037000,-0.118000000000
16.767314064000,-0.110000000000
16.775002091000,-0.113000000000
16.782690118000,-0.106000000000
16.790378194000,-0.103000000000
16.798065803000,-0.115000000000
16.805753412000,-0.118000000000
16.813441021000,-0.108000000000
16.821128630000,-0.108000000000
16.828816239000,-0.110000000000
16.836503848000,-0.110000000000
16.844191457000,-0.108000000000
16.851879066000,-0.106000000000
16.859566675000,-0.106000000000
16.867254284000,-0.108000000000
16.874941893000,-0.103000000000
16.882629502000,-0.103000000000
16.890317111000,-0.108000000000
16.898004720000,-0.103000000000
16.905692329000,-0.098000000000
16.913379938000,-0.103000000000
16.921067547000,-0.103000000000
16.928755156000,-0.098000000000
16.936442765000,-0.093000000000
16.944130374000,-0.093000000000
16.951817983000,-0.091000000000
16.959505592000,-0.091000000000
16.967193201000,-0.091000000000
16.974880810000,-0.088000000000
16.982568419000,-0.081000000000
16.990256028000,-0.078000000000
16.997943637000,-0.078000000000
17.005631246000,-0.076000000000
17.013318855000,-0.073000000000
17.021006464000,-0.076000000000
17.028694073000,-0.086000000000
17.036381682000,-0.088000000000
17.044069291000,-0.086000000000
17.051756900000,-0.076000000000
17.059444509000,-0.071000000000
17.067132118000,-0.064000000000
17.074819727000,-0.051000000000
17.082507336000,-0.039000000000
17.090194945000,-0.036000000000
17.097882554000,-0.044000000000
17.105570163000,-0.059000000000
17.113257772000,-0.066000000000
17.120945381000,-0.066000000000
17.128632990000,-0.071000000000
17.136320599000,-0.066000000000
17.144008208000,-0.059000000000
17.151695817000,-0.064000000000
17.159383426000,-0.081000000000
17.167071035000,-0.103000000000
17.174758644000,-0.032000000000
17.182446253000,0.327000000000
17.190133862000,0.793000000000
17.197821471000,0.761000000000
17.205509080000,0.123000000000
17.213196689000,-0.364000000000
17.220884298000,-0.295000000000
17.228571907000,-0.160000000000
17.236259516000,-0.194000000000
17.243947125000,-0.150000000000
17.251634734000,-0.066000000000
17.259322343000,-0.078000000000
17.267009952000,-0.091000000000
17.274697561000,-0.064000000000
17.282385170000,-0.056000000000
17.290072779000,-0.061000000000
17.297760388000,-0.051000000000
17.305447997000,-0.044000000000
17.313135606000,-0.039000000000
17.320823215000,-0.034000000000
17.328510824000,-0.024000000000
17.336198433000,-0.022000000000
17.343886042000,-0.024000000000
17.351573696000,-0.019000000000
17.359261723000,-0.012000000000
17.366949750000,-0.007000000000
17.374637777000,0.002000000000
17.382325804000,0.014000000000
17.390013831000,0.027000000000
17.397701858000,0.034000000000
17.405389885000,0.046000000000
17.413077912000,0.066000000000
17.420765939000,0.078000000000
17.428453966000,0.088000000000
17.436141993000,0.103000000000
17.443830020000,0.115000000000
17.451518047000,0.123000000000
17.459206074000,0.125000000000
17.466894101000,0.113000000000
17.474582128000,0.086000000000
17.482270155000,0.051000000000
17.489958182000,0.012000000000
17.497646209000,-0.024000000000
17.505334236000,-0.061000000000
17.513022263000,-0.098000000000
17.520710290000,-0.118000000000
17.528398317000,-0.118000000000
17.536086344000,-0.123000000000
17.543774371000,-0.128000000000
17.551462398000,-0.120000000000
17.559150425000,-0.118000000000
17.566838452000,-0.118000000000
17.574526479000,-0.113000000000
17.582214506000,-0.106000000000
17.589902533000,-0.108000000000
17.597590560000,-0.110000000000
17.605278587000,-0.103000000000
17.612966614000,-0.098000000000
17.620654641000,-0.101000000000
17.628342668000,-0.101000000000
17.636030695000,-0.103000000000
17.643718722000,-0.106000000000
17.651406749000,-0.106000000000
17.659094776000,-0.101000000000
17.666782803000,-0.101000000000
17.674470830000,-0.103000000000
17.682158857000,-0.101000000000
17.689846884000,-0.093000000000
17.697534911000,-0.093000000000
17.705222938000,-0.096000000000
17.712910965000,-0.101000000000
17.720598992000,-0.096000000000
17.728287019000,-0.088000000000
17.735975046000,-0.088000000000
17.743663073000,-0.088000000000
17.751351100000,-0.083000000000
17.759039127000,-0.081000000000
17.766727154000,-0.081000000000
17.774415181000,-0.078000000000
17.782103208000,-0.078000000000
17.789791235000,-0.078000000000
17.797479262000,-0.076000000000
17.805167289000,-0.069000000000
17.812855316000,-0.066000000000
17.820543343000,-0.069000000000
17.828231370000,-0.069000000000
17.835919397000,-0.069000000000
17.843607424000,-0.066000000000
17.851295451000,-0.064000000000
17.858983478000,-0.061000000000
17.866671505000,-0.059000000000
17.874359532000,-0.059000000000
17.882047559000,-0.061000000000
17.889735586000,-0.056000000000
17.897423613000,-0.056000000000
17.905111640000,-0.061000000000
17.912799716000,-0.056000000000
17.920487743000,-0.056000000000
17.928175770000,-0.056000000000
17.935863797000,-0.054000000000
17.943551824000,-0.059000000000
17.951239851000,-0.066000000000
17.958927878000,-0.071000000000
17.966615905000,-0.069000000000
17.974303932000,-0.059000000000
17.981991959000,-0.051000000000
17.989679986000,-0.046000000000
17.997368013000,-0.036000000000
18.005056040000,-0.024000000000
18.012744067000,-0.022000000000
18.020432094000,-0.032000000000
18.028120121000,-0.041000000000
18.035808148000,-0.051000000000
18.043496175000,-0.064000000000
18.051184202000,-0.056000000000
18.058872229000,-0.044000000000
18.066560256000,-0.049000000000
18.074248283000,-0.059000000000
18.081936310000,-0.091000000000
18.089624337000,-0.083000000000
18.097312364000,0.177000000000
18.105000391000,0.670000000000
18.112688418000,0.858000000000
18.120376445000,0.374000000000
18.128064472000,-0.249000000000
18.135752499000,-0.355000000000
18.143440526000,-0.187000000000
18.151128553000,-0.180000000000
18.158816580000,-0.172000000000
18.166504607000,-0.086000000000
18.174192634000,-0.076000000000
18.181880661000,-0.093000000000
18.189568688000,-0.069000000000
18.197256715000,-0.056000000000
18.204944742000,-0.061000000000
18.212632769000,-0.049000000000
18.220320796000,-0.041000000000
18.228008823000,-0.041000000000
18.235696850000,-0.036000000000
18.243384877000,-0.029000000000
18.251072904000,-0.027000000000
18.258760931000,-0.024000000000
18.266448958000,-0.022000000000
18.274136985000,-0.019000000000
18.281825012000,-0.012000000000
18.289513039000,-0.002000000000
18.297201066000,0.004000000000
18.304889093000,0.019000000000
18.312577120000,0.032000000000
18.320265147000,0.039000000000
18.327953174000,0.054000000000
18.335641201000,0.073000000000
18.343329228000,0.081000000000
18.351017255000,0.091000000000
18.358705282000,0.110000000000
18.366393309000,0.115000000000
18.374081336000,0.110000000000
18.381769363000,0.106000000000
18.389457390000,0.096000000000
18.397145417000,0.071000000000
18.404833444000,0.039000000000
18.412521471000,0.000000000000
18.420209498000,-0.044000000000
18.427897525000,-0.076000000000
18.435585552000,-0.098000000000
18.443273579000,-0.118000000000
18.450961606000,-0.130000000000
18.458649633000,-0.128000000000
18.466337660000,-0.120000000000
18.474025736000,-0.118000000000
18.481713763000,-0.113000000000
18.489401790000,-0.108000000000
18.497089817000,-0.110000000000
18.504777844000,-0.108000000000
18.512465871000,-0.101000000000
18.520153898000,-0.101000000000
18.527841925000,-0.103000000000
18.535529952000,-0.103000000000
18.543217979000,-0.101000000000
18.550906006000,-0.091000000000
18.558594033000,-0.091000000000
18.566282060000,-0.098000000000
18.573970087000,-0.101000000000
18.581658114000,-0.098000000000
18.589346141000,-0.101000000000
18.597034168000,-0.098000000000
18.604722195000,-0.103000000000
18.612410222000,-0.106000000000
18.620098249000,-0.103000000000
18.627786276000,-0.098000000000
18.635474303000,-0.096000000000
18.643162330000,-0.091000000000
18.650850357000,-0.091000000000
18.658538384000,-0.096000000000
18.666226411000,-0.096000000000
18.673914438000,-0.091000000000
18.681602465000,-0.086000000000
18.689290492000,-0.081000000000
18.696978519000,-0.086000000000
18.704666546000,-0.096000000000
18.712354573000,-0.088000000000
18.720042600000,-0.073000000000
18.727730627000,-0.071000000000
18.735418654000,-0.078000000000
18.743106681000,-0.078000000000
18.750794708000,-0.071000000000
18.758482735000,-0.061000000000
18.766170762000,-0.066000000000
18.773858789000,-0.076000000000
18.781546816000,-0.076000000000
18.789234843000,-0.066000000000
18.796922870000,-0.069000000000
18.804610897000,-0.076000000000
18.812298924000,-0.069000000000
18.819986951000,-0.056000000000
18.827674978000,-0.061000000000
18.835363005000,-0.071000000000
18.843051032000,-0.076000000000
18.850739059000,-0.071000000000
18.858427086000,-0.061000000000
18.866115113000,-0.056000000000
18.873803140000,-0.059000000000
18.881491167000,-0.064000000000
18.889179194000,-0.071000000000
18.896867221000,-0.061000000000
18.904555248000,-0.044000000000
18.912243275000,-0.039000000000
18.919931302000,-0.036000000000
18.927619329000,-0.032000000000
18.935307356000,-0.027000000000
18.942995383000,-0.044000000000
18.950683410000,-0.064000000000
18.958371437000,-0.064000000000
18.966059464000,-0.061000000000
18.973747491000,-0.054000000000
18.981435518000,-0.046000000000
18.989123545000,-0.054000000000
18.996811572000,-0.069000000000
19.004499599000,-0.078000000000
19.012187626000,0.041000000000
19.019875653000,0.451000000000
19.027563680000,0.808000000000
19.035251756000,0.505000000000
19.042939435000,-0.229000000000
19.050627114000,-0.522000000000
19.058314793000,-0.318000000000
19.066002472000,-0.209000000000
19.073690151000,-0.224000000000
19.081377830000,-0.133000000000
19.089065509000,-0.059000000000
19.096753188000,-0.066000000000
19.104440867000,-0.051000000000
19.112128546000,-0.024000000000
19.119816225000,-0.032000000000
19.127503904000,-0.034000000000
19.135191583000,-0.014000000000
19.142879262000,-0.009000000000
19.150566941000,-0.012000000000
19.158254620000,-0.004000000000
19.165942299000,0.007000000000
19.173629978000,0.022000000000
19.181317657000,0.027000000000
19.189005336000,0.022000000000
19.196693015000,0.032000000000
19.204380694000,0.049000000000
19.212068373000,0.051000000000
19.219756052000,0.061000000000
19.227443731000,0.078000000000
19.235131410000,0.088000000000
19.242819089000,0.106000000000
19.250506768000,0.128000000000
19.258194447000,0.145000000000
19.265882126000,0.150000000000
19.273569805000,0.147000000000
19.281257484000,0.150000000000
19.288945163000,0.155000000000
19.296632842000,0.145000000000
19.304320521000,0.125000000000
19.312008200000,0.098000000000
19.319695879000,0.061000000000
19.327383558000,0.014000000000
19.335071237000,-0.029000000000
19.342758916000,-0.061000000000
19.350446595000,-0.096000000000
19.358134274000,-0.123000000000
19.365821953000,-0.130000000000
19.373509632000,-0.133000000000
19.381197311000,-0.138000000000
19.388884990000,-0.135000000000
19.396572669000,-0.128000000000
19.404260348000,-0.120000000000
19.411948027000,-0.113000000000
19.419635706000,-0.106000000000
19.427323385000,-0.098000000000
19.435011064000,-0.088000000000
19.442698743000,-0.081000000000
19.450386422000,-0.078000000000
19.458074101000,-0.081000000000
19.465761780000,-0.078000000000
19.473449459000,-0.078000000000
19.481137138000,-0.083000000000
19.488824817000,-0.081000000000
19.496512496000,-0.071000000000
19.504200175000,-0.071000000000
19.511887854000,-0.083000000000
19.519575533000,-0.083000000000
19.527263212000,-0.076000000000
19.534950891000,-0.078000000000
19.542638570000,-0.086000000000
19.550326249000,-0.088000000000
19.558013928000,-0.081000000000
19.565701607000,-0.078000000000
19.573389286000,-0.076000000000
19.581076965000,-0.069000000000
19.588764644000,-0.066000000000
19.596452341000,-0.071000000000
19.604140298000,-0.073000000000
19.611828255000,-0.071000000000
19.619516212000,-0.069000000000
19.627204169000,-0.064000000000
19.634892126000,-0.061000000000
19.642580083000,-0.059000000000
19.650268040000,-0.051000000000
19.657955997000,-0.051000000000
19.665643954000,-0.056000000000
19.673331911000,-0.059000000000
19.681019868000,-0.066000000000
19.688707825000,-0.064000000000
19.696395782000,-0.049000000000
19.704083739000,-0.046000000000
19.711771696000,-0.049000000000
19.719459653000,-0.039000000000
19.727147610000,-0.029000000000
19.734835567000,-0.022000000000
19.742523524000,-0.012000000000
19.750211481000,-0.014000000000
19.757899438000,-0.022000000000
19.765587395000,-0.032000000000
19.773275352000,-0.041000000000
19.780963309000,-0.044000000000
19.788651266000,-0.036000000000
19.796339223000,-0.027000000000
19.804027180000,-0.027000000000
19.811715137000,-0.046000000000
19.819403094000,-0.076000000000
19.827091051000,0.029000000000
19.834779008000,0.424000000000
19.842466965000,0.830000000000
19.850154922000,0.665000000000
19.857842879000,-0.012000000000
19.865530836000,-0.409000000000
19.873218793000,-0.278000000000
19.880906750000,-0.160000000000
19.888594707000,-0.184000000000
19.896282664000,-0.106000000000
19.903970621000,-0.019000000000
19.911658578000,-0.039000000000
19.919346535000,-0.046000000000
19.927034492000,-0.017000000000
19.934722449000,-0.012000000000
19.942410406000,-0.012000000000
19.950098363000,0.000000000000
19.957786320000,0.007000000000
19.965474277000,0.000000000000
19.973162234000,0.000000000000
19.980850191000,0.014000000000
19.988538148000,0.022000000000
19.996226105000,0.019000000000
20.003914062000,0.022000000000
20.011602019000,0.027000000000
20.019289976000,0.036000000000
20.026977933000,0.054000000000
20.034665890000,0.061000000000
20.042353847000,0.064000000000
20.050041804000,0.081000000000
20.057729761000,0.098000000000
20.065417718000,0.101000000000
20.073105675000,0.110000000000
20.080793632000,0.123000000000
20.088481589000,0.130000000000
20.096169546000,0.140000000000
20.103857503000,0.150000000000
20.111545460000,0.147000000000
20.119233417000,0.130000000000
20.126921374000,0.098000000000
20.134609331000,0.056000000000
20.142297288000,0.012000000000
20.149985245000,-0.027000000000
20.157673274000,-0.061000000000
20.165361301000,-0.088000000000
20.173049328000,-0.106000000000
20.180737355000,-0.115000000000
20.188425382000,-0.113000000000
20.196113409000,-0.108000000000
20.203801436000,-0.108000000000
20.211489463000,-0.106000000000
20.219177490000,-0.096000000000
20.226865517000,-0.098000000000
20.234553544000,-0.103000000000
20.242241571000,-0.091000000000
20.249929598000,-0.081000000000
20.257617625000,-0.083000000000
20.265305652000,-0.083000000000
20.272993679000,-0.076000000000
20.280681706000,-0.071000000000
20.288369733000,-0.069000000000
20.296057760000,-0.076000000000
20.303745787000,-0.078000000000
20.311433814000,-0.078000000000
20.319121841000,-0.081000000000
20.326809868000,-0.081000000000
20.334497895000,-0.078000000000
20.342185922000,-0.076000000000
20.349873949000,-0.081000000000
20.357561976000,-0.083000000000
20.365250003000,-0.073000000000
20.372938030000,-0.069000000000
20.380626057000,-0.078000000000
20.388314084000,-0.086000000000
20.396002111000,-0.076000000000
20.403690138000,-0.069000000000
20.411378165000,-0.071000000000
20.419066192000,-0.069000000000
20.426754219000,-0.066000000000
20.434442246000,-0.076000000000
20.442130273000,-0.081000000000
20.449818300000,-0.071000000000
20.457506327000,-0.056000000000
20.465194354000,-0.051000000000
20.472882381000,-0.064000000000
20.480570408000,-0.069000000000
20.488258435000,-0.064000000000
20.495946462000,-0.059000000000
20.503634489000,-0.061000000000
20.511322516000,-0.061000000000
20.519010543000,-0.054000000000
20.526698570000,-0.061000000000
20.534386597000,-0.071000000000
20.542074624000,-0.076000000000
20.549762651000,-0.071000000000
20.557450678000,-0.066000000000
20.565138705000,-0.061000000000
20.572826732000,-0.046000000000
20.580514759000,-0.032000000000
20.588202786000,-0.024000000000
20.595890813000,-0.027000000000
20.603578840000,-0.044000000000
20.611266867000,-0.059000000000
20.618954894000,-0.061000000000
20.626642921000,-0.061000000000
20.634330948000,-0.061000000000
20.642018975000,-0.054000000000
20.649707002000,-0.056000000000
20.657395029000,-0.061000000000
20.665083056000,-0.081000000000
20.672771083000,-0.083000000000
20.680459110000,0.110000000000
20.688147137000,0.572000000000
20.695835164000,0.843000000000
20.703523191000,0.468000000000
20.711211218000,-0.182000000000
20.718899298000,-0.392000000000
20.726587325000,-0.226000000000
20.734275352000,-0.177000000000
20.741963379000,-0.187000000000
20.749651406000,-0.098000000000
20.757339433000,-0.059000000000
20.765027460000,-0.091000000000
20.772715487000,-0.093000000000
20.780403514000,-0.069000000000
20.788091541000,-0.044000000000
20.795779568000,-0.034000000000
20.803467595000,-0.041000000000
20.811155622000,-0.039000000000
20.818843649000,-0.027000000000
20.826531676000,-0.032000000000
20.834219703000,-0.034000000000
20.841907730000,-0.024000000000
20.849595757000,-0.014000000000
20.857283784000,-0.007000000000
20.864971811000,-0.004000000000
20.872659838000,0.002000000000
20.880347865000,0.012000000000
20.888035892000,0.017000000000
20.895723919000,0.034000000000
20.903411946000,0.054000000000
20.911099973000,0.056000000000
20.918788000000,0.066000000000
20.926476027000,0.088000000000
20.934164054000,0.096000000000
20.941852081000,0.093000000000
20.949540108000,0.106000000000
20.957228135000,0.115000000000
20.964916162000,0.108000000000
20.972604189000,0.091000000000
20.980292216000,0.061000000000
20.987980243000,0.017000000000
20.995668270000,-0.022000000000
21.003356297000,-0.059000000000
21.011044324000,-0.096000000000
21.018732351000,-0.120000000000
21.026420378000,-0.135000000000
21.034108405000,-0.140000000000
21.041796432000,-0.140000000000
21.049484459000,-0.147000000000
21.057172486000,-0.143000000000
21.064860513000,-0.133000000000
21.072548540000,-0.128000000000
21.080236567000,-0.128000000000
21.087924594000,-0.123000000000
21.095612621000,-0.115000000000
21.103300648000,-0.115000000000
21.110988675000,-0.113000000000
21.118676702000,-0.110000000000
21.126364729000,-0.108000000000
21.134052756000,-0.110000000000
21.141740783000,-0.110000000000
21.149428810000,-0.108000000000
21.157116837000,-0.108000000000
21.164804864000,-0.108000000000
21.172492891000,-0.103000000000
21.180180918000,-0.103000000000
21.187868945000,-0.108000000000
21.195556972000,-0.108000000000
21.203244999000,-0.108000000000
21.210933026000,-0.110000000000
21.218621053000,-0.106000000000
21.226309080000,-0.098000000000
21.233997107000,-0.096000000000
21.241685134000,-0.098000000000
21.249373161000,-0.098000000000
21.257061188000,-0.093000000000
21.264749215000,-0.093000000000
21.272437242000,-0.093000000000
21.280125318000,-0.088000000000
21.287813345000,-0.088000000000
21.295501372000,-0.093000000000
21.303189399000,-0.091000000000
21.310877426000,-0.088000000000
21.318565453000,-0.091000000000
21.326253480000,-0.086000000000
21.333941507000,-0.083000000000
21.341629534000,-0.086000000000
21.349317561000,-0.081000000000
21.357005588000,-0.078000000000
21.364693615000,-0.083000000000
21.372381642000,-0.086000000000
21.380069669000,-0.076000000000
21.387757696000,-0.076000000000
21.395445723000,-0.086000000000
21.403133750000,-0.091000000000
21.410821777000,-0.083000000000
21.418509804000,-0.078000000000
21.426197831000,-0.076000000000
21.433885858000,-0.066000000000
21.441573885000,-0.061000000000
21.449261912000,-0.049000000000
21.456949939000,-0.024000000000
21.464637966000,-0.032000000000
21.472325993000,-0.064000000000
21.480014020000,-0.078000000000
21.487702047000,-0.071000000000
21.495390074000,-0.066000000000
21.503078101000,-0.066000000000
21.510766128000,-0.066000000000
21.518454155000,-0.066000000000
21.526142182000,-0.078000000000
21.533830209000,-0.103000000000
21.541518236000,-0.032000000000
21.549206263000,0.310000000000
21.556894290000,0.742000000000
21.564582317000,0.678000000000
21.572270344000,0.051000000000
21.579958371000,-0.401000000000
21.587646398000,-0.323000000000
21.595334425000,-0.180000000000
21.603022452000,-0.207000000000
21.610710479000,-0.157000000000
21.618398506000,-0.066000000000
21.626086533000,-0.069000000000
21.633774560000,-0.088000000000
21.641462587000,-0.071000000000
21.649150614000,-0.061000000000
21.656838641000,-0.061000000000
21.664526668000,-0.044000000000
21.672214695000,-0.027000000000
21.679902722000,-0.027000000000
21.687590749000,-0.032000000000
21.695278776000,-0.027000000000
21.702966803000,-0.019000000000
21.710654830000,-0.009000000000
21.718342857000,0.000000000000
21.726030884000,0.009000000000
21.733718911000,0.014000000000
21.741406938000,0.024000000000
21.749094965000,0.036000000000
21.756782992000,0.044000000000
21.764471019000,0.059000000000
21.772159046000,0.081000000000
21.779847073000,0.101000000000
21.787535100000,0.115000000000
21.795223127000,0.118000000000
21.802911154000,0.125000000000
21.810599181000,0.135000000000
21.818287208000,0.133000000000
21.825975235000,0.125000000000
21.833663262000,0.115000000000
21.841351338000,0.093000000000
21.849039086000,0.051000000000
21.856726834000,0.009000000000
21.864414582000,-0.029000000000
21.872102330000,-0.073000000000
21.879790078000,-0.108000000000
21.887477826000,-0.123000000000
21.895165574000,-0.130000000000
21.902853322000,-0.140000000000
21.910541070000,-0.152000000000
21.918228818000,-0.150000000000
21.925916566000,-0.138000000000
21.933604314000,-0.135000000000
21.941292062000,-0.130000000000
21.948979810000,-0.120000000000
21.956667558000,-0.115000000000
21.964355306000,-0.110000000000
21.972043054000,-0.108000000000
21.979730802000,-0.108000000000
21.987418550000,-0.106000000000
21.995106298000,-0.093000000000
22.002794046000,-0.086000000000
22.010481794000,-0.098000000000
22.018169542000,-0.108000000000
22.025857290000,-0.103000000000
22.033545038000,-0.103000000000
22.041232786000,-0.106000000000
22.048920534000,-0.098000000000
22.056608282000,-0.101000000000
22.064296030000,-0.106000000000
22.071983778000,-0.101000000000
22.079671526000,-0.098000000000
22.087359274000,-0.101000000000
22.095047022000,-0.098000000000
22.102734770000,-0.098000000000
22.110422518000,-0.106000000000
22.118110266000,-0.101000000000
22.125798014000,-0.086000000000
22.133485762000,-0.091000000000
22.141173510000,-0.103000000000
22.148861258000,-0.098000000000
22.156549006000,-0.088000000000
22.164236754000,-0.088000000000
22.171924502000,-0.086000000000
22.179612250000,-0.081000000000
22.187299998000,-0.081000000000
22.194987746000,-0.081000000000
22.202675494000,-0.076000000000
22.210363242000,-0.076000000000
22.218050990000,-0.083000000000
22.225738738000,-0.076000000000
22.233426486000,-0.073000000000
22.241114234000,-0.078000000000
22.248801982000,-0.078000000000
22.256489730000,-0.073000000000
22.264177478000,-0.071000000000
22.271865226000,-0.056000000000
22.279552974000,-0.049000000000
22.287240722000,-0.041000000000
22.294928470000,-0.027000000000
22.302616218000,-0.041000000000
22.310303966000,-0.073000000000
22.317991714000,-0.073000000000
22.325679462000,-0.061000000000
22.333367210000,-0.064000000000
22.341054958000,-0.066000000000
22.348742706000,-0.064000000000
22.356430454000,-0.066000000000
22.364118202000,-0.076000000000
22.371805950000,-0.066000000000
22.379493698000,0.086000000000
22.387181446000,0.495000000000
22.394869194000,0.806000000000
22.402557010000,0.429000000000
22.410244967000,-0.308000000000
22.417932924000,-0.532000000000
22.425620881000,-0.305000000000
22.433308838000,-0.231000000000
22.440996795000,-0.239000000000
22.448684752000,-0.115000000000
22.456372709000,-0.041000000000
22.464060666000,-0.061000000000
22.471748623000,-0.049000000000
22.479436580000,-0.024000000000
22.487124537000,-0.032000000000
22.494812494000,-0.024000000000
22.502500451000,-0.012000000000
22.510188408000,-0.014000000000
22.517876365000,-0.012000000000
22.525564322000,0.004000000000
22.533252279000,0.007000000000
22.540940236000,0.007000000000
22.548628193000,0.022000000000
22.556316150000,0.034000000000
22.564004107000,0.036000000000
22.571692064000,0.036000000000
22.579380021000,0.051000000000
22.587067978000,0.071000000000
22.594755935000,0.081000000000
22.602443892000,0.096000000000
22.610131849000,0.115000000000
22.617819806000,0.125000000000
22.625507763000,0.128000000000
22.633195720000,0.147000000000
22.640883677000,0.165000000000
22.648571634000,0.162000000000
22.656259591000,0.155000000000
22.663947548000,0.155000000000
22.671635505000,0.133000000000
22.679323462000,0.088000000000
22.687011419000,0.046000000000
22.694699376000,-0.002000000000
22.702387333000,-0.061000000000
22.710075290000,-0.096000000000
22.717763247000,-0.113000000000
22.725451204000,-0.135000000000
22.733139161000,-0.152000000000
22.740827118000,-0.150000000000
22.748515075000,-0.147000000000
22.756203032000,-0.147000000000
22.763890989000,-0.143000000000
22.771578946000,-0.133000000000
22.779266903000,-0.125000000000
22.786954860000,-0.118000000000
22.794642817000,-0.113000000000
22.802330774000,-0.101000000000
22.810018731000,-0.091000000000
22.817706688000,-0.096000000000
22.825394645000,-0.103000000000
22.833082602000,-0.091000000000
22.840770559000,-0.083000000000
22.848458516000,-0.091000000000
22.856146473000,-0.093000000000
22.863834430000,-0.091000000000
22.871522387000,-0.098000000000
22.879210344000,-0.098000000000
22.886898301000,-0.088000000000
22.894586258000,-0.091000000000
22.902274215000,-0.096000000000
22.909962172000,-0.091000000000
22.917650129000,-0.086000000000
22.925338086000,-0.091000000000
22.933026043000,-0.093000000000
22.940714000000,-0.086000000000
22.948401957000,-0.081000000000
22.956089914000,-0.086000000000
22.963777943000,-0.088000000000
22.971465900000,-0.081000000000
22.979153857000,-0.078000000000
22.986841814000,-0.083000000000
22.994529771000,-0.083000000000
23.002217728000,-0.073000000000
23.009905685000,-0.071000000000
23.017593642000,-0.078000000000
23.025281599000,-0.076000000000
23.032969556000,-0.069000000000
23.040657513000,-0.069000000000
23.048345470000,-0.069000000000
23.056033427000,-0.073000000000
23.063721384000,-0.073000000000
23.071409341000,-0.069000000000
23.079097298000,-0.061000000000
23.086785255000,-0.066000000000
23.094473212000,-0.076000000000
23.102161169000,-0.076000000000
23.109849126000,-0.069000000000
23.117537083000,-0.066000000000
23.125225040000,-0.066000000000
23.132912997000,-0.059000000000
23.140600954000,-0.051000000000
23.148288911000,-0.039000000000
23.155976868000,-0.022000000000
23.163664825000,-0.032000000000
23.171352782000,-0.054000000000
23.179040739000,-0.054000000000
23.186728696000,-0.051000000000
23.194416653000,-0.059000000000
23.202104610000,-0.061000000000
23.209792567000,-0.051000000000
23.217480524000,-0.046000000000
23.225168481000,-0.071000000000
23.232856438000,-0.103000000000
23.240544395000,-0.002000000000
23.248232352000,0.404000000000
23.255920309000,0.833000000000
23.263608266000,0.702000000000
23.271296223000,0.049000000000
23.278984180000,-0.372000000000
23.286672137000,-0.281000000000
23.294360094000,-0.162000000000
23.302048051000,-0.182000000000
23.309736008000,-0.128000000000
23.317423965000,-0.071000000000
23.325111922000,-0.088000000000
23.332799879000,-0.081000000000
23.340487836000,-0.051000000000
23.348175793000,-0.049000000000
23.355863750000,-0.046000000000
23.363551707000,-0.034000000000
23.371239664000,-0.036000000000
23.378927621000,-0.041000000000
23.386615578000,-0.027000000000
23.394303535000,-0.012000000000
23.401991492000,-0.014000000000
23.409679449000,-0.017000000000
23.417367406000,-0.007000000000
23.425055363000,0.002000000000
23.432743320000,0.004000000000
23.440431277000,0.012000000000
23.448119234000,0.019000000000
23.455807191000,0.034000000000
23.463495148000,0.051000000000
23.471183105000,0.061000000000
23.478871062000,0.076000000000
23.486559019000,0.096000000000
23.494246976000,0.108000000000
23.501934933000,0.113000000000
23.509622890000,0.120000000000
23.517310847000,0.125000000000
23.524998876000,0.123000000000
23.532686834000,0.110000000000
23.540374792000,0.086000000000
23.548062750000,0.051000000000
23.555750708000,0.007000000000
23.563438666000,-0.032000000000
23.571126624000,-0.069000000000
23.578814582000,-0.098000000000
23.586502540000,-0.120000000000
23.594190498000,-0.133000000000
23.601878456000,-0.135000000000
23.609566414000,-0.128000000000
23.617254372000,-0.125000000000
23.624942330000,-0.123000000000
23.632630288000,-0.120000000000
23.640318246000,-0.115000000000
23.648006204000,-0.113000000000
23.655694162000,-0.110000000000
23.663382120000,-0.103000000000
23.671070078000,-0.096000000000
23.678758036000,-0.093000000000
23.686445994000,-0.093000000000
23.694133952000,-0.091000000000
23.701821910000,-0.086000000000
23.709509868000,-0.088000000000
23.717197826000,-0.091000000000
23.724885784000,-0.086000000000
23.732573742000,-0.088000000000
23.740261700000,-0.093000000000
23.747949658000,-0.086000000000
23.755637616000,-0.083000000000
23.763325574000,-0.091000000000
23.771013532000,-0.093000000000
23.778701490000,-0.088000000000
23.786389448000,-0.086000000000
23.794077406000,-0.088000000000
23.801765364000,-0.088000000000
23.809453322000,-0.081000000000
23.817141280000,-0.078000000000
23.824829238000,-0.083000000000
23.832517196000,-0.081000000000
23.840205154000,-0.078000000000
23.847893112000,-0.076000000000
23.855581070000,-0.073000000000
23.863269028000,-0.073000000000
23.870956986000,-0.073000000000
23.878644944000,-0.071000000000
23.886332902000,-0.069000000000
23.894020860000,-0.069000000000
23.901708818000,-0.071000000000
23.909396776000,-0.066000000000
23.917084734000,-0.059000000000
23.924772692000,-0.059000000000
23.932460650000,-0.066000000000
23.940148608000,-0.069000000000
23.947836566000,-0.064000000000
23.955524524000,-0.066000000000
23.963212482000,-0.066000000000
23.970900440000,-0.059000000000
23.978588398000,-0.059000000000
23.986276356000,-0.064000000000
23.993964314000,-0.061000000000
24.001652272000,-0.051000000000
24.009340230000,-0.049000000000
24.017028188000,-0.056000000000
24.024716146000,-0.069000000000
24.032404104000,-0.071000000000
24.040092062000,-0.071000000000
24.047780020000,-0.071000000000
24.055467978000,-0.066000000000
24.063155936000,-0.056000000000
24.070843894000,-0.041000000000
24.078531852000,-0.029000000000
24.086219813000,-0.024000000000
24.093907770000,-0.027000000000
24.101595727000,-0.044000000000
24.109283684000,-0.056000000000
24.116971641000,-0.059000000000
24.124659598000,-0.061000000000
24.132347555000,-0.059000000000
24.140035512000,-0.046000000000
24.147723469000,-0.041000000000
24.155411426000,-0.056000000000
24.163099383000,-0.083000000000
24.170787340000,-0.078000000000
24.178475297000,0.120000000000
24.186163254000,0.579000000000
24.193851211000,0.850000000000
24.201539168000,0.466000000000
24.209227125000,-0.194000000000
24.216915082000,-0.389000000000
24.224603039000,-0.212000000000
24.232290996000,-0.170000000000
24.239978953000,-0.187000000000
24.247666910000,-0.103000000000
24.255354867000,-0.064000000000
24.263042824000,-0.088000000000
24.270730781000,-0.073000000000
24.278418738000,-0.046000000000
24.286106695000,-0.051000000000
24.293794652000,-0.056000000000
24.301482609000,-0.044000000000
24.309170566000,-0.029000000000
24.316858523000,-0.029000000000
24.324546480000,-0.032000000000
24.332234437000,-0.022000000000
24.339922394000,-0.012000000000
24.347610351000,-0.004000000000
24.355298308000,-0.002000000000
24.362986265000,-0.002000000000
24.370674222000,0.002000000000
24.378362179000,0.019000000000
24.386050136000,0.036000000000
24.393738093000,0.049000000000
24.401426050000,0.056000000000
24.409114007000,0.076000000000
24.416801964000,0.101000000000
24.424489921000,0.113000000000
24.432177878000,0.123000000000
24.439865835000,0.133000000000
24.447553792000,0.133000000000
24.455241749000,0.135000000000
24.462929706000,0.138000000000
24.470617663000,0.118000000000
24.478305620000,0.078000000000
24.485993577000,0.046000000000
24.493681534000,0.004000000000
24.501369491000,-0.044000000000
24.509057448000,-0.083000000000
24.516745405000,-0.106000000000
24.524433362000,-0.123000000000
24.532121319000,-0.145000000000
24.539809276000,-0.147000000000
24.547497233000,-0.138000000000
24.555185190000,-0.135000000000
24.562873147000,-0.138000000000
24.570561104000,-0.133000000000
24.578249061000,-0.120000000000
24.585937018000,-0.113000000000
24.593624975000,-0.120000000000
24.601312932000,-0.118000000000
24.609000889000,-0.103000000000
24.616688846000,-0.096000000000
24.624376803000,-0.098000000000
24.632064760000,-0.096000000000
24.639752717000,-0.093000000000
24.647440746000,-0.093000000000
24.655128494000,-0.091000000000
24.662816242000,-0.088000000000
24.670503990000,-0.086000000000
24.678191738000,-0.086000000000
24.685879486000,-0.096000000000
24.693567234000,-0.101000000000
24.701254982000,-0.088000000000
24.708942730000,-0.083000000000
24.716630478000,-0.096000000000
24.724318226000,-0.096000000000
24.732005974000,-0.091000000000
24.739693722000,-0.091000000000
24.747381470000,-0.088000000000
24.755069218000,-0.088000000000
24.762756966000,-0.088000000000
24.770444714000,-0.081000000000
24.778132462000,-0.083000000000
24.785820210000,-0.091000000000
24.793507958000,-0.088000000000
24.801195706000,-0.078000000000
24.808883454000,-0.083000000000
24.816571202000,-0.086000000000
24.824258950000,-0.078000000000
24.831946698000,-0.081000000000
24.839634446000,-0.086000000000
24.847322194000,-0.071000000000
24.855009942000,-0.061000000000
24.862697690000,-0.073000000000
24.870385438000,-0.081000000000
24.878073186000,-0.069000000000
24.885760934000,-0.061000000000
24.893448682000,-0.066000000000
24.901136430000,-0.069000000000
24.908824178000,-0.066000000000
24.916511926000,-0.066000000000
24.924199674000,-0.078000000000
24.931887422000,-0.086000000000
24.939575170000,-0.073000000000
24.947262918000,-0.056000000000
24.954950666000,-0.059000000000
24.962638414000,-0.066000000000
24.970326162000,-0.059000000000
24.978013910000,-0.046000000000
24.985701658000,-0.039000000000
24.993389406000,-0.032000000000
25.001077154000,-0.036000000000
25.008764902000,-0.056000000000
25.016452650000,-0.061000000000
25.024140398000,-0.059000000000
25.031828146000,-0.056000000000
25.039515894000,-0.059000000000
25.047203642000,-0.069000000000
25.054891390000,-0.066000000000
25.062579138000,-0.066000000000
25.070266886000,-0.083000000000
25.077954634000,0.024000000000
25.085642382000,0.429000000000
25.093330130000,0.806000000000
25.101017878000,0.542000000000
25.108705626000,-0.194000000000
25.116393374000,-0.530000000000
25.124081122000,-0.340000000000
25.131768870000,-0.226000000000
25.139456618000,-0.244000000000
25.147144366000,-0.135000000000
25.154832114000,-0.046000000000
25.162519862000,-0.066000000000
25.170207610000,-0.064000000000
25.177895358000,-0.027000000000
25.185583106000,-0.022000000000
25.193270854000,-0.024000000000
25.200958602000,-0.012000000000
25.208646422000,-0.002000000000
25.216334449000,-0.002000000000
25.224022476000,-0.002000000000
25.231710503000,0.012000000000
25.239398530000,0.019000000000
25.247086557000,0.019000000000
25.254774584000,0.027000000000
25.262462611000,0.039000000000
25.270150638000,0.046000000000
25.277838665000,0.056000000000
25.285526692000,0.071000000000
25.293214719000,0.086000000000
25.300902746000,0.103000000000
25.308590773000,0.125000000000
25.316278800000,0.150000000000
25.323966827000,0.157000000000
25.331654854000,0.157000000000
25.339342881000,0.170000000000
25.347030908000,0.182000000000
25.354718935000,0.184000000000
25.362406962000,0.175000000000
25.370094989000,0.155000000000
25.377783016000,0.118000000000
25.385471043000,0.061000000000
25.393159070000,0.009000000000
25.400847097000,-0.032000000000
25.408535124000,-0.069000000000
25.416223151000,-0.110000000000
25.423911178000,-0.138000000000
25.431599205000,-0.143000000000
25.439287232000,-0.143000000000
25.446975259000,-0.150000000000
25.454663286000,-0.150000000000
25.462351313000,-0.145000000000
25.470039340000,-0.135000000000
25.477727367000,-0.125000000000
25.485415394000,-0.125000000000
25.493103421000,-0.123000000000
25.500791448000,-0.118000000000
25.508479475000,-0.113000000000
25.516167502000,-0.103000000000
25.523855529000,-0.096000000000
25.531543556000,-0.098000000000
25.539231583000,-0.098000000000
25.546919610000,-0.091000000000
25.554607637000,-0.086000000000
25.562295664000,-0.091000000000
25.569983691000,-0.096000000000
25.577671718000,-0.098000000000
25.585359745000,-0.098000000000
25.593047772000,-0.101000000000
25.600735799000,-0.101000000000
25.608423826000,-0.103000000000
25.616111853000,-0.103000000000
25.623799880000,-0.101000000000
25.631487907000,-0.096000000000
25.639175934000,-0.093000000000
25.646863961000,-0.101000000000
25.654551988000,-0.103000000000
25.662240015000,-0.093000000000
25.669928042000,-0.088000000000
25.677616069000,-0.093000000000
25.685304096000,-0.091000000000
25.692992123000,-0.083000000000
25.700680150000,-0.088000000000
25.708368177000,-0.088000000000
25.716056204000,-0.078000000000
25.723744231000,-0.078000000000
25.731432258000,-0.086000000000
25.739120285000,-0.083000000000
25.746808312000,-0.076000000000
25.754496339000,-0.078000000000
25.762184366000,-0.078000000000
25.769872442000,-0.073000000000
25.777560121000,-0.078000000000
25.785247800000,-0.078000000000
25.792935479000,-0.073000000000
25.800623158000,-0.073000000000
25.808310837000,-0.076000000000
25.815998516000,-0.081000000000
25.823686195000,-0.091000000000
25.831373874000,-0.088000000000
25.839061553000,-0.078000000000
25.846749232000,-0.071000000000
25.854436911000,-0.061000000000
25.862124590000,-0.051000000000
25.869812269000,-0.046000000000
25.877499948000,-0.036000000000
25.885187627000,-0.041000000000
25.892875306000,-0.061000000000
25.900562985000,-0.069000000000
25.908250664000,-0.064000000000
25.915938343000,-0.066000000000
25.923626022000,-0.064000000000
25.931313701000,-0.056000000000
25.939001380000,-0.059000000000
25.946689059000,-0.081000000000
25.954376738000,-0.108000000000
25.962064417000,0.000000000000
25.969752096000,0.409000000000
25.977439775000,0.840000000000
25.985127454000,0.695000000000
25.992815133000,0.022000000000
26.000502812000,-0.389000000000
26.008190491000,-0.276000000000
26.015878170000,-0.165000000000
26.023565849000,-0.197000000000
26.031253528000,-0.135000000000
26.038941207000,-0.066000000000
26.046628886000,-0.086000000000
26.054316565000,-0.078000000000
26.062004244000,-0.054000000000
26.069691923000,-0.051000000000
26.077379602000,-0.044000000000
26.085067281000,-0.029000000000
26.092754960000,-0.027000000000
26.100442639000,-0.027000000000
26.108130318000,-0.024000000000
26.115817997000,-0.019000000000
26.123505676000,-0.012000000000
26.131193355000,-0.002000000000
26.138881034000,0.002000000000
26.146568713000,0.004000000000
26.154256392000,0.014000000000
26.161944071000,0.027000000000
26.169631750000,0.036000000000
26.177319429000,0.046000000000
26.185007108000,0.066000000000
26.192694787000,0.083000000000
26.200382466000,0.101000000000
26.208070145000,0.118000000000
26.215757824000,0.135000000000
26.223445503000,0.147000000000
26.231133182000,0.152000000000
26.238820861000,0.160000000000
26.246508540000,0.165000000000
26.254196219000,0.152000000000
26.261883898000,0.123000000000
26.269571577000,0.083000000000
26.277259256000,0.041000000000
26.284946935000,-0.002000000000
26.292634614000,-0.046000000000
26.300322293000,-0.069000000000
26.308009972000,-0.083000000000
26.315697651000,-0.101000000000
26.323385330000,-0.110000000000
26.331073027000,-0.103000000000
26.338760984000,-0.098000000000
26.346448941000,-0.098000000000
26.354136898000,-0.098000000000
26.361824855000,-0.093000000000
26.369512812000,-0.083000000000
26.377200769000,-0.073000000000
26.384888726000,-0.078000000000
26.392576683000,-0.083000000000
26.400264640000,-0.071000000000
26.407952597000,-0.059000000000
26.415640554000,-0.059000000000
26.423328511000,-0.064000000000
26.431016468000,-0.064000000000
26.438704425000,-0.054000000000
26.446392382000,-0.046000000000
26.454080339000,-0.044000000000
26.461768296000,-0.046000000000
26.469456253000,-0.056000000000
26.477144210000,-0.059000000000
26.484832167000,-0.051000000000
26.492520124000,-0.049000000000
26.500208081000,-0.051000000000
26.507896038000,-0.051000000000
26.515583995000,-0.046000000000
26.523271952000,-0.046000000000
26.530959909000,-0.046000000000
26.538647866000,-0.046000000000
26.546335823000,-0.046000000000
26.554023780000,-0.036000000000
26.561711737000,-0.034000000000
26.569399694000,-0.039000000000
26.577087651000,-0.039000000000
26.584775608000,-0.029000000000
26.592463565000,-0.029000000000
26.600151522000,-0.034000000000
26.607839479000,-0.034000000000
26.615527436000,-0.036000000000
26.623215393000,-0.039000000000
26.630903350000,-0.032000000000
26.638591307000,-0.019000000000
26.646279264000,-0.022000000000
26.653967221000,-0.027000000000
26.661655178000,-0.024000000000
26.669343135000,-0.019000000000
26.677031092000,-0.019000000000
26.684719049000,-0.029000000000
26.692407006000,-0.029000000000
26.700094963000,-0.024000000000
26.707782920000,-0.027000000000
26.715470877000,-0.029000000000
26.723158834000,-0.024000000000
26.730846791000,-0.019000000000
26.738534748000,-0.017000000000
26.746222705000,-0.017000000000
26.753910662000,-0.019000000000
26.761598619000,-0.024000000000
26.769286576000,-0.022000000000
26.776974533000,-0.022000000000
26.784662490000,-0.027000000000
26.792350447000,-0.029000000000
26.800038404000,-0.029000000000
26.807726361000,-0.036000000000
26.815414318000,-0.039000000000
26.823102275000,-0.029000000000
26.830790232000,-0.014000000000
26.838478189000,-0.007000000000
26.846166146000,-0.004000000000
26.853854103000,0.002000000000
26.861542060000,0.007000000000
26.869230017000,-0.009000000000
26.876917974000,-0.022000000000
26.884605931000,-0.017000000000
26.892293960000,-0.019000000000
26.899981918000,-0.032000000000
26.907669876000,-0.029000000000
26.915357834000,-0.022000000000
26.923045792000,-0.029000000000
26.930733750000,-0.064000000000
26.938421708000,-0.076000000000
26.946109666000,0.110000000000
26.953797624000,0.574000000000
26.961485582000,0.907000000000
26.969173540000,0.604000000000
26.976861498000,-0.071000000000
26.984549456000,-0.357000000000
26.992237414000,-0.204000000000
26.999925372000,-0.145000000000
27.007613330000,-0.175000000000
27.015301288000,-0.096000000000
27.022989246000,-0.049000000000
27.030677204000,-0.069000000000
27.038365162000,-0.064000000000
27.046053120000,-0.044000000000
27.053741078000,-0.039000000000
27.061429036000,-0.036000000000
27.069116994000,-0.032000000000
27.076804952000,-0.024000000000
27.084492910000,-0.017000000000
27.092180868000,-0.012000000000
27.099868826000,-0.007000000000
27.107556784000,-0.002000000000
27.115244742000,0.000000000000
27.122932700000,0.002000000000
27.130620658000,0.009000000000
27.138308616000,0.019000000000
27.145996574000,0.027000000000
27.153684532000,0.036000000000
27.161372490000,0.044000000000
27.169060448000,0.054000000000
27.176748406000,0.076000000000
27.184436364000,0.096000000000
27.192124322000,0.106000000000
27.199812280000,0.120000000000
27.207500238000,0.133000000000
27.215188196000,0.138000000000
27.222876154000,0.138000000000
27.230564112000,0.143000000000
27.238252070000,0.138000000000
27.245940028000,0.110000000000
27.253627986000,0.071000000000
27.261315944000,0.027000000000
27.269003902000,-0.027000000000
27.276691860000,-0.071000000000
27.284379818000,-0.098000000000
27.292067776000,-0.118000000000
27.299755734000,-0.135000000000
27.307443692000,-0.138000000000
27.315131650000,-0.135000000000
27.322819608000,-0.135000000000
27.330507566000,-0.128000000000
27.338195524000,-0.120000000000
27.345883482000,-0.125000000000
27.353571440000,-0.123000000000
27.361259398000,-0.118000000000
27.368947356000,-0.115000000000
27.376635314000,-0.108000000000
27.384323272000,-0.101000000000
27.392011230000,-0.103000000000
27.399699188000,-0.103000000000
27.407387146000,-0.096000000000
27.415075104000,-0.093000000000
27.422763062000,-0.091000000000
27.430451020000,-0.091000000000
27.438138978000,-0.088000000000
27.445826936000,-0.088000000000
27.453514897000,-0.093000000000
27.461202854000,-0.096000000000
27.468890811000,-0.096000000000
27.476578768000,-0.098000000000
27.484266725000,-0.096000000000
27.491954682000,-0.096000000000
27.499642639000,-0.091000000000
27.507330596000,-0.086000000000
27.515018553000,-0.091000000000
27.522706510000,-0.091000000000
27.530394467000,-0.081000000000
27.538082424000,-0.083000000000
27.545770381000,-0.088000000000
27.553458338000,-0.083000000000
27.561146295000,-0.081000000000
27.568834252000,-0.086000000000
27.576522209000,-0.083000000000
27.584210166000,-0.073000000000
27.591898123000,-0.071000000000
27.599586080000,-0.078000000000
27.607274037000,-0.076000000000
27.614961994000,-0.071000000000
27.622649951000,-0.069000000000
27.630337908000,-0.064000000000
27.638025865000,-0.064000000000
27.645713822000,-0.064000000000
27.653401779000,-0.064000000000
27.661089736000,-0.066000000000
27.668777693000,-0.064000000000
27.676465650000,-0.061000000000
27.684153607000,-0.059000000000
27.691841564000,-0.061000000000
27.699529521000,-0.066000000000
27.707217478000,-0.066000000000
27.714905435000,-0.064000000000
27.722593392000,-0.061000000000
27.730281349000,-0.061000000000
27.737969306000,-0.061000000000
27.745657263000,-0.054000000000
27.753345220000,-0.041000000000
27.761033177000,-0.036000000000
27.768721134000,-0.036000000000
27.776409091000,-0.029000000000
27.784097048000,-0.029000000000
27.791785005000,-0.046000000000
27.799472962000,-0.059000000000
27.807160919000,-0.066000000000
27.814848876000,-0.064000000000
27.822536833000,-0.054000000000
27.830224790000,-0.054000000000
27.837912747000,-0.061000000000
27.845600704000,-0.071000000000
27.853288661000,-0.086000000000
27.860976618000,0.036000000000
27.868664575000,0.446000000000
27.876352532000,0.811000000000
27.884040489000,0.535000000000
27.891728446000,-0.182000000000
27.899416403000,-0.498000000000
27.907104360000,-0.315000000000
27.914792317000,-0.212000000000
27.922480274000,-0.229000000000
27.930168231000,-0.130000000000
27.937856188000,-0.051000000000
27.945544145000,-0.076000000000
27.953232102000,-0.076000000000
27.960920059000,-0.041000000000
27.968608016000,-0.036000000000
27.976295973000,-0.049000000000
27.983983930000,-0.044000000000
27.991671887000,-0.027000000000
27.999359844000,-0.014000000000
28.007047801000,-0.009000000000
28.014735830000,-0.009000000000
28.022423787000,-0.014000000000
28.030111744000,-0.002000000000
28.037799701000,0.014000000000
28.045487658000,0.019000000000
28.053175615000,0.019000000000
28.060863572000,0.032000000000
28.068551529000,0.056000000000
28.076239486000,0.069000000000
28.083927443000,0.078000000000
28.091615400000,0.106000000000
28.099303357000,0.125000000000
28.106991314000,0.133000000000
28.114679271000,0.150000000000
28.122367228000,0.170000000000
28.130055185000,0.175000000000
28.137743142000,0.167000000000
28.145431099000,0.165000000000
28.153119056000,0.152000000000
28.160807013000,0.118000000000
28.168494970000,0.071000000000
28.176182927000,0.019000000000
28.183870884000,-0.032000000000
28.191558841000,-0.086000000000
28.199246798000,-0.135000000000
28.206934755000,-0.155000000000
28.214622712000,-0.157000000000
28.222310669000,-0.170000000000
28.229998626000,-0.180000000000
28.237686583000,-0.175000000000
28.245374540000,-0.165000000000
28.253062497000,-0.155000000000
28.260750454000,-0.150000000000
28.268438411000,-0.150000000000
28.276126368000,-0.145000000000
28.283814325000,-0.130000000000
28.291502282000,-0.120000000000
28.299190239000,-0.115000000000
28.306878196000,-0.113000000000
28.314566153000,-0.113000000000
28.322254110000,-0.108000000000
28.329942067000,-0.101000000000
28.337630024000,-0.098000000000
28.345317981000,-0.106000000000
28.353005938000,-0.108000000000
28.360693895000,-0.103000000000
28.368381852000,-0.103000000000
28.376069809000,-0.106000000000
28.383757766000,-0.108000000000
28.391445723000,-0.110000000000
28.399133680000,-0.103000000000
28.406821637000,-0.103000000000
28.414509594000,-0.108000000000
28.422197551000,-0.106000000000
28.429885508000,-0.106000000000
28.437573465000,-0.113000000000
28.445261422000,-0.110000000000
28.452949379000,-0.103000000000
28.460637336000,-0.101000000000
28.468325293000,-0.103000000000
28.476013250000,-0.096000000000
28.483701207000,-0.088000000000
28.491389164000,-0.088000000000
28.499077121000,-0.088000000000
28.506765078000,-0.088000000000
28.514453035000,-0.083000000000
28.522140992000,-0.076000000000
28.529828949000,-0.078000000000
28.537516906000,-0.088000000000
28.545204863000,-0.091000000000
28.552892820000,-0.083000000000
28.560580777000,-0.081000000000
28.568268734000,-0.088000000000
28.575956763000,-0.088000000000
28.583644581000,-0.078000000000
28.591332399000,-0.066000000000
28.599020217000,-0.056000000000
28.606708035000,-0.046000000000
28.614395853000,-0.034000000000
28.622083671000,-0.032000000000
28.629771489000,-0.051000000000
28.637459307000,-0.061000000000
28.645147125000,-0.059000000000
28.652834943000,-0.064000000000
28.660522761000,-0.071000000000
28.668210579000,-0.064000000000
28.675898397000,-0.059000000000
28.683586215000,-0.064000000000
28.691274033000,-0.086000000000
28.698961851000,-0.093000000000
28.706649669000,0.091000000000
28.714337487000,0.557000000000
28.722025305000,0.845000000000
28.729713123000,0.453000000000
28.737400941000,-0.234000000000
28.745088759000,-0.443000000000
28.752776577000,-0.253000000000
28.760464395000,-0.189000000000
28.768152213000,-0.199000000000
28.775840031000,-0.103000000000
28.783527849000,-0.054000000000
28.791215667000,-0.078000000000
28.798903485000,-0.061000000000
28.806591303000,-0.039000000000
28.814279121000,-0.044000000000
28.821966939000,-0.039000000000
28.829654757000,-0.032000000000
28.837342575000,-0.032000000000
28.845030393000,-0.029000000000
28.852718211000,-0.022000000000
28.860406029000,-0.022000000000
28.868093847000,-0.014000000000
28.875781665000,-0.007000000000
28.883469483000,-0.002000000000
28.891157301000,0.002000000000
28.898845119000,0.012000000000
28.906532937000,0.022000000000
28.914220755000,0.036000000000
28.921908573000,0.051000000000
28.929596391000,0.064000000000
28.937284209000,0.071000000000
28.944972027000,0.091000000000
28.952659845000,0.110000000000
28.960347663000,0.120000000000
28.968035481000,0.130000000000
28.975723299000,0.143000000000
28.983411117000,0.147000000000
28.991098935000,0.140000000000
28.998786753000,0.120000000000
29.006474571000,0.093000000000
29.014162389000,0.054000000000
29.021850207000,0.000000000000
29.029538025000,-0.056000000000
29.037225843000,-0.093000000000
29.044913661000,-0.120000000000
29.052601479000,-0.143000000000
29.060289297000,-0.155000000000
29.067977115000,-0.157000000000
29.075664933000,-0.152000000000
29.083352751000,-0.147000000000
29.091040569000,-0.145000000000
29.098728387000,-0.143000000000
29.106416205000,-0.133000000000
29.114104023000,-0.130000000000
29.121791841000,-0.128000000000
29.129479659000,-0.123000000000
29.137167526000,-0.115000000000
29.144855553000,-0.110000000000
29.152543580000,-0.103000000000
29.160231607000,-0.096000000000
29.167919634000,-0.096000000000
29.175607661000,-0.101000000000
29.183295688000,-0.101000000000
29.190983715000,-0.101000000000
29.198671742000,-0.101000000000
29.206359769000,-0.103000000000
29.214047796000,-0.101000000000
29.221735823000,-0.096000000000
29.229423850000,-0.098000000000
29.237111877000,-0.103000000000
29.244799904000,-0.098000000000
29.252487931000,-0.091000000000
29.260175958000,-0.096000000000
29.267863985000,-0.101000000000
29.275552012000,-0.098000000000
29.283240039000,-0.093000000000
29.290928066000,-0.088000000000
29.298616093000,-0.086000000000
29.306304120000,-0.091000000000
29.313992147000,-0.093000000000
29.321680174000,-0.088000000000
29.329368201000,-0.081000000000
29.337056228000,-0.078000000000
29.344744255000,-0.076000000000
