time,LSB
0.000000000000,1.442000000000
0.007686982000,1.915000000000
0.015373964000,1.223000000000
0.023060946000,-0.241000000000
0.030747928000,-0.642000000000
0.038434910000,-0.128000000000
0.046121892000,-0.098000000000
0.053808874000,-0.270000000000
0.061495856000,-0.164000000000
0.069182838000,-0.118000000000
0.076869820000,-0.172000000000
0.084556802000,-0.137000000000
0.092243784000,-0.093000000000
0.099930766000,-0.096000000000
0.107617748000,-0.078000000000
0.115304730000,-0.046000000000
0.122991712000,-0.032000000000
0.130678694000,-0.014000000000
0.138365676000,0.014000000000
0.146052658000,0.036000000000
0.153739640000,0.061000000000
0.161426622000,0.093000000000
0.169113604000,0.125000000000
0.176800586000,0.157000000000
0.184487568000,0.194000000000
0.192174550000,0.236000000000
0.199861532000,0.273000000000
0.207548514000,0.302000000000
0.215235496000,0.322000000000
0.222922478000,0.332000000000
0.230609460000,0.332000000000
0.238296442000,0.320000000000
0.245983424000,0.300000000000
0.253670406000,0.265000000000
0.261357388000,0.209000000000
0.269044370000,0.125000000000
0.276731352000,0.027000000000
0.284418334000,-0.066000000000
0.292105316000,-0.150000000000
0.299792298000,-0.214000000000
0.307479280000,-0.258000000000
0.315166262000,-0.278000000000
0.322853244000,-0.285000000000
0.330540226000,-0.285000000000
0.338227208000,-0.280000000000
0.345914190000,-0.268000000000
0.353601172000,-0.256000000000
0.361288154000,-0.243000000000
0.368975136000,-0.233000000000
0.376662118000,-0.221000000000
0.384349100000,-0.209000000000
0.392036082000,-0.201000000000
0.399723064000,-0.194000000000
0.407410046000,-0.187000000000
0.415097028000,-0.184000000000
0.422784010000,-0.179000000000
0.430470992000,-0.177000000000
0.438157974000,-0.174000000000
0.445844956000,-0.174000000000
0.453531938000,-0.169000000000
0.461218920000,-0.169000000000
0.468905902000,-0.167000000000
0.476592884000,-0.167000000000
0.484279866000,-0.164000000000
0.491966848000,-0.162000000000
0.499653867000,-0.160000000000
0.507340849000,-0.157000000000
0.515027831000,-0.155000000000
0.522714813000,-0.150000000000
0.530401795000,-0.147000000000
0.538088777000,-0.145000000000
0.545775759000,-0.142000000000
0.553462741000,-0.137000000000
0.561149723000,-0.132000000000
0.568836705000,-0.130000000000
0.576523687000,-0.125000000000
0.584210669000,-0.123000000000
0.591897651000,-0.118000000000
0.599584633000,-0.113000000000
0.607271615000,-0.110000000000
0.614958597000,-0.105000000000
0.622645579000,-0.105000000000
0.630332561000,-0.108000000000
0.638019543000,-0.103000000000
0.645706525000,-0.088000000000
0.653393507000,-0.068000000000
0.661080489000,-0.051000000000
0.668767471000,-0.049000000000
0.676454453000,-0.054000000000
0.684141435000,-0.051000000000
0.691828417000,-0.068000000000
0.699515399000,-0.100000000000
0.707202381000,-0.113000000000
0.714889363000,-0.100000000000
0.722576345000,-0.096000000000
0.730263327000,-0.096000000000
0.737950309000,-0.091000000000
0.745637291000,-0.088000000000
0.753324273000,-0.088000000000
0.761011255000,-0.086000000000
0.768698237000,-0.098000000000
0.776385219000,-0.142000000000
0.784072201000,-0.199000000000
0.791759183000,-0.103000000000
0.799446165000,0.356000000000
0.807133147000,1.107000000000
0.814820129000,1.811000000000
0.822507111000,1.691000000000
0.830194093000,0.352000000000
0.837881075000,-0.667000000000
0.845568057000,-0.347000000000
0.853255039000,-0.027000000000
0.860942021000,-0.228000000000
0.868629003000,-0.228000000000
0.876315985000,-0.110000000000
0.884002967000,-0.152000000000
0.891689949000,-0.164000000000
0.899376931000,-0.105000000000
0.907063913000,-0.091000000000
0.914750895000,-0.091000000000
0.922437877000,-0.061000000000
0.930124859000,-0.039000000000
0.937811841000,-0.024000000000
0.945498823000,0.000000000000
0.953185805000,0.027000000000
0.960872787000,0.049000000000
0.968559769000,0.076000000000
0.976246751000,0.108000000000
0.983933733000,0.140000000000
0.991620715000,0.177000000000
0.999307697000,0.214000000000
1.006994679000,0.253000000000
1.014681661000,0.285000000000
1.022368643000,0.310000000000
1.030055625000,0.324000000000
1.037742607000,0.329000000000
1.045429589000,0.322000000000
1.053116571000,0.305000000000
1.060803594000,0.280000000000
1.068490785000,0.233000000000
1.076177976000,0.160000000000
1.083865167000,0.066000000000
1.091552358000,-0.032000000000
1.099239549000,-0.123000000000
1.106926740000,-0.194000000000
1.114613931000,-0.243000000000
1.122301122000,-0.273000000000
1.129988313000,-0.290000000000
1.137675504000,-0.292000000000
1.145362695000,-0.288000000000
1.153049886000,-0.278000000000
1.160737077000,-0.265000000000
1.168424268000,-0.253000000000
1.176111459000,-0.243000000000
1.183798650000,-0.231000000000
1.191485841000,-0.219000000000
1.199173032000,-0.209000000000
1.206860223000,-0.201000000000
1.214547414000,-0.196000000000
1.222234605000,-0.189000000000
1.229921796000,-0.184000000000
1.237608987000,-0.182000000000
1.245296178000,-0.179000000000
1.252983369000,-0.177000000000
1.260670560000,-0.174000000000
1.268357751000,-0.174000000000
1.276044942000,-0.172000000000
1.283732133000,-0.172000000000
1.291419324000,-0.169000000000
1.299106515000,-0.167000000000
1.306793706000,-0.162000000000
1.314480897000,-0.160000000000
1.322168088000,-0.157000000000
1.329855279000,-0.155000000000
1.337542470000,-0.152000000000
1.345229661000,-0.147000000000
1.352916852000,-0.145000000000
1.360604043000,-0.142000000000
1.368291234000,-0.137000000000
1.375978425000,-0.132000000000
1.383665616000,-0.130000000000
1.391352807000,-0.125000000000
1.399039998000,-0.123000000000
1.406727189000,-0.118000000000
1.414414380000,-0.115000000000
1.422101571000,-0.113000000000
1.429788762000,-0.108000000000
1.437475953000,-0.105000000000
1.445163144000,-0.105000000000
1.452850335000,-0.105000000000
1.460537526000,-0.096000000000
1.468224717000,-0.078000000000
1.475911908000,-0.054000000000
1.483599099000,-0.044000000000
1.491286290000,-0.051000000000
1.498973481000,-0.054000000000
1.506660672000,-0.059000000000
1.514347863000,-0.088000000000
1.522035054000,-0.113000000000
1.529722245000,-0.108000000000
1.537409436000,-0.098000000000
1.545096627000,-0.096000000000
1.552783818000,-0.093000000000
1.560471009000,-0.091000000000
1.568158200000,-0.088000000000
1.575845391000,-0.088000000000
1.583532582000,-0.096000000000
1.591219773000,-0.125000000000
1.598906964000,-0.187000000000
1.606594155000,-0.179000000000
1.614281346000,0.120000000000
1.621968578000,0.780000000000
1.629655351000,1.568000000000
1.637342124000,1.907000000000
1.645028897000,0.989000000000
1.652715670000,-0.423000000000
1.660402443000,-0.578000000000
1.668089216000,-0.071000000000
1.675775989000,-0.140000000000
1.683462762000,-0.273000000000
1.691149535000,-0.147000000000
1.698836308000,-0.132000000000
1.706523081000,-0.179000000000
1.714209854000,-0.130000000000
1.721896627000,-0.098000000000
1.729583400000,-0.100000000000
1.737270173000,-0.078000000000
1.744956946000,-0.049000000000
1.752643719000,-0.036000000000
1.760330492000,-0.017000000000
1.768017265000,0.012000000000
1.775704038000,0.034000000000
1.783390811000,0.059000000000
1.791077584000,0.091000000000
1.798764357000,0.123000000000
1.806451130000,0.157000000000
1.814137903000,0.194000000000
1.821824676000,0.233000000000
1.829511449000,0.270000000000
1.837198222000,0.297000000000
1.844884995000,0.317000000000
1.852571768000,0.327000000000
1.860258541000,0.322000000000
1.867945314000,0.310000000000
1.875632087000,0.288000000000
1.883318860000,0.251000000000
1.891005633000,0.192000000000
1.898692406000,0.105000000000
1.906379179000,0.004000000000
1.914065952000,-0.088000000000
1.921752725000,-0.167000000000
1.929439498000,-0.228000000000
1.937126271000,-0.268000000000
1.944813044000,-0.290000000000
1.952499817000,-0.297000000000
1.960186590000,-0.295000000000
1.967873363000,-0.288000000000
1.975560136000,-0.278000000000
1.983246909000,-0.265000000000
1.990933682000,-0.253000000000
1.998620455000,-0.241000000000
2.006307228000,-0.228000000000
2.013994001000,-0.219000000000
2.021680774000,-0.211000000000
2.029367547000,-0.204000000000
2.037054320000,-0.196000000000
2.044741093000,-0.192000000000
2.052427866000,-0.189000000000
2.060114639000,-0.184000000000
2.067801412000,-0.182000000000
2.075488185000,-0.179000000000
2.083174958000,-0.177000000000
2.090861731000,-0.177000000000
2.098548504000,-0.174000000000
2.106235277000,-0.172000000000
2.113922050000,-0.172000000000
2.121608823000,-0.169000000000
2.129295596000,-0.167000000000
2.136982369000,-0.162000000000
2.144669142000,-0.162000000000
2.152355915000,-0.160000000000
2.160042688000,-0.157000000000
2.167729461000,-0.150000000000
2.175416234000,-0.147000000000
2.183103040000,-0.145000000000
2.190790161000,-0.140000000000
2.198477282000,-0.137000000000
2.206164403000,-0.135000000000
2.213851524000,-0.128000000000
2.221538645000,-0.125000000000
2.229225766000,-0.123000000000
2.236912887000,-0.120000000000
2.244600008000,-0.115000000000
2.252287129000,-0.110000000000
2.259974250000,-0.108000000000
2.267661371000,-0.108000000000
2.275348492000,-0.108000000000
2.283035613000,-0.100000000000
2.290722734000,-0.086000000000
2.298409855000,-0.061000000000
2.306096976000,-0.044000000000
2.313784097000,-0.051000000000
2.321471218000,-0.056000000000
2.329158339000,-0.054000000000
2.336845460000,-0.081000000000
2.344532581000,-0.115000000000
2.352219702000,-0.113000000000
2.359906823000,-0.098000000000
2.367593944000,-0.096000000000
2.375281065000,-0.096000000000
2.382968186000,-0.091000000000
2.390655307000,-0.091000000000
2.398342428000,-0.088000000000
2.406029549000,-0.093000000000
2.413716670000,-0.115000000000
2.421403791000,-0.169000000000
2.429090912000,-0.194000000000
2.436778033000,0.019000000000
2.444465154000,0.605000000000
2.452152275000,1.390000000000
2.459839396000,1.898000000000
2.467526517000,1.277000000000
2.475213638000,-0.179000000000
2.482900759000,-0.654000000000
2.490587880000,-0.152000000000
2.498275001000,-0.091000000000
2.505962122000,-0.270000000000
2.513649243000,-0.174000000000
2.521336364000,-0.123000000000
2.529023485000,-0.174000000000
2.536710606000,-0.142000000000
2.544397727000,-0.093000000000
2.552084848000,-0.096000000000
2.559771969000,-0.083000000000
2.567459090000,-0.051000000000
2.575146211000,-0.036000000000
2.582833332000,-0.019000000000
2.590520453000,0.007000000000
2.598207574000,0.032000000000
2.605894695000,0.056000000000
2.613581816000,0.086000000000
2.621268937000,0.120000000000
2.628956058000,0.152000000000
2.636643179000,0.189000000000
2.644330300000,0.231000000000
2.652017421000,0.268000000000
2.659704542000,0.300000000000
2.667391663000,0.320000000000
2.675078784000,0.332000000000
2.682765905000,0.334000000000
2.690453026000,0.327000000000
2.698140147000,0.305000000000
2.705827268000,0.270000000000
2.713514389000,0.216000000000
2.721201510000,0.137000000000
2.728888631000,0.034000000000
2.736575752000,-0.068000000000
2.744262941000,-0.155000000000
2.751950062000,-0.216000000000
2.759637183000,-0.260000000000
2.767324304000,-0.288000000000
2.775011425000,-0.295000000000
2.782698546000,-0.295000000000
2.790385667000,-0.288000000000
2.798072788000,-0.278000000000
2.805759909000,-0.270000000000
2.813447030000,-0.256000000000
2.821134151000,-0.238000000000
2.828821272000,-0.226000000000
2.836508393000,-0.219000000000
2.844195514000,-0.209000000000
2.851882635000,-0.199000000000
2.859569756000,-0.194000000000
2.867256877000,-0.189000000000
2.874943998000,-0.184000000000
2.882631119000,-0.182000000000
2.890318240000,-0.179000000000
2.898005361000,-0.174000000000
2.905692482000,-0.172000000000
2.913379603000,-0.172000000000
2.921066724000,-0.167000000000
2.928753845000,-0.164000000000
2.936440966000,-0.167000000000
2.944128087000,-0.167000000000
2.951815208000,-0.160000000000
2.959502329000,-0.155000000000
2.967189450000,-0.155000000000
2.974876571000,-0.152000000000
2.982563692000,-0.150000000000
2.990250813000,-0.142000000000
2.997937934000,-0.140000000000
3.005625055000,-0.135000000000
3.013312176000,-0.130000000000
3.020999297000,-0.128000000000
3.028686418000,-0.125000000000
3.036373539000,-0.120000000000
3.044060660000,-0.120000000000
3.051747781000,-0.115000000000
3.059434902000,-0.108000000000
3.067122023000,-0.105000000000
3.074809144000,-0.108000000000
3.082496265000,-0.105000000000
3.090183386000,-0.103000000000
3.097870507000,-0.096000000000
3.105557628000,-0.081000000000
3.113244749000,-0.061000000000
3.120931870000,-0.044000000000
3.128618991000,-0.046000000000
3.136306112000,-0.051000000000
3.143993233000,-0.051000000000
3.151680354000,-0.068000000000
3.159367475000,-0.103000000000
3.167054596000,-0.110000000000
3.174741717000,-0.096000000000
3.182428838000,-0.093000000000
3.190115959000,-0.096000000000
3.197803080000,-0.091000000000
3.205490201000,-0.086000000000
3.213177322000,-0.083000000000
3.220864443000,-0.083000000000
3.228551564000,-0.093000000000
3.236238685000,-0.130000000000
3.243925806000,-0.182000000000
3.251612927000,-0.110000000000
3.259300048000,0.292000000000
3.266987169000,1.011000000000
3.274674290000,1.733000000000
3.282361411000,1.733000000000
3.290048532000,0.499000000000
3.297735653000,-0.627000000000
3.305422838000,-0.411000000000
3.313109750000,-0.039000000000
3.320796662000,-0.211000000000
3.328483574000,-0.228000000000
3.336170486000,-0.108000000000
3.343857398000,-0.142000000000
3.351544310000,-0.160000000000
3.359231222000,-0.103000000000
3.366918134000,-0.091000000000
3.374605046000,-0.088000000000
3.382291958000,-0.056000000000
3.389978870000,-0.034000000000
3.397665782000,-0.022000000000
3.405352694000,0.002000000000
3.413039606000,0.029000000000
3.420726518000,0.051000000000
3.428413430000,0.078000000000
3.436100342000,0.110000000000
3.443787254000,0.140000000000
3.451474166000,0.177000000000
3.459161078000,0.219000000000
3.466847990000,0.256000000000
3.474534902000,0.290000000000
3.482221814000,0.320000000000
3.489908726000,0.337000000000
3.497595638000,0.342000000000
3.505282550000,0.337000000000
3.512969462000,0.324000000000
3.520656374000,0.297000000000
3.528343286000,0.251000000000
3.536030198000,0.179000000000
3.543717110000,0.083000000000
3.551404022000,-0.019000000000
3.559090934000,-0.113000000000
3.566777846000,-0.189000000000
3.574464758000,-0.243000000000
3.582151670000,-0.278000000000
3.589838582000,-0.292000000000
3.597525494000,-0.295000000000
3.605212406000,-0.292000000000
3.612899318000,-0.283000000000
3.620586230000,-0.273000000000
3.628273142000,-0.260000000000
3.635960054000,-0.248000000000
3.643646966000,-0.236000000000
3.651333878000,-0.224000000000
3.659020790000,-0.214000000000
3.666707702000,-0.206000000000
3.674394614000,-0.199000000000
3.682081526000,-0.194000000000
3.689768438000,-0.189000000000
3.697455350000,-0.184000000000
3.705142262000,-0.182000000000
3.712829174000,-0.179000000000
3.720516086000,-0.177000000000
3.728202998000,-0.174000000000
3.735889910000,-0.172000000000
3.743576822000,-0.169000000000
3.751263734000,-0.167000000000
3.758950646000,-0.167000000000
3.766637558000,-0.162000000000
3.774324470000,-0.160000000000
3.782011382000,-0.160000000000
3.789698294000,-0.155000000000
3.797385206000,-0.152000000000
3.805072118000,-0.147000000000
3.812759030000,-0.145000000000
3.820445942000,-0.142000000000
3.828132854000,-0.137000000000
3.835819766000,-0.132000000000
3.843506678000,-0.130000000000
3.851193590000,-0.125000000000
3.858880502000,-0.120000000000
3.866567478000,-0.118000000000
3.874254390000,-0.115000000000
3.881941302000,-0.113000000000
3.889628214000,-0.108000000000
3.897315126000,-0.105000000000
3.905002038000,-0.103000000000
3.912688950000,-0.105000000000
3.920375862000,-0.100000000000
3.928062774000,-0.088000000000
3.935749686000,-0.068000000000
3.943436598000,-0.046000000000
3.951123510000,-0.044000000000
3.958810422000,-0.051000000000
3.966497334000,-0.051000000000
3.974184246000,-0.061000000000
3.981871158000,-0.093000000000
3.989558070000,-0.108000000000
3.997244982000,-0.098000000000
4.004931894000,-0.091000000000
4.012618806000,-0.093000000000
4.020305718000,-0.088000000000
4.027992630000,-0.086000000000
4.035679542000,-0.083000000000
4.043366454000,-0.083000000000
4.051053366000,-0.091000000000
4.058740278000,-0.123000000000
4.066427190000,-0.182000000000
4.074114102000,-0.145000000000
4.081801014000,0.206000000000
4.089487926000,0.898000000000
4.097174838000,1.676000000000
4.104861750000,1.907000000000
4.112548662000,0.841000000000
4.120235574000,-0.514000000000
4.127922486000,-0.519000000000
4.135609398000,-0.039000000000
4.143296310000,-0.164000000000
4.150983222000,-0.265000000000
4.158670134000,-0.132000000000
4.166357046000,-0.137000000000
4.174043958000,-0.174000000000
4.181730870000,-0.120000000000
4.189417782000,-0.093000000000
4.197104694000,-0.098000000000
4.204791606000,-0.071000000000
4.212478518000,-0.044000000000
4.220165430000,-0.029000000000
4.227852342000,-0.009000000000
4.235539254000,0.017000000000
4.243226166000,0.039000000000
4.250913078000,0.068000000000
4.258599990000,0.100000000000
4.266286902000,0.135000000000
4.273973814000,0.172000000000
4.281660726000,0.214000000000
4.289347638000,0.256000000000
4.297034550000,0.295000000000
4.304721462000,0.327000000000
4.312408374000,0.347000000000
4.320095286000,0.356000000000
4.327782198000,0.354000000000
4.335469110000,0.342000000000
4.343156022000,0.317000000000
4.350842934000,0.275000000000
4.358529846000,0.204000000000
4.366216758000,0.108000000000
4.373903670000,0.000000000000
4.381590582000,-0.098000000000
4.389277494000,-0.179000000000
4.396964406000,-0.241000000000
4.404651318000,-0.278000000000
4.412338230000,-0.297000000000
4.420025142000,-0.302000000000
4.427712114000,-0.300000000000
4.435399235000,-0.292000000000
4.443086356000,-0.283000000000
4.450773477000,-0.270000000000
4.458460598000,-0.258000000000
4.466147719000,-0.246000000000
4.473834840000,-0.233000000000
4.481521961000,-0.224000000000
4.489209082000,-0.216000000000
4.496896203000,-0.206000000000
4.504583324000,-0.196000000000
4.512270445000,-0.192000000000
4.519957566000,-0.189000000000
4.527644687000,-0.182000000000
4.535331808000,-0.179000000000
4.543018929000,-0.177000000000
4.550706050000,-0.177000000000
4.558393171000,-0.174000000000
4.566080292000,-0.172000000000
4.573767413000,-0.169000000000
4.581454534000,-0.169000000000
4.589141655000,-0.167000000000
4.596828776000,-0.164000000000
4.604515897000,-0.160000000000
4.612203018000,-0.157000000000
4.619890139000,-0.155000000000
4.627577260000,-0.150000000000
4.635264381000,-0.147000000000
4.642951502000,-0.145000000000
4.650638623000,-0.140000000000
4.658325744000,-0.135000000000
4.666012865000,-0.135000000000
4.673699986000,-0.130000000000
4.681387107000,-0.125000000000
4.689074228000,-0.120000000000
4.696761349000,-0.118000000000
4.704448470000,-0.113000000000
4.712135591000,-0.110000000000
4.719822712000,-0.105000000000
4.727509833000,-0.103000000000
4.735196954000,-0.100000000000
4.742884075000,-0.098000000000
4.750571196000,-0.093000000000
4.758258317000,-0.091000000000
4.765945438000,-0.088000000000
4.773632559000,-0.091000000000
4.781319680000,-0.088000000000
4.789006801000,-0.081000000000
4.796693922000,-0.066000000000
4.804381043000,-0.044000000000
4.812068164000,-0.034000000000
4.819755285000,-0.041000000000
4.827442406000,-0.041000000000
4.835129527000,-0.046000000000
4.842816648000,-0.076000000000
4.850503769000,-0.100000000000
4.858190890000,-0.096000000000
4.865878011000,-0.086000000000
4.873565132000,-0.086000000000
4.881252253000,-0.083000000000
4.888939374000,-0.078000000000
4.896626495000,-0.078000000000
4.904313616000,-0.078000000000
4.912000737000,-0.081000000000
4.919687858000,-0.105000000000
4.927374979000,-0.162000000000
4.935062100000,-0.182000000000
4.942749221000,0.054000000000
4.950436342000,0.667000000000
4.958123463000,1.481000000000
4.965810584000,2.016000000000
4.973497705000,1.363000000000
4.981184826000,-0.174000000000
4.988872011000,-0.669000000000
4.996559132000,-0.135000000000
5.004246253000,-0.073000000000
5.011933374000,-0.278000000000
5.019620495000,-0.182000000000
5.027307616000,-0.120000000000
5.034994737000,-0.179000000000
5.042681858000,-0.150000000000
5.050368979000,-0.100000000000
5.058056100000,-0.103000000000
5.065743221000,-0.088000000000
5.073430342000,-0.056000000000
5.081117463000,-0.039000000000
5.088804584000,-0.022000000000
5.096491705000,0.004000000000
5.104178826000,0.029000000000
5.111865947000,0.054000000000
5.119553068000,0.086000000000
5.127240189000,0.118000000000
5.134927310000,0.155000000000
5.142614431000,0.194000000000
5.150301552000,0.233000000000
5.157988673000,0.275000000000
5.165675794000,0.310000000000
5.173362915000,0.337000000000
5.181050036000,0.352000000000
5.188737157000,0.354000000000
5.196424278000,0.347000000000
5.204111399000,0.329000000000
5.211798520000,0.297000000000
5.219485641000,0.241000000000
5.227172762000,0.157000000000
5.234859883000,0.054000000000
5.242547004000,-0.049000000000
5.250234125000,-0.140000000000
5.257921246000,-0.214000000000
5.265608367000,-0.263000000000
5.273295488000,-0.292000000000
5.280982609000,-0.302000000000
5.288669730000,-0.302000000000
5.296356851000,-0.297000000000
5.304043972000,-0.288000000000
5.311731093000,-0.278000000000
5.319418214000,-0.265000000000
5.327105335000,-0.253000000000
5.334792456000,-0.241000000000
5.342479577000,-0.228000000000
5.350166698000,-0.216000000000
5.357853819000,-0.209000000000
5.365540940000,-0.201000000000
5.373228061000,-0.194000000000
5.380915182000,-0.192000000000
5.388602303000,-0.187000000000
5.396289424000,-0.182000000000
5.403976545000,-0.179000000000
5.411663666000,-0.177000000000
5.419350787000,-0.174000000000
5.427037908000,-0.172000000000
5.434725029000,-0.169000000000
5.442412150000,-0.167000000000
5.450099271000,-0.167000000000
5.457786392000,-0.164000000000
5.465473513000,-0.162000000000
5.473160634000,-0.160000000000
5.480847755000,-0.155000000000
5.488534876000,-0.152000000000
5.496221997000,-0.147000000000
5.503909118000,-0.145000000000
5.511596239000,-0.140000000000
5.519283360000,-0.135000000000
5.526970481000,-0.132000000000
5.534657602000,-0.130000000000
5.542344723000,-0.125000000000
5.550031912000,-0.123000000000
5.557718685000,-0.118000000000
5.565405458000,-0.115000000000
5.573092231000,-0.110000000000
5.580779004000,-0.105000000000
5.588465777000,-0.105000000000
5.596152550000,-0.100000000000
5.603839323000,-0.096000000000
5.611526096000,-0.096000000000
5.619212869000,-0.093000000000
5.626899642000,-0.091000000000
5.634586415000,-0.091000000000
5.642273188000,-0.091000000000
5.649959961000,-0.086000000000
5.657646734000,-0.071000000000
5.665333507000,-0.049000000000
5.673020280000,-0.036000000000
5.680707053000,-0.041000000000
5.688393826000,-0.044000000000
5.696080599000,-0.046000000000
5.703767372000,-0.071000000000
5.711454145000,-0.100000000000
5.719140918000,-0.100000000000
5.726827691000,-0.088000000000
5.734514464000,-0.086000000000
5.742201237000,-0.086000000000
5.749888010000,-0.081000000000
5.757574783000,-0.081000000000
5.765261556000,-0.078000000000
5.772948329000,-0.081000000000
5.780635102000,-0.103000000000
5.788321875000,-0.157000000000
5.796008648000,-0.182000000000
5.803695421000,0.029000000000
5.811382194000,0.612000000000
5.819068967000,1.415000000000
5.826755740000,1.984000000000
5.834442513000,1.432000000000
5.842129286000,-0.088000000000
5.849816059000,-0.684000000000
5.857502832000,-0.169000000000
5.865189605000,-0.064000000000
5.872876378000,-0.273000000000
5.880563151000,-0.192000000000
5.888249924000,-0.120000000000
5.895936697000,-0.174000000000
5.903623470000,-0.150000000000
5.911310243000,-0.100000000000
5.918997016000,-0.100000000000
5.926683789000,-0.088000000000
5.934370562000,-0.056000000000
5.942057335000,-0.039000000000
5.949744108000,-0.022000000000
5.957430881000,0.004000000000
5.965117654000,0.032000000000
5.972804427000,0.056000000000
5.980491200000,0.086000000000
5.988177973000,0.118000000000
5.995864746000,0.152000000000
6.003551519000,0.194000000000
6.011238292000,0.236000000000
6.018925065000,0.273000000000
6.026611838000,0.307000000000
6.034298611000,0.334000000000
6.041985384000,0.349000000000
6.049672157000,0.352000000000
6.057358930000,0.347000000000
6.065045703000,0.329000000000
6.072732476000,0.300000000000
6.080419249000,0.248000000000
6.088106022000,0.167000000000
6.095792795000,0.064000000000
6.103479568000,-0.036000000000
6.111166378000,-0.130000000000
6.118853430000,-0.206000000000
6.126540482000,-0.258000000000
6.134227534000,-0.288000000000
6.141914586000,-0.300000000000
6.149601638000,-0.300000000000
6.157288690000,-0.295000000000
6.164975742000,-0.288000000000
6.172662794000,-0.275000000000
6.180349846000,-0.265000000000
6.188036898000,-0.253000000000
6.195723950000,-0.241000000000
6.203411002000,-0.228000000000
6.211098054000,-0.219000000000
6.218785106000,-0.209000000000
6.226472158000,-0.201000000000
6.234159210000,-0.194000000000
6.241846262000,-0.189000000000
6.249533314000,-0.184000000000
6.257220366000,-0.182000000000
6.264907418000,-0.179000000000
6.272594470000,-0.177000000000
6.280281522000,-0.174000000000
6.287968574000,-0.172000000000
6.295655626000,-0.169000000000
6.303342678000,-0.167000000000
6.311029730000,-0.164000000000
6.318716782000,-0.164000000000
6.326403834000,-0.162000000000
6.334090886000,-0.160000000000
6.341777938000,-0.155000000000
6.349464990000,-0.152000000000
6.357152042000,-0.147000000000
6.364839094000,-0.142000000000
6.372526146000,-0.140000000000
6.380213198000,-0.135000000000
6.387900250000,-0.132000000000
6.395587302000,-0.128000000000
6.403274354000,-0.125000000000
6.410961406000,-0.123000000000
6.418648458000,-0.118000000000
6.426335510000,-0.113000000000
6.434022562000,-0.110000000000
6.441709614000,-0.105000000000
6.449396666000,-0.103000000000
6.457083718000,-0.100000000000
6.464770770000,-0.098000000000
6.472457822000,-0.096000000000
6.480144874000,-0.091000000000
6.487831926000,-0.091000000000
6.495518978000,-0.091000000000
6.503206030000,-0.088000000000
6.510893082000,-0.081000000000
6.518580134000,-0.066000000000
6.526267186000,-0.044000000000
6.533954238000,-0.034000000000
6.541641290000,-0.044000000000
6.549328342000,-0.044000000000
6.557015394000,-0.046000000000
6.564702446000,-0.076000000000
6.572389498000,-0.103000000000
6.580076550000,-0.098000000000
6.587763602000,-0.086000000000
6.595450654000,-0.083000000000
6.603137706000,-0.086000000000
6.610824758000,-0.083000000000
6.618511810000,-0.081000000000
6.626198862000,-0.078000000000
6.633885914000,-0.086000000000
6.641572966000,-0.115000000000
6.649260018000,-0.174000000000
6.656947070000,-0.162000000000
6.664634122000,0.142000000000
6.672321188000,0.804000000000
6.680008309000,1.597000000000
6.687695430000,1.932000000000
6.695382551000,1.004000000000
6.703069672000,-0.420000000000
6.710756793000,-0.573000000000
6.718443914000,-0.068000000000
6.726131035000,-0.142000000000
6.733818156000,-0.270000000000
6.741505277000,-0.142000000000
6.749192398000,-0.130000000000
6.756879519000,-0.177000000000
6.764566640000,-0.130000000000
6.772253761000,-0.093000000000
6.779940882000,-0.096000000000
6.787628003000,-0.076000000000
6.795315124000,-0.051000000000
6.803002245000,-0.036000000000
6.810689366000,-0.014000000000
6.818376487000,0.014000000000
6.826063608000,0.036000000000
6.833750729000,0.064000000000
6.841437850000,0.093000000000
6.849124971000,0.123000000000
6.856812092000,0.157000000000
6.864499213000,0.196000000000
6.872186334000,0.238000000000
6.879873455000,0.278000000000
6.887560576000,0.310000000000
6.895247697000,0.334000000000
6.902934818000,0.347000000000
6.910621939000,0.344000000000
6.918309060000,0.334000000000
6.925996181000,0.317000000000
6.933683302000,0.288000000000
6.941370423000,0.228000000000
6.949057544000,0.145000000000
6.956744665000,0.041000000000
6.964431786000,-0.061000000000
6.972118907000,-0.150000000000
6.979806028000,-0.219000000000
6.987493149000,-0.263000000000
6.995180270000,-0.290000000000
7.002867391000,-0.302000000000
7.010554512000,-0.300000000000
7.018241633000,-0.290000000000
7.025928754000,-0.280000000000
7.033615875000,-0.270000000000
7.041302996000,-0.260000000000
7.048990117000,-0.248000000000
7.056677238000,-0.236000000000
7.064364359000,-0.224000000000
7.072051480000,-0.214000000000
7.079738601000,-0.204000000000
7.087425722000,-0.196000000000
7.095112843000,-0.194000000000
7.102799964000,-0.189000000000
7.110487085000,-0.184000000000
7.118174206000,-0.179000000000
7.125861327000,-0.179000000000
7.133548448000,-0.179000000000
7.141235569000,-0.172000000000
7.148922690000,-0.167000000000
7.156609811000,-0.167000000000
7.164296932000,-0.169000000000
7.171984053000,-0.167000000000
7.179671174000,-0.162000000000
7.187358295000,-0.160000000000
7.195045416000,-0.157000000000
7.202732537000,-0.152000000000
7.210419658000,-0.147000000000
7.218106779000,-0.145000000000
7.225793900000,-0.142000000000
7.233481085000,-0.140000000000
7.241168067000,-0.135000000000
7.248855049000,-0.128000000000
7.256542031000,-0.123000000000
7.264229013000,-0.120000000000
7.271915995000,-0.118000000000
7.279602977000,-0.113000000000
7.287289959000,-0.110000000000
7.294976941000,-0.108000000000
7.302663923000,-0.103000000000
7.310350905000,-0.100000000000
7.318037887000,-0.100000000000
7.325724869000,-0.096000000000
7.333411851000,-0.081000000000
7.341098833000,-0.056000000000
7.348785815000,-0.039000000000
7.356472797000,-0.039000000000
7.364159779000,-0.046000000000
7.371846761000,-0.054000000000
7.379533743000,-0.078000000000
7.387220725000,-0.103000000000
7.394907707000,-0.103000000000
7.402594689000,-0.093000000000
7.410281671000,-0.091000000000
7.417968653000,-0.088000000000
7.425655635000,-0.081000000000
7.433342617000,-0.081000000000
7.441029599000,-0.081000000000
7.448716581000,-0.083000000000
7.456403563000,-0.098000000000
7.464090545000,-0.142000000000
7.471777527000,-0.169000000000
7.479464509000,0.007000000000
7.487151491000,0.539000000000
7.494838473000,1.292000000000
7.502525455000,1.853000000000
7.510212437000,1.400000000000
7.517899419000,-0.032000000000
7.525586401000,-0.676000000000
7.533273383000,-0.204000000000
7.540960365000,-0.061000000000
7.548647347000,-0.251000000000
7.556334329000,-0.169000000000
7.564021311000,-0.096000000000
7.571708293000,-0.155000000000
7.579395275000,-0.135000000000
7.587082257000,-0.086000000000
7.594769239000,-0.086000000000
7.602456221000,-0.073000000000
7.610143203000,-0.039000000000
7.617830185000,-0.022000000000
7.625517167000,-0.002000000000
7.633204149000,0.024000000000
7.640891131000,0.041000000000
7.648578113000,0.061000000000
7.656265095000,0.093000000000
7.663952077000,0.125000000000
7.671639059000,0.160000000000
7.679326041000,0.199000000000
7.687013023000,0.241000000000
7.694700005000,0.275000000000
7.702386987000,0.310000000000
7.710073969000,0.337000000000
7.717760951000,0.354000000000
7.725447933000,0.359000000000
7.733134915000,0.354000000000
7.740821897000,0.334000000000
7.748508879000,0.305000000000
7.756195861000,0.256000000000
7.763882843000,0.174000000000
7.771569825000,0.073000000000
7.779256807000,-0.029000000000
7.786943789000,-0.123000000000
7.794630812000,-0.199000000000
7.802317655000,-0.253000000000
7.810004498000,-0.283000000000
7.817691341000,-0.295000000000
7.825378184000,-0.297000000000
7.833065027000,-0.292000000000
7.840751870000,-0.283000000000
7.848438713000,-0.273000000000
7.856125556000,-0.263000000000
7.863812399000,-0.248000000000
7.871499242000,-0.236000000000
7.879186085000,-0.224000000000
7.886872928000,-0.214000000000
7.894559771000,-0.204000000000
7.902246614000,-0.199000000000
7.909933457000,-0.194000000000
7.917620300000,-0.189000000000
7.925307143000,-0.187000000000
7.932993986000,-0.182000000000
7.940680829000,-0.177000000000
7.948367672000,-0.174000000000
7.956054515000,-0.172000000000
7.963741358000,-0.169000000000
7.971428201000,-0.164000000000
7.979115044000,-0.162000000000
7.986801887000,-0.164000000000
7.994488730000,-0.160000000000
8.002175573000,-0.157000000000
8.009862416000,-0.155000000000
8.017549259000,-0.152000000000
8.025236102000,-0.147000000000
8.032922945000,-0.145000000000
8.040609788000,-0.142000000000
8.048296631000,-0.137000000000
8.055983474000,-0.132000000000
8.063670317000,-0.128000000000
8.071357160000,-0.125000000000
8.079044003000,-0.120000000000
8.086730846000,-0.118000000000
8.094417689000,-0.118000000000
8.102104532000,-0.115000000000
8.109791375000,-0.108000000000
8.117478218000,-0.091000000000
8.125165061000,-0.066000000000
8.132851904000,-0.051000000000
8.140538747000,-0.059000000000
8.148225590000,-0.061000000000
8.155912433000,-0.064000000000
8.163599276000,-0.091000000000
8.171286119000,-0.115000000000
8.178972962000,-0.113000000000
8.186659805000,-0.103000000000
8.194346648000,-0.100000000000
8.202033491000,-0.100000000000
8.209720334000,-0.096000000000
8.217407177000,-0.093000000000
8.225094020000,-0.091000000000
8.232780863000,-0.093000000000
8.240467706000,-0.115000000000
8.248154549000,-0.167000000000
8.255841392000,-0.192000000000
8.263528235000,0.012000000000
8.271215078000,0.580000000000
8.278901921000,1.356000000000
8.286588764000,1.895000000000
8.294275607000,1.351000000000
8.301962450000,-0.115000000000
8.309649293000,-0.676000000000
8.317336136000,-0.182000000000
8.325022979000,-0.081000000000
8.332709822000,-0.263000000000
8.340396665000,-0.174000000000
8.348083508000,-0.110000000000
8.355770361000,-0.167000000000
8.363457482000,-0.140000000000
8.371144603000,-0.093000000000
8.378831724000,-0.093000000000
8.386518845000,-0.078000000000
8.394205966000,-0.049000000000
8.401893087000,-0.034000000000
8.409580208000,-0.017000000000
8.417267329000,0.009000000000
8.424954450000,0.034000000000
8.432641571000,0.061000000000
8.440328692000,0.091000000000
8.448015813000,0.120000000000
8.455702934000,0.157000000000
8.463390055000,0.196000000000
8.471077176000,0.238000000000
8.478764297000,0.278000000000
8.486451418000,0.312000000000
8.494138539000,0.337000000000
8.501825660000,0.354000000000
8.509512781000,0.356000000000
8.517199902000,0.349000000000
8.524887023000,0.329000000000
8.532574144000,0.297000000000
8.540261265000,0.241000000000
8.547948386000,0.152000000000
8.555635507000,0.046000000000
8.563322628000,-0.056000000000
8.571009749000,-0.150000000000
8.578696870000,-0.221000000000
8.586383991000,-0.265000000000
8.594071112000,-0.292000000000
8.601758233000,-0.305000000000
8.609445354000,-0.305000000000
8.617132475000,-0.297000000000
8.624819596000,-0.288000000000
8.632506717000,-0.275000000000
8.640193838000,-0.265000000000
8.647880959000,-0.253000000000
8.655568080000,-0.241000000000
8.663255201000,-0.231000000000
8.670942322000,-0.219000000000
8.678629443000,-0.209000000000
8.686316564000,-0.204000000000
8.694003685000,-0.196000000000
8.701690806000,-0.194000000000
8.709377927000,-0.192000000000
8.717065048000,-0.187000000000
8.724752169000,-0.182000000000
8.732439290000,-0.179000000000
8.740126411000,-0.177000000000
8.747813532000,-0.174000000000
8.755500653000,-0.172000000000
8.763187774000,-0.169000000000
8.770874895000,-0.167000000000
8.778562016000,-0.164000000000
8.786249137000,-0.164000000000
8.793936258000,-0.162000000000
8.801623379000,-0.157000000000
8.809310500000,-0.152000000000
8.816997621000,-0.150000000000
8.824684742000,-0.147000000000
8.832371863000,-0.142000000000
8.840058984000,-0.137000000000
8.847746105000,-0.135000000000
8.855433226000,-0.130000000000
8.863120347000,-0.125000000000
8.870807468000,-0.123000000000
8.878494589000,-0.118000000000
8.886181710000,-0.115000000000
8.893868831000,-0.118000000000
8.901555952000,-0.118000000000
8.909243073000,-0.110000000000
8.916930258000,-0.093000000000
8.924617379000,-0.068000000000
8.932304500000,-0.054000000000
8.939991621000,-0.059000000000
8.947678742000,-0.064000000000
8.955365863000,-0.064000000000
8.963052984000,-0.086000000000
8.970740105000,-0.113000000000
8.978427226000,-0.115000000000
8.986114347000,-0.103000000000
8.993801468000,-0.100000000000
9.001488589000,-0.100000000000
9.009175710000,-0.096000000000
9.016862831000,-0.093000000000
9.024549952000,-0.093000000000
9.032237073000,-0.096000000000
9.039924194000,-0.113000000000
9.047611315000,-0.169000000000
9.055298436000,-0.194000000000
9.062985557000,0.019000000000
9.070672678000,0.603000000000
9.078359799000,1.395000000000
9.086046920000,1.962000000000
9.093734041000,1.405000000000
9.101421162000,-0.113000000000
9.109108283000,-0.691000000000
9.116795404000,-0.167000000000
9.124482525000,-0.064000000000
9.132169646000,-0.275000000000
9.139856767000,-0.192000000000
9.147543888000,-0.118000000000
9.155231009000,-0.174000000000
9.162918130000,-0.150000000000
9.170605251000,-0.098000000000
9.178292372000,-0.100000000000
9.185979493000,-0.088000000000
9.193666614000,-0.056000000000
9.201353735000,-0.039000000000
9.209040856000,-0.024000000000
9.216727977000,0.002000000000
9.224415098000,0.027000000000
9.232102219000,0.054000000000
9.239789340000,0.083000000000
9.247476461000,0.118000000000
9.255163582000,0.155000000000
9.262850703000,0.194000000000
9.270537824000,0.233000000000
9.278224945000,0.275000000000
9.285912066000,0.312000000000
9.293599187000,0.339000000000
9.301286308000,0.356000000000
9.308973429000,0.359000000000
9.316660550000,0.352000000000
9.324347671000,0.337000000000
9.332034792000,0.305000000000
9.339721913000,0.248000000000
9.347409034000,0.160000000000
9.355096155000,0.054000000000
9.362783276000,-0.051000000000
9.370470397000,-0.145000000000
9.378157518000,-0.219000000000
9.385844639000,-0.268000000000
9.393531760000,-0.295000000000
9.401218881000,-0.307000000000
9.408906002000,-0.307000000000
9.416593123000,-0.300000000000
9.424280244000,-0.290000000000
9.431967365000,-0.278000000000
9.439654486000,-0.265000000000
9.447341607000,-0.253000000000
9.455028728000,-0.243000000000
9.462715849000,-0.231000000000
9.470402970000,-0.221000000000
9.478090159000,-0.211000000000
9.485777002000,-0.204000000000
9.493463845000,-0.196000000000
9.501150688000,-0.194000000000
9.508837531000,-0.192000000000
9.516524374000,-0.187000000000
9.524211217000,-0.184000000000
9.531898060000,-0.184000000000
9.539584903000,-0.179000000000
9.547271746000,-0.177000000000
9.554958589000,-0.177000000000
9.562645432000,-0.174000000000
9.570332275000,-0.172000000000
9.578019118000,-0.169000000000
9.585705961000,-0.167000000000
9.593392804000,-0.162000000000
9.601079647000,-0.160000000000
9.608766490000,-0.157000000000
9.616453333000,-0.152000000000
9.624140176000,-0.147000000000
9.631827019000,-0.142000000000
9.639513862000,-0.140000000000
9.647200705000,-0.135000000000
9.654887548000,-0.130000000000
9.662574391000,-0.128000000000
9.670261234000,-0.123000000000
9.677948077000,-0.118000000000
9.685634920000,-0.113000000000
9.693321763000,-0.110000000000
9.701008606000,-0.113000000000
9.708695449000,-0.113000000000
9.716382292000,-0.105000000000
9.724069135000,-0.088000000000
9.731755978000,-0.064000000000
9.739442821000,-0.051000000000
9.747129664000,-0.056000000000
9.754816507000,-0.061000000000
9.762503350000,-0.061000000000
9.770190193000,-0.086000000000
9.777877036000,-0.115000000000
9.785563879000,-0.113000000000
9.793250722000,-0.100000000000
9.800937565000,-0.098000000000
9.808624408000,-0.098000000000
9.816311251000,-0.096000000000
9.823998094000,-0.093000000000
9.831684937000,-0.091000000000
9.839371780000,-0.093000000000
9.847058623000,-0.115000000000
9.854745466000,-0.172000000000
9.862432309000,-0.201000000000
9.870119152000,0.007000000000
9.877805995000,0.590000000000
9.885492838000,1.388000000000
9.893179681000,1.962000000000
9.900866524000,1.413000000000
9.908553367000,-0.108000000000
9.916240210000,-0.694000000000
9.923927053000,-0.169000000000
9.931613896000,-0.061000000000
9.939300739000,-0.275000000000
9.946987582000,-0.192000000000
9.954674425000,-0.118000000000
9.962361268000,-0.174000000000
9.970048111000,-0.152000000000
9.977734954000,-0.100000000000
9.985421797000,-0.103000000000
9.993108640000,-0.091000000000
10.000795483000,-0.059000000000
10.008482326000,-0.039000000000
10.016169169000,-0.022000000000
10.023856012000,0.002000000000
10.031542855000,0.027000000000
10.039229712000,0.051000000000
10.046916694000,0.081000000000
10.054603676000,0.115000000000
10.062290658000,0.150000000000
10.069977640000,0.187000000000
10.077664622000,0.228000000000
10.085351604000,0.268000000000
10.093038586000,0.302000000000
10.100725568000,0.329000000000
10.108412550000,0.347000000000
10.116099532000,0.349000000000
10.123786514000,0.342000000000
10.131473496000,0.324000000000
10.139160478000,0.295000000000
10.146847460000,0.241000000000
10.154534442000,0.160000000000
10.162221424000,0.056000000000
10.169908406000,-0.049000000000
10.177595388000,-0.140000000000
10.185282370000,-0.214000000000
10.192969352000,-0.265000000000
10.200656334000,-0.292000000000
10.208343316000,-0.302000000000
10.216030298000,-0.305000000000
10.223717280000,-0.302000000000
10.231404262000,-0.292000000000
10.239091244000,-0.280000000000
10.246778226000,-0.265000000000
10.254465208000,-0.256000000000
10.262152190000,-0.243000000000
10.269839172000,-0.228000000000
10.277526154000,-0.219000000000
10.285213136000,-0.211000000000
10.292900118000,-0.204000000000
10.300587100000,-0.199000000000
10.308274082000,-0.194000000000
10.315961064000,-0.189000000000
10.323648046000,-0.187000000000
10.331335028000,-0.184000000000
10.339022010000,-0.182000000000
10.346708992000,-0.179000000000
10.354395974000,-0.177000000000
10.362082956000,-0.174000000000
10.369769938000,-0.172000000000
10.377456920000,-0.169000000000
10.385143902000,-0.167000000000
10.392830884000,-0.164000000000
10.400517866000,-0.162000000000
10.408204848000,-0.157000000000
10.415891830000,-0.155000000000
10.423578812000,-0.150000000000
10.431265794000,-0.147000000000
10.438952776000,-0.142000000000
10.446639758000,-0.137000000000
10.454326740000,-0.132000000000
10.462013722000,-0.130000000000
10.469700704000,-0.125000000000
10.477387686000,-0.120000000000
10.485074668000,-0.118000000000
10.492761650000,-0.113000000000
10.500448632000,-0.110000000000
10.508135614000,-0.110000000000
10.515822596000,-0.108000000000
10.523509578000,-0.100000000000
10.531196560000,-0.081000000000
10.538883542000,-0.056000000000
10.546570524000,-0.049000000000
10.554257506000,-0.056000000000
10.561944488000,-0.059000000000
10.569631470000,-0.066000000000
10.577318452000,-0.098000000000
10.585005434000,-0.115000000000
10.592692416000,-0.108000000000
10.600379435000,-0.100000000000
10.608066556000,-0.100000000000
10.615753677000,-0.098000000000
10.623440798000,-0.096000000000
10.631127919000,-0.093000000000
10.638815040000,-0.091000000000
10.646502161000,-0.098000000000
10.654189282000,-0.128000000000
10.661876403000,-0.187000000000
10.669563524000,-0.172000000000
10.677250645000,0.135000000000
10.684937766000,0.792000000000
10.692624887000,1.577000000000
10.700312008000,1.925000000000
10.707999129000,1.009000000000
10.715686250000,-0.425000000000
10.723373371000,-0.590000000000
10.731060492000,-0.076000000000
10.738747613000,-0.142000000000
10.746434734000,-0.278000000000
10.754121855000,-0.152000000000
10.761808976000,-0.135000000000
10.769496097000,-0.184000000000
10.777183218000,-0.137000000000
10.784870339000,-0.100000000000
10.792557460000,-0.105000000000
10.800244581000,-0.083000000000
10.807931702000,-0.054000000000
10.815618823000,-0.039000000000
10.823305944000,-0.019000000000
10.830993065000,0.009000000000
10.838680186000,0.034000000000
10.846367307000,0.061000000000
10.854054428000,0.091000000000
10.861741549000,0.123000000000
10.869428670000,0.157000000000
10.877115791000,0.196000000000
10.884802912000,0.241000000000
10.892490033000,0.280000000000
10.900177154000,0.312000000000
10.907864275000,0.332000000000
10.915551396000,0.339000000000
10.923238517000,0.339000000000
10.930925638000,0.334000000000
10.938612759000,0.315000000000
10.946299880000,0.278000000000
10.953987001000,0.216000000000
10.961674122000,0.132000000000
10.969361243000,0.029000000000
10.977048364000,-0.071000000000
10.984735485000,-0.157000000000
10.992422606000,-0.224000000000
11.000109727000,-0.268000000000
11.007796848000,-0.292000000000
11.015483969000,-0.300000000000
11.023171090000,-0.297000000000
11.030858211000,-0.292000000000
11.038545332000,-0.283000000000
11.046232453000,-0.268000000000
11.053919574000,-0.258000000000
11.061606695000,-0.246000000000
11.069293816000,-0.231000000000
11.076980937000,-0.221000000000
11.084668058000,-0.216000000000
11.092355179000,-0.206000000000
11.100042300000,-0.196000000000
11.107729421000,-0.189000000000
11.115416542000,-0.187000000000
11.123103663000,-0.179000000000
11.130790784000,-0.179000000000
11.138477905000,-0.182000000000
11.146165026000,-0.177000000000
11.153852147000,-0.172000000000
11.161539332000,-0.172000000000
11.169226384000,-0.172000000000
11.176913436000,-0.172000000000
11.184600488000,-0.167000000000
11.192287540000,-0.157000000000
11.199974592000,-0.152000000000
11.207661644000,-0.155000000000
11.215348696000,-0.152000000000
11.223035748000,-0.150000000000
11.230722800000,-0.145000000000
11.238409852000,-0.142000000000
11.246096904000,-0.140000000000
11.253783956000,-0.132000000000
11.261471008000,-0.125000000000
11.269158060000,-0.120000000000
11.276845112000,-0.115000000000
11.284532164000,-0.118000000000
11.292219216000,-0.120000000000
11.299906268000,-0.115000000000
11.307593320000,-0.098000000000
11.315280372000,-0.076000000000
11.322967424000,-0.056000000000
11.330654476000,-0.054000000000
11.338341528000,-0.056000000000
11.346028580000,-0.059000000000
11.353715632000,-0.076000000000
11.361402684000,-0.100000000000
11.369089736000,-0.103000000000
11.376776788000,-0.098000000000
11.384463840000,-0.096000000000
11.392150892000,-0.091000000000
11.399837944000,-0.083000000000
11.407524996000,-0.083000000000
11.415212048000,-0.083000000000
11.422899100000,-0.083000000000
11.430586152000,-0.098000000000
11.438273204000,-0.142000000000
11.445960256000,-0.177000000000
11.453647308000,-0.032000000000
11.461334360000,0.482000000000
11.469021412000,1.248000000000
11.476708464000,1.861000000000
11.484395516000,1.501000000000
11.492082568000,0.078000000000
11.499769620000,-0.679000000000
11.507456672000,-0.236000000000
11.515143724000,-0.046000000000
11.522830776000,-0.243000000000
11.530517828000,-0.174000000000
11.538204880000,-0.083000000000
11.545891932000,-0.140000000000
11.553578984000,-0.128000000000
11.561266036000,-0.073000000000
11.568953088000,-0.068000000000
11.576640140000,-0.056000000000
11.584327192000,-0.029000000000
11.592014244000,-0.014000000000
11.599701296000,0.002000000000
11.607388348000,0.034000000000
11.615075400000,0.061000000000
11.622762452000,0.083000000000
11.630449504000,0.113000000000
11.638136556000,0.145000000000
11.645823608000,0.182000000000
11.653510660000,0.216000000000
11.661197712000,0.256000000000
11.668884764000,0.300000000000
11.676571816000,0.339000000000
11.684258868000,0.364000000000
11.691945920000,0.384000000000
11.699632972000,0.393000000000
11.707320024000,0.386000000000
11.715007076000,0.364000000000
11.722694146000,0.337000000000
11.730380919000,0.285000000000
11.738067692000,0.194000000000
11.745754465000,0.091000000000
11.753441238000,-0.004000000000
11.761128011000,-0.098000000000
11.768814784000,-0.184000000000
11.776501557000,-0.243000000000
11.784188330000,-0.270000000000
11.791875103000,-0.278000000000
11.799561876000,-0.278000000000
11.807248649000,-0.273000000000
11.814935422000,-0.265000000000
11.822622195000,-0.251000000000
11.830308968000,-0.231000000000
11.837995741000,-0.216000000000
11.845682514000,-0.209000000000
11.853369287000,-0.196000000000
11.861056060000,-0.184000000000
11.868742833000,-0.182000000000
11.876429606000,-0.172000000000
11.884116379000,-0.160000000000
11.891803152000,-0.157000000000
11.899489925000,-0.155000000000
11.907176698000,-0.147000000000
11.914863471000,-0.147000000000
11.922550244000,-0.145000000000
11.930237017000,-0.140000000000
11.937923790000,-0.135000000000
11.945610563000,-0.130000000000
11.953297336000,-0.132000000000
11.960984109000,-0.135000000000
11.968670882000,-0.128000000000
11.976357655000,-0.118000000000
11.984044428000,-0.128000000000
11.991731201000,-0.130000000000
11.999417974000,-0.115000000000
12.007104747000,-0.105000000000
12.014791520000,-0.108000000000
12.022478293000,-0.105000000000
12.030165066000,-0.093000000000
12.037851839000,-0.091000000000
12.045538612000,-0.091000000000
12.053225385000,-0.088000000000
12.060912158000,-0.078000000000
12.068598931000,-0.073000000000
12.076285704000,-0.086000000000
12.083972477000,-0.091000000000
12.091659250000,-0.076000000000
12.099346023000,-0.054000000000
12.107032796000,-0.039000000000
12.114719569000,-0.036000000000
12.122406342000,-0.032000000000
12.130093115000,-0.024000000000
12.137779888000,-0.027000000000
12.145466661000,-0.051000000000
12.153153434000,-0.071000000000
12.160840207000,-0.059000000000
12.168526980000,-0.044000000000
12.176213753000,-0.051000000000
12.183900526000,-0.066000000000
12.191587299000,-0.061000000000
12.199274072000,-0.049000000000
12.206960845000,-0.049000000000
12.214647618000,-0.059000000000
12.222334391000,-0.091000000000
12.230021164000,-0.150000000000
12.237707937000,-0.076000000000
12.245394710000,0.379000000000
12.253081483000,1.157000000000
12.260768256000,1.868000000000
12.268455029000,1.804000000000
12.276141802000,0.492000000000
12.283828608000,-0.642000000000
12.291515729000,-0.366000000000
12.299202850000,0.009000000000
12.306889971000,-0.187000000000
12.314577092000,-0.196000000000
12.322264213000,-0.066000000000
12.329951334000,-0.103000000000
12.337638455000,-0.115000000000
12.345325576000,-0.056000000000
12.353012697000,-0.046000000000
12.360699818000,-0.044000000000
12.368386939000,-0.014000000000
12.376074060000,0.007000000000
12.383761181000,0.024000000000
12.391448302000,0.051000000000
12.399135423000,0.083000000000
12.406822544000,0.105000000000
12.414509665000,0.128000000000
12.422196786000,0.162000000000
12.429883907000,0.206000000000
12.437571028000,0.251000000000
12.445258149000,0.295000000000
12.452945270000,0.337000000000
12.460632391000,0.381000000000
12.468319512000,0.420000000000
12.476006633000,0.438000000000
12.483693754000,0.435000000000
12.491380875000,0.438000000000
12.499067996000,0.428000000000
12.506755117000,0.393000000000
12.514442238000,0.334000000000
12.522129359000,0.253000000000
12.529816480000,0.140000000000
12.537503601000,0.012000000000
12.545190722000,-0.103000000000
12.552877843000,-0.192000000000
12.560564964000,-0.243000000000
12.568252085000,-0.275000000000
12.575939206000,-0.297000000000
12.583626327000,-0.300000000000
12.591313448000,-0.295000000000
12.599000569000,-0.292000000000
12.606687690000,-0.280000000000
12.614374811000,-0.258000000000
12.622061932000,-0.241000000000
12.629749053000,-0.228000000000
12.637436174000,-0.216000000000
12.645123295000,-0.211000000000
12.652810416000,-0.209000000000
12.660497537000,-0.194000000000
12.668184658000,-0.184000000000
12.675871779000,-0.174000000000
12.683558900000,-0.164000000000
12.691246021000,-0.169000000000
12.698933142000,-0.164000000000
12.706620263000,-0.157000000000
12.714307384000,-0.169000000000
12.721994505000,-0.174000000000
12.729681626000,-0.162000000000
12.737368747000,-0.155000000000
12.745055868000,-0.150000000000
12.752742989000,-0.152000000000
12.760430110000,-0.152000000000
12.768117231000,-0.155000000000
12.775804352000,-0.150000000000
12.783491473000,-0.150000000000
12.791178594000,-0.157000000000
12.798865715000,-0.147000000000
12.806552836000,-0.130000000000
12.814239957000,-0.115000000000
12.821927078000,-0.098000000000
12.829614199000,-0.093000000000
12.837301320000,-0.088000000000
12.844988509000,-0.088000000000
12.852675352000,-0.113000000000
12.860362195000,-0.137000000000
12.868049038000,-0.135000000000
12.875735881000,-0.118000000000
12.883422724000,-0.113000000000
12.891109567000,-0.115000000000
12.898796410000,-0.118000000000
12.906483253000,-0.108000000000
12.914170096000,-0.103000000000
12.921856939000,-0.123000000000
12.929543782000,-0.157000000000
12.937230625000,-0.209000000000
12.944917468000,-0.211000000000
12.952604311000,0.120000000000
12.960291154000,0.881000000000
12.967977997000,1.683000000000
12.975664840000,1.907000000000
12.983351683000,0.901000000000
12.991038526000,-0.507000000000
12.998725369000,-0.603000000000
13.006412212000,-0.078000000000
13.014099055000,-0.162000000000
13.021785898000,-0.273000000000
13.029472741000,-0.125000000000
13.037159584000,-0.123000000000
13.044846427000,-0.174000000000
13.052533270000,-0.115000000000
13.060220113000,-0.088000000000
13.067906956000,-0.098000000000
13.075593799000,-0.064000000000
13.083280642000,-0.029000000000
13.090967485000,-0.017000000000
13.098654328000,0.004000000000
13.106341171000,0.041000000000
13.114028014000,0.066000000000
13.121714857000,0.088000000000
13.129401700000,0.120000000000
13.137088543000,0.162000000000
13.144775386000,0.211000000000
13.152462229000,0.260000000000
13.160149072000,0.307000000000
13.167835915000,0.349000000000
13.175522758000,0.388000000000
13.183209601000,0.408000000000
13.190896444000,0.413000000000
13.198583287000,0.411000000000
13.206270130000,0.393000000000
13.213956973000,0.356000000000
13.221643816000,0.290000000000
13.229330659000,0.192000000000
13.237017502000,0.068000000000
13.244704345000,-0.054000000000
13.252391188000,-0.162000000000
13.260078031000,-0.253000000000
13.267764874000,-0.315000000000
13.275451717000,-0.347000000000
13.283138560000,-0.356000000000
13.290825403000,-0.356000000000
13.298512246000,-0.349000000000
13.306199089000,-0.342000000000
13.313885932000,-0.332000000000
13.321572775000,-0.315000000000
13.329259618000,-0.300000000000
13.336946461000,-0.288000000000
13.344633304000,-0.275000000000
13.352320147000,-0.260000000000
13.360006990000,-0.253000000000
13.367693833000,-0.243000000000
13.375380676000,-0.233000000000
13.383067519000,-0.226000000000
13.390754362000,-0.219000000000
13.398441205000,-0.216000000000
13.406128062000,-0.211000000000
13.413815044000,-0.209000000000
13.421502026000,-0.204000000000
13.429189008000,-0.201000000000
13.436875990000,-0.204000000000
13.444562972000,-0.204000000000
13.452249954000,-0.199000000000
13.459936936000,-0.196000000000
13.467623918000,-0.199000000000
13.475310900000,-0.194000000000
13.482997882000,-0.187000000000
13.490684864000,-0.187000000000
13.498371846000,-0.192000000000
13.506058828000,-0.194000000000
13.513745810000,-0.192000000000
13.521432792000,-0.179000000000
13.529119774000,-0.162000000000
13.536806756000,-0.152000000000
13.544493738000,-0.145000000000
13.552180720000,-0.128000000000
13.559867702000,-0.120000000000
13.567554684000,-0.145000000000
13.575241666000,-0.169000000000
13.582928648000,-0.169000000000
13.590615630000,-0.162000000000
13.598302612000,-0.160000000000
13.605989594000,-0.152000000000
13.613676576000,-0.147000000000
13.621363558000,-0.145000000000
13.629050540000,-0.142000000000
13.636737522000,-0.147000000000
13.644424504000,-0.177000000000
13.652111486000,-0.241000000000
13.659798468000,-0.246000000000
13.667485450000,0.068000000000
13.675172432000,0.780000000000
13.682859414000,1.614000000000
13.690546396000,2.001000000000
13.698233378000,1.093000000000
13.705920360000,-0.445000000000
13.713607342000,-0.696000000000
13.721294324000,-0.130000000000
13.728981306000,-0.164000000000
13.736668288000,-0.332000000000
13.744355270000,-0.201000000000
13.752042252000,-0.169000000000
13.759729234000,-0.226000000000
13.767416216000,-0.182000000000
13.775103198000,-0.142000000000
13.782790180000,-0.145000000000
13.790477162000,-0.125000000000
13.798164144000,-0.093000000000
13.805851126000,-0.076000000000
13.813538108000,-0.054000000000
13.821225090000,-0.027000000000
13.828912072000,0.000000000000
13.836599054000,0.032000000000
13.844286036000,0.068000000000
13.851973018000,0.108000000000
13.859660000000,0.150000000000
13.867346982000,0.194000000000
13.875033964000,0.243000000000
13.882720946000,0.290000000000
13.890407928000,0.327000000000
13.898094910000,0.352000000000
13.905781892000,0.364000000000
13.913468874000,0.364000000000
13.921155856000,0.352000000000
13.928842838000,0.324000000000
13.936529820000,0.273000000000
13.944216802000,0.187000000000
13.951903784000,0.071000000000
13.959590766000,-0.046000000000
13.967277785000,-0.155000000000
13.974964767000,-0.243000000000
13.982651749000,-0.305000000000
13.990338731000,-0.339000000000
13.998025713000,-0.352000000000
14.005712695000,-0.354000000000
14.013399677000,-0.347000000000
14.021086659000,-0.339000000000
14.028773641000,-0.324000000000
14.036460623000,-0.310000000000
14.044147605000,-0.297000000000
14.051834587000,-0.288000000000
14.059521569000,-0.273000000000
14.067208551000,-0.263000000000
14.074895533000,-0.253000000000
14.082582515000,-0.243000000000
14.090269497000,-0.236000000000
14.097956479000,-0.228000000000
14.105643461000,-0.221000000000
14.113330443000,-0.216000000000
14.121017425000,-0.211000000000
14.128704407000,-0.206000000000
14.136391389000,-0.201000000000
14.144078371000,-0.201000000000
14.151765353000,-0.196000000000
14.159452335000,-0.194000000000
14.167139317000,-0.192000000000
14.174826299000,-0.189000000000
14.182513281000,-0.187000000000
14.190200263000,-0.184000000000
14.197887245000,-0.182000000000
14.205574227000,-0.177000000000
14.213261209000,-0.172000000000
14.220948191000,-0.167000000000
14.228635173000,-0.162000000000
14.236322155000,-0.157000000000
14.244009137000,-0.155000000000
14.251696119000,-0.155000000000
14.259383101000,-0.160000000000
14.267070083000,-0.162000000000
14.274757065000,-0.155000000000
14.282444047000,-0.135000000000
14.290131029000,-0.118000000000
14.297818011000,-0.113000000000
14.305504993000,-0.100000000000
14.313191975000,-0.088000000000
14.320878957000,-0.096000000000
14.328565939000,-0.120000000000
14.336252921000,-0.135000000000
14.343939903000,-0.130000000000
14.351626885000,-0.125000000000
14.359313867000,-0.123000000000
14.367000849000,-0.118000000000
14.374687831000,-0.115000000000
14.382374813000,-0.113000000000
14.390061795000,-0.110000000000
14.397748777000,-0.123000000000
14.405435759000,-0.160000000000
14.413122741000,-0.216000000000
14.420809723000,-0.140000000000
14.428496705000,0.288000000000
14.436183687000,1.026000000000
14.443870669000,1.802000000000
14.451557651000,1.900000000000
14.459244633000,0.627000000000
14.466931615000,-0.676000000000
14.474618597000,-0.475000000000
14.482305579000,-0.009000000000
14.489992561000,-0.219000000000
14.497679543000,-0.290000000000
14.505366525000,-0.142000000000
14.513053507000,-0.167000000000
14.520740489000,-0.201000000000
14.528427512000,-0.135000000000
14.536114355000,-0.113000000000
14.543801198000,-0.120000000000
14.551488041000,-0.088000000000
14.559174884000,-0.059000000000
14.566861727000,-0.049000000000
14.574548570000,-0.024000000000
14.582235413000,0.007000000000
14.589922256000,0.034000000000
14.597609099000,0.064000000000
14.605295942000,0.100000000000
14.612982785000,0.137000000000
14.620669628000,0.179000000000
14.628356471000,0.226000000000
14.636043314000,0.273000000000
14.643730157000,0.315000000000
14.651417000000,0.352000000000
14.659103843000,0.374000000000
14.666790686000,0.384000000000
14.674477529000,0.384000000000
14.682164372000,0.371000000000
14.689851215000,0.342000000000
14.697538058000,0.288000000000
14.705224901000,0.199000000000
14.712911744000,0.086000000000
14.720598587000,-0.029000000000
14.728285430000,-0.135000000000
14.735972273000,-0.216000000000
14.743659116000,-0.273000000000
14.751345959000,-0.305000000000
14.759032802000,-0.317000000000
14.766719645000,-0.320000000000
14.774406488000,-0.312000000000
14.782093331000,-0.302000000000
14.789780174000,-0.292000000000
14.797467017000,-0.278000000000
14.805153860000,-0.263000000000
14.812840703000,-0.253000000000
14.820527546000,-0.241000000000
14.828214389000,-0.231000000000
14.835901232000,-0.224000000000
14.843588075000,-0.216000000000
14.851274918000,-0.206000000000
14.858961761000,-0.201000000000
14.866648604000,-0.194000000000
14.874335447000,-0.192000000000
14.882022290000,-0.189000000000
14.889709133000,-0.184000000000
14.897395976000,-0.179000000000
14.905082819000,-0.177000000000
14.912769662000,-0.174000000000
14.920456505000,-0.172000000000
14.928143348000,-0.169000000000
14.935830191000,-0.167000000000
14.943517034000,-0.162000000000
14.951203877000,-0.160000000000
14.958890720000,-0.157000000000
14.966577563000,-0.155000000000
14.974264406000,-0.150000000000
14.981951249000,-0.147000000000
14.989638092000,-0.142000000000
14.997324935000,-0.140000000000
15.005011778000,-0.135000000000
15.012698621000,-0.130000000000
15.020385464000,-0.128000000000
15.028072307000,-0.125000000000
15.035759150000,-0.120000000000
15.043445993000,-0.115000000000
15.051132836000,-0.113000000000
15.058819679000,-0.110000000000
15.066506522000,-0.108000000000
15.074193365000,-0.103000000000
15.081880208000,-0.100000000000
15.089567061000,-0.100000000000
15.097254182000,-0.098000000000
15.104941303000,-0.096000000000
15.112628424000,-0.096000000000
15.120315545000,-0.098000000000
15.128002666000,-0.088000000000
15.135689787000,-0.066000000000
15.143376908000,-0.041000000000
15.151064029000,-0.039000000000
15.158751150000,-0.051000000000
15.166438271000,-0.049000000000
15.174125392000,-0.051000000000
15.181812513000,-0.081000000000
15.189499634000,-0.103000000000
15.197186755000,-0.100000000000
15.204873876000,-0.096000000000
15.212560997000,-0.096000000000
15.220248118000,-0.086000000000
15.227935239000,-0.081000000000
15.235622360000,-0.088000000000
15.243309481000,-0.086000000000
15.250996602000,-0.083000000000
15.258683723000,-0.098000000000
15.266370844000,-0.147000000000
15.274057965000,-0.194000000000
15.281745086000,-0.064000000000
15.289432207000,0.443000000000
15.297119328000,1.240000000000
15.304806449000,1.981000000000
15.312493570000,1.816000000000
15.320180691000,0.334000000000
15.327867812000,-0.723000000000
15.335554933000,-0.324000000000
15.343242054000,0.000000000000
15.350929175000,-0.251000000000
15.358616296000,-0.253000000000
15.366303417000,-0.123000000000
15.373990538000,-0.167000000000
15.381677659000,-0.174000000000
15.389364780000,-0.115000000000
15.397051901000,-0.110000000000
15.404739022000,-0.103000000000
15.412426143000,-0.061000000000
15.420113264000,-0.036000000000
15.427800385000,-0.027000000000
15.435487506000,-0.002000000000
15.443174627000,0.027000000000
15.450861748000,0.051000000000
15.458548869000,0.083000000000
15.466235990000,0.120000000000
15.473923111000,0.160000000000
15.481610232000,0.199000000000
15.489297353000,0.243000000000
15.496984474000,0.292000000000
15.504671595000,0.344000000000
15.512358716000,0.384000000000
15.520045837000,0.396000000000
15.527732958000,0.406000000000
15.535420079000,0.416000000000
15.543107200000,0.408000000000
15.550794321000,0.381000000000
15.558481442000,0.329000000000
15.566168563000,0.236000000000
15.573855684000,0.123000000000
15.581542805000,0.012000000000
15.589229926000,-0.103000000000
15.596917047000,-0.204000000000
15.604604168000,-0.263000000000
15.612291289000,-0.295000000000
15.619978410000,-0.310000000000
15.627665531000,-0.315000000000
15.635352652000,-0.317000000000
15.643039773000,-0.317000000000
15.650726958000,-0.305000000000
15.658413731000,-0.288000000000
15.666100504000,-0.273000000000
15.673787277000,-0.263000000000
15.681474050000,-0.246000000000
15.689160823000,-0.224000000000
15.696847596000,-0.214000000000
15.704534369000,-0.211000000000
15.712221142000,-0.204000000000
15.719907915000,-0.201000000000
15.727594688000,-0.201000000000
15.735281461000,-0.194000000000
15.742968234000,-0.187000000000
15.750655007000,-0.184000000000
15.758341780000,-0.182000000000
15.766028553000,-0.182000000000
15.773715326000,-0.179000000000
15.781402099000,-0.174000000000
15.789088872000,-0.172000000000
15.796775645000,-0.182000000000
15.804462418000,-0.177000000000
15.812149191000,-0.164000000000
15.819835964000,-0.157000000000
15.827522737000,-0.157000000000
15.835209510000,-0.157000000000
15.842896283000,-0.152000000000
15.850583056000,-0.145000000000
15.858269829000,-0.137000000000
15.865956602000,-0.137000000000
15.873643375000,-0.145000000000
15.881330148000,-0.137000000000
15.889016921000,-0.125000000000
15.896703694000,-0.118000000000
15.904390467000,-0.100000000000
15.912077240000,-0.071000000000
15.919764013000,-0.059000000000
15.927450786000,-0.068000000000
15.935137559000,-0.073000000000
15.942824332000,-0.083000000000
15.950511105000,-0.110000000000
15.958197878000,-0.130000000000
15.965884651000,-0.123000000000
15.973571424000,-0.105000000000
15.981258197000,-0.103000000000
15.988944970000,-0.105000000000
15.996631743000,-0.100000000000
16.004318516000,-0.100000000000
16.012005289000,-0.098000000000
16.019692062000,-0.093000000000
16.027378835000,-0.113000000000
16.035065608000,-0.164000000000
16.042752381000,-0.209000000000
16.050439154000,-0.034000000000
16.058125927000,0.571000000000
16.065812700000,1.400000000000
16.073499473000,1.989000000000
16.081186246000,1.543000000000
16.088873019000,0.019000000000
16.096559792000,-0.745000000000
16.104246565000,-0.243000000000
16.111933338000,-0.049000000000
16.119620111000,-0.278000000000
16.127306884000,-0.201000000000
16.134993657000,-0.093000000000
16.142680430000,-0.152000000000
16.150367203000,-0.142000000000
16.158053976000,-0.088000000000
16.165740749000,-0.091000000000
16.173427522000,-0.073000000000
16.181114295000,-0.032000000000
16.188801068000,-0.014000000000
16.196487841000,0.000000000000
16.204174614000,0.027000000000
16.211861428000,0.054000000000
16.219548480000,0.088000000000
16.227235532000,0.130000000000
16.234922584000,0.167000000000
16.242609636000,0.211000000000
16.250296688000,0.260000000000
16.257983740000,0.300000000000
16.265670792000,0.349000000000
16.273357844000,0.403000000000
16.281044896000,0.443000000000
16.288731948000,0.467000000000
16.296419000000,0.475000000000
16.304106052000,0.460000000000
16.311793104000,0.433000000000
16.319480156000,0.398000000000
16.327167208000,0.317000000000
16.334854260000,0.187000000000
16.342541312000,0.049000000000
16.350228364000,-0.076000000000
16.357915416000,-0.182000000000
16.365602468000,-0.263000000000
16.373289520000,-0.312000000000
16.380976572000,-0.334000000000
16.388663624000,-0.344000000000
16.396350676000,-0.347000000000
16.404037728000,-0.344000000000
16.411724780000,-0.337000000000
16.419411832000,-0.320000000000
16.427098884000,-0.295000000000
16.434785936000,-0.278000000000
16.442472988000,-0.275000000000
16.450160040000,-0.268000000000
16.457847092000,-0.248000000000
16.465534144000,-0.233000000000
16.473221196000,-0.228000000000
16.480908248000,-0.219000000000
16.488595300000,-0.211000000000
16.496282352000,-0.204000000000
16.503969404000,-0.194000000000
16.511656456000,-0.192000000000
16.519343508000,-0.189000000000
16.527030560000,-0.184000000000
16.534717612000,-0.184000000000
16.542404664000,-0.182000000000
16.550091716000,-0.177000000000
16.557778768000,-0.177000000000
16.565465820000,-0.184000000000
16.573152872000,-0.179000000000
16.580839924000,-0.169000000000
16.588526976000,-0.162000000000
16.596214028000,-0.169000000000
16.603901080000,-0.177000000000
16.611588132000,-0.177000000000
16.619275184000,-0.169000000000
16.626962236000,-0.155000000000
16.634649288000,-0.135000000000
16.642336340000,-0.123000000000
16.650023392000,-0.113000000000
16.657710444000,-0.100000000000
16.665397496000,-0.103000000000
16.673084548000,-0.130000000000
16.680771600000,-0.152000000000
16.688458652000,-0.147000000000
16.696145704000,-0.140000000000
16.703832756000,-0.147000000000
16.711519808000,-0.145000000000
16.719206860000,-0.132000000000
16.726893912000,-0.128000000000
16.734580964000,-0.128000000000
16.742268016000,-0.128000000000
16.749955068000,-0.140000000000
16.757642120000,-0.184000000000
16.765329172000,-0.236000000000
16.773016238000,-0.130000000000
16.780703150000,0.386000000000
16.788390062000,1.193000000000
16.796076974000,1.861000000000
16.803763886000,1.676000000000
16.811450798000,0.290000000000
16.819137710000,-0.760000000000
16.826824622000,-0.408000000000
16.834511534000,-0.054000000000
16.842198446000,-0.265000000000
16.849885358000,-0.258000000000
16.857572270000,-0.128000000000
16.865259182000,-0.174000000000
16.872946094000,-0.189000000000
16.880633006000,-0.130000000000
16.888319918000,-0.115000000000
16.896006830000,-0.113000000000
16.903693742000,-0.081000000000
16.911380654000,-0.061000000000
16.919067566000,-0.046000000000
16.926754478000,-0.012000000000
16.934441390000,0.017000000000
16.942128302000,0.041000000000
16.949815214000,0.076000000000
16.957502126000,0.113000000000
16.965189038000,0.155000000000
16.972875950000,0.201000000000
16.980562862000,0.253000000000
16.988249774000,0.307000000000
16.995936686000,0.352000000000
17.003623598000,0.384000000000
17.011310510000,0.406000000000
17.018997422000,0.416000000000
17.026684334000,0.406000000000
17.034371246000,0.388000000000
17.042058158000,0.349000000000
17.049745070000,0.268000000000
17.057431982000,0.155000000000
17.065118894000,0.022000000000
17.072805806000,-0.108000000000
17.080492718000,-0.214000000000
17.088179630000,-0.292000000000
17.095866542000,-0.344000000000
17.103553454000,-0.371000000000
17.111240366000,-0.381000000000
17.118927278000,-0.379000000000
17.126614190000,-0.371000000000
17.134301102000,-0.359000000000
17.141988014000,-0.349000000000
17.149674926000,-0.334000000000
17.157361838000,-0.320000000000
17.165048750000,-0.307000000000
17.172735662000,-0.297000000000
17.180422574000,-0.283000000000
17.188109486000,-0.270000000000
17.195796398000,-0.260000000000
17.203483310000,-0.248000000000
17.211170222000,-0.241000000000
17.218857134000,-0.236000000000
17.226544046000,-0.228000000000
17.234230958000,-0.221000000000
17.241917870000,-0.216000000000
17.249604782000,-0.214000000000
17.257291694000,-0.209000000000
17.264978606000,-0.209000000000
17.272665518000,-0.209000000000
17.280352430000,-0.209000000000
17.288039342000,-0.204000000000
17.295726254000,-0.201000000000
17.303413166000,-0.201000000000
17.311100078000,-0.196000000000
17.318786990000,-0.192000000000
17.326473902000,-0.189000000000
17.334160878000,-0.184000000000
17.341847790000,-0.177000000000
17.349534702000,-0.174000000000
17.357221614000,-0.172000000000
17.364908526000,-0.167000000000
17.372595438000,-0.162000000000
17.380282350000,-0.160000000000
17.387969262000,-0.155000000000
17.395656174000,-0.152000000000
17.403343086000,-0.147000000000
17.411029998000,-0.147000000000
17.418716910000,-0.147000000000
17.426403822000,-0.147000000000
17.434090734000,-0.140000000000
17.441777646000,-0.123000000000
17.449464558000,-0.100000000000
17.457151470000,-0.091000000000
17.464838382000,-0.093000000000
17.472525294000,-0.093000000000
17.480212206000,-0.093000000000
17.487899118000,-0.113000000000
17.495586030000,-0.137000000000
17.503272942000,-0.137000000000
17.510959854000,-0.130000000000
17.518646766000,-0.130000000000
17.526333678000,-0.125000000000
17.534020590000,-0.120000000000
17.541707502000,-0.118000000000
17.549394414000,-0.115000000000
17.557081326000,-0.118000000000
17.564768238000,-0.142000000000
17.572455150000,-0.201000000000
17.580142062000,-0.214000000000
17.587828974000,0.054000000000
17.595515886000,0.699000000000
17.603202798000,1.526000000000
17.610889710000,2.045000000000
17.618576622000,1.314000000000
17.626263534000,-0.283000000000
17.633950446000,-0.718000000000
17.641637358000,-0.137000000000
17.649324270000,-0.113000000000
17.657011182000,-0.329000000000
17.664698094000,-0.214000000000
17.672385006000,-0.155000000000
17.680071918000,-0.219000000000
17.687758830000,-0.184000000000
17.695445742000,-0.132000000000
17.703132654000,-0.137000000000
17.710819566000,-0.123000000000
17.718506478000,-0.088000000000
17.726193390000,-0.073000000000
17.733880302000,-0.054000000000
17.741567214000,-0.024000000000
17.749254126000,0.002000000000
17.756941038000,0.029000000000
17.764627950000,0.064000000000
17.772314862000,0.100000000000
17.780001774000,0.140000000000
17.787688686000,0.184000000000
17.795375598000,0.233000000000
17.803062510000,0.280000000000
17.810749422000,0.322000000000
17.818436334000,0.356000000000
17.826123246000,0.376000000000
17.833810158000,0.384000000000
17.841497070000,0.381000000000
17.849183982000,0.366000000000
17.856870894000,0.329000000000
17.864557806000,0.263000000000
17.872244718000,0.164000000000
17.879931630000,0.044000000000
17.887618542000,-0.076000000000
17.895305514000,-0.179000000000
17.902992566000,-0.258000000000
17.910679618000,-0.307000000000
17.918366670000,-0.334000000000
17.926053722000,-0.347000000000
17.933740774000,-0.347000000000
17.941427826000,-0.339000000000
17.949114878000,-0.327000000000
17.956801930000,-0.317000000000
17.964488982000,-0.302000000000
17.972176034000,-0.290000000000
17.979863086000,-0.280000000000
17.987550138000,-0.270000000000
17.995237190000,-0.260000000000
18.002924242000,-0.251000000000
18.010611294000,-0.243000000000
18.018298346000,-0.236000000000
18.025985398000,-0.228000000000
18.033672450000,-0.224000000000
18.041359502000,-0.219000000000
18.049046554000,-0.214000000000
18.056733606000,-0.209000000000
18.064420658000,-0.206000000000
18.072107710000,-0.204000000000
18.079794762000,-0.201000000000
18.087481814000,-0.201000000000
18.095168866000,-0.199000000000
18.102855918000,-0.194000000000
18.110542970000,-0.192000000000
18.118230022000,-0.192000000000
18.125917074000,-0.189000000000
18.133604126000,-0.184000000000
18.141291178000,-0.182000000000
18.148978230000,-0.179000000000
18.156665282000,-0.174000000000
18.164352334000,-0.169000000000
18.172039386000,-0.167000000000
18.179726438000,-0.162000000000
18.187413490000,-0.160000000000
18.195100542000,-0.155000000000
18.202787594000,-0.150000000000
18.210474646000,-0.147000000000
18.218161698000,-0.145000000000
18.225848750000,-0.140000000000
18.233535802000,-0.135000000000
18.241222854000,-0.132000000000
18.248909906000,-0.130000000000
18.256596958000,-0.125000000000
18.264284010000,-0.123000000000
18.271971062000,-0.120000000000
18.279658114000,-0.118000000000
18.287345166000,-0.118000000000
18.295032218000,-0.118000000000
18.302719270000,-0.110000000000
18.310406322000,-0.091000000000
18.318093374000,-0.068000000000
18.325780426000,-0.064000000000
18.333467478000,-0.071000000000
18.341154530000,-0.071000000000
18.348841582000,-0.076000000000
18.356528634000,-0.103000000000
18.364215686000,-0.123000000000
18.371902738000,-0.118000000000
18.379589790000,-0.110000000000
18.387276842000,-0.110000000000
18.394963894000,-0.108000000000
18.402650946000,-0.105000000000
18.410337998000,-0.105000000000
18.418025050000,-0.100000000000
18.425712102000,-0.100000000000
18.433399154000,-0.115000000000
18.441086206000,-0.164000000000
18.448773258000,-0.214000000000
18.456460328000,-0.076000000000
18.464147101000,0.440000000000
18.471833874000,1.233000000000
18.479520647000,1.966000000000
18.487207420000,1.789000000000
18.494894193000,0.297000000000
18.502580966000,-0.748000000000
18.510267739000,-0.337000000000
18.517954512000,-0.022000000000
18.525641285000,-0.280000000000
18.533328058000,-0.275000000000
18.541014831000,-0.140000000000
18.548701604000,-0.192000000000
18.556388377000,-0.199000000000
18.564075150000,-0.135000000000
18.571761923000,-0.128000000000
18.579448696000,-0.125000000000
18.587135469000,-0.088000000000
18.594822242000,-0.066000000000
18.602509015000,-0.051000000000
18.610195788000,-0.024000000000
18.617882561000,0.002000000000
18.625569334000,0.027000000000
18.633256107000,0.059000000000
18.640942880000,0.093000000000
18.648629653000,0.130000000000
18.656316426000,0.172000000000
18.664003199000,0.219000000000
18.671689972000,0.263000000000
18.679376745000,0.307000000000
18.687063518000,0.347000000000
18.694750291000,0.371000000000
18.702437064000,0.386000000000
18.710123837000,0.388000000000
18.717810610000,0.379000000000
18.725497383000,0.356000000000
18.733184156000,0.315000000000
18.740870929000,0.238000000000
18.748557702000,0.132000000000
18.756244475000,0.017000000000
18.763931248000,-0.091000000000
18.771618021000,-0.182000000000
18.779304794000,-0.248000000000
18.786991567000,-0.290000000000
18.794678340000,-0.312000000000
18.802365113000,-0.317000000000
18.810051886000,-0.315000000000
18.817738659000,-0.305000000000
18.825425432000,-0.292000000000
18.833112205000,-0.280000000000
18.840798978000,-0.270000000000
18.848485751000,-0.258000000000
18.856172524000,-0.246000000000
18.863859297000,-0.236000000000
18.871546070000,-0.224000000000
18.879232843000,-0.216000000000
18.886919616000,-0.209000000000
18.894606389000,-0.201000000000
18.902293162000,-0.196000000000
18.909979935000,-0.192000000000
18.917666708000,-0.189000000000
18.925353481000,-0.184000000000
18.933040254000,-0.182000000000
18.940727027000,-0.179000000000
18.948413800000,-0.179000000000
18.956100573000,-0.174000000000
18.963787346000,-0.172000000000
18.971474119000,-0.169000000000
18.979160892000,-0.169000000000
18.986847665000,-0.164000000000
18.994534438000,-0.162000000000
19.002221211000,-0.160000000000
19.009907984000,-0.157000000000
19.017594790000,-0.152000000000
19.025281911000,-0.147000000000
19.032969032000,-0.147000000000
19.040656153000,-0.142000000000
19.048343274000,-0.137000000000
19.056030395000,-0.132000000000
19.063717516000,-0.130000000000
19.071404637000,-0.125000000000
19.079091758000,-0.120000000000
19.086778879000,-0.118000000000
19.094466000000,-0.115000000000
19.102153121000,-0.110000000000
19.109840242000,-0.105000000000
19.117527363000,-0.100000000000
19.125214484000,-0.100000000000
19.132901605000,-0.096000000000
19.140588726000,-0.093000000000
19.148275847000,-0.091000000000
19.155962968000,-0.088000000000
19.163650089000,-0.086000000000
19.171337210000,-0.083000000000
19.179024331000,-0.083000000000
19.186711452000,-0.083000000000
19.194398573000,-0.081000000000
19.202085694000,-0.068000000000
19.209772815000,-0.049000000000
19.217459936000,-0.032000000000
19.225147057000,-0.034000000000
19.232834178000,-0.041000000000
19.240521299000,-0.041000000000
19.248208420000,-0.056000000000
19.255895541000,-0.086000000000
19.263582662000,-0.096000000000
19.271269783000,-0.088000000000
19.278956904000,-0.083000000000
19.286644025000,-0.086000000000
19.294331146000,-0.081000000000
19.302018267000,-0.078000000000
19.309705388000,-0.078000000000
19.317392509000,-0.076000000000
19.325079630000,-0.078000000000
19.332766751000,-0.100000000000
19.340453872000,-0.160000000000
19.348140993000,-0.182000000000
19.355828114000,0.046000000000
19.363515235000,0.654000000000
19.371202356000,1.481000000000
19.378889477000,2.077000000000
19.386576598000,1.486000000000
19.394263719000,-0.110000000000
19.401950840000,-0.706000000000
19.409637961000,-0.155000000000
19.417325082000,-0.059000000000
19.425012203000,-0.292000000000
19.432699324000,-0.204000000000
19.440386445000,-0.125000000000
19.448073566000,-0.187000000000
19.455760687000,-0.164000000000
19.463447808000,-0.110000000000
19.471134929000,-0.110000000000
19.478822050000,-0.098000000000
19.486509171000,-0.066000000000
19.494196292000,-0.049000000000
19.501883413000,-0.032000000000
19.509570534000,-0.007000000000
19.517257655000,0.019000000000
19.524944776000,0.044000000000
19.532631897000,0.073000000000
19.540319018000,0.105000000000
19.548006139000,0.142000000000
19.555693260000,0.184000000000
19.563380381000,0.226000000000
19.571067502000,0.270000000000
19.578754691000,0.312000000000
19.586441812000,0.347000000000
19.594128933000,0.369000000000
19.601816054000,0.381000000000
19.609503175000,0.384000000000
19.617190296000,0.371000000000
19.624877417000,0.349000000000
19.632564538000,0.305000000000
19.640251659000,0.226000000000
19.647938780000,0.120000000000
19.655625901000,0.009000000000
19.663313022000,-0.096000000000
19.671000143000,-0.184000000000
19.678687264000,-0.248000000000
19.686374385000,-0.285000000000
19.694061506000,-0.302000000000
19.701748627000,-0.310000000000
19.709435748000,-0.310000000000
19.717122869000,-0.300000000000
19.724809990000,-0.285000000000
19.732497111000,-0.273000000000
19.740184232000,-0.260000000000
19.747871353000,-0.251000000000
19.755558474000,-0.236000000000
19.763245595000,-0.226000000000
19.770932716000,-0.216000000000
19.778619837000,-0.206000000000
19.786306958000,-0.199000000000
19.793994079000,-0.194000000000
19.801681200000,-0.189000000000
19.809368321000,-0.184000000000
19.817055442000,-0.182000000000
19.824742563000,-0.179000000000
19.832429684000,-0.177000000000
19.840116805000,-0.174000000000
19.847803926000,-0.172000000000
19.855491047000,-0.169000000000
19.863178168000,-0.169000000000
19.870865289000,-0.169000000000
19.878552410000,-0.167000000000
19.886239531000,-0.162000000000
19.893926652000,-0.157000000000
19.901613773000,-0.157000000000
19.909300894000,-0.152000000000
19.916988015000,-0.145000000000
19.924675136000,-0.140000000000
19.932362257000,-0.137000000000
19.940049378000,-0.135000000000
19.947736499000,-0.128000000000
19.955423620000,-0.128000000000
19.963110741000,-0.123000000000
19.970797862000,-0.120000000000
19.978484983000,-0.115000000000
19.986172104000,-0.115000000000
19.993859225000,-0.110000000000
20.001546346000,-0.103000000000
20.009233467000,-0.100000000000
20.016920588000,-0.100000000000
20.024607709000,-0.098000000000
20.032294830000,-0.093000000000
20.039981951000,-0.093000000000
20.047669072000,-0.091000000000
20.055356193000,-0.086000000000
20.063043314000,-0.086000000000
20.070730435000,-0.083000000000
20.078417556000,-0.081000000000
20.086104677000,-0.078000000000
20.093791798000,-0.076000000000
20.101478919000,-0.076000000000
20.109166040000,-0.076000000000
20.116853161000,-0.059000000000
20.124540282000,-0.034000000000
20.132227403000,-0.029000000000
20.139914588000,-0.034000000000
20.147601291000,-0.036000000000
20.155287994000,-0.049000000000
20.162974697000,-0.076000000000
20.170661400000,-0.088000000000
20.178348103000,-0.081000000000
20.186034806000,-0.078000000000
20.193721509000,-0.081000000000
20.201408212000,-0.076000000000
20.209094915000,-0.076000000000
20.216781618000,-0.076000000000
20.224468321000,-0.068000000000
20.232155024000,-0.073000000000
20.239841727000,-0.100000000000
20.247528430000,-0.160000000000
20.255215133000,-0.189000000000
20.262901836000,0.044000000000
20.270588539000,0.676000000000
20.278275242000,1.516000000000
20.285961945000,2.094000000000
20.293648648000,1.491000000000
20.301335351000,-0.110000000000
20.309022054000,-0.711000000000
20.316708757000,-0.160000000000
20.324395460000,-0.064000000000
20.332082163000,-0.292000000000
20.339768866000,-0.196000000000
20.347455569000,-0.120000000000
20.355142272000,-0.184000000000
20.362828975000,-0.157000000000
20.370515678000,-0.103000000000
20.378202381000,-0.108000000000
20.385889084000,-0.091000000000
20.393575787000,-0.059000000000
20.401262490000,-0.046000000000
20.408949193000,-0.024000000000
20.416635896000,0.009000000000
20.424322599000,0.029000000000
20.432009302000,0.049000000000
20.439696005000,0.083000000000
20.447382708000,0.123000000000
20.455069411000,0.162000000000
20.462756114000,0.196000000000
20.470442817000,0.243000000000
20.478129520000,0.290000000000
20.485816223000,0.334000000000
20.493502926000,0.369000000000
20.501189629000,0.393000000000
20.508876332000,0.403000000000
20.516563035000,0.408000000000
20.524249738000,0.401000000000
20.531936441000,0.371000000000
20.539623144000,0.322000000000
20.547309847000,0.246000000000
20.554996550000,0.140000000000
20.562683253000,0.024000000000
20.570369956000,-0.093000000000
20.578056659000,-0.194000000000
20.585743362000,-0.260000000000
20.593430065000,-0.297000000000
20.601116768000,-0.320000000000
20.608803471000,-0.329000000000
20.616490174000,-0.324000000000
20.624176877000,-0.317000000000
20.631863580000,-0.305000000000
20.639550283000,-0.285000000000
20.647236986000,-0.268000000000
20.654923689000,-0.258000000000
20.662610392000,-0.248000000000
20.670297095000,-0.238000000000
20.677983798000,-0.231000000000
20.685670501000,-0.221000000000
20.693357204000,-0.211000000000
20.701043967000,-0.206000000000
20.708731088000,-0.201000000000
20.716418209000,-0.189000000000
20.724105330000,-0.184000000000
20.731792451000,-0.189000000000
20.739479572000,-0.189000000000
20.747166693000,-0.182000000000
20.754853814000,-0.174000000000
20.762540935000,-0.174000000000
20.770228056000,-0.179000000000
20.777915177000,-0.182000000000
20.785602298000,-0.179000000000
20.793289419000,-0.172000000000
20.800976540000,-0.164000000000
20.808663661000,-0.164000000000
20.816350782000,-0.164000000000
20.824037903000,-0.157000000000
20.831725024000,-0.155000000000
20.839412145000,-0.147000000000
20.847099266000,-0.140000000000
20.854786387000,-0.140000000000
20.862473508000,-0.132000000000
20.870160629000,-0.128000000000
20.877847750000,-0.130000000000
20.885534871000,-0.128000000000
20.893221992000,-0.118000000000
20.900909113000,-0.113000000000
20.908596234000,-0.110000000000
20.916283355000,-0.110000000000
20.923970476000,-0.113000000000
20.931657597000,-0.103000000000
20.939344718000,-0.098000000000
20.947031839000,-0.105000000000
20.954718960000,-0.103000000000
20.962406081000,-0.088000000000
20.970093202000,-0.066000000000
20.977780323000,-0.049000000000
20.985467444000,-0.044000000000
20.993154565000,-0.049000000000
21.000841686000,-0.049000000000
21.008528807000,-0.061000000000
21.016215928000,-0.096000000000
21.023903049000,-0.110000000000
21.031590170000,-0.098000000000
21.039277291000,-0.091000000000
21.046964412000,-0.093000000000
21.054651533000,-0.091000000000
21.062338654000,-0.088000000000
21.070025775000,-0.088000000000
21.077712896000,-0.083000000000
21.085400017000,-0.091000000000
21.093087138000,-0.123000000000
21.100774259000,-0.182000000000
21.108461380000,-0.179000000000
21.116148501000,0.132000000000
21.123835622000,0.836000000000
21.131522743000,1.649000000000
21.139209864000,2.028000000000
21.146896985000,1.139000000000
21.154584106000,-0.391000000000
21.162271227000,-0.657000000000
21.169958348000,-0.093000000000
21.177645469000,-0.132000000000
21.185332590000,-0.300000000000
21.193019711000,-0.167000000000
21.200706832000,-0.137000000000
21.208393953000,-0.194000000000
21.216081074000,-0.147000000000
21.223768195000,-0.105000000000
21.231455316000,-0.118000000000
21.239142437000,-0.096000000000
21.246829558000,-0.064000000000
21.254516679000,-0.051000000000
21.262203864000,-0.032000000000
21.269890567000,-0.004000000000
21.277577270000,0.019000000000
21.285263973000,0.044000000000
21.292950676000,0.073000000000
21.300637379000,0.108000000000
21.308324082000,0.147000000000
21.316010785000,0.189000000000
21.323697488000,0.233000000000
21.331384191000,0.278000000000
21.339070894000,0.317000000000
21.346757597000,0.347000000000
21.354444300000,0.366000000000
21.362131003000,0.374000000000
21.369817706000,0.366000000000
21.377504409000,0.347000000000
21.385191112000,0.317000000000
21.392877815000,0.258000000000
21.400564518000,0.169000000000
21.408251221000,0.056000000000
21.415937924000,-0.059000000000
21.423624627000,-0.164000000000
21.431311330000,-0.248000000000
21.438998033000,-0.305000000000
21.446684736000,-0.339000000000
21.454371439000,-0.354000000000
21.462058142000,-0.356000000000
21.469744845000,-0.352000000000
21.477431548000,-0.342000000000
21.485118251000,-0.327000000000
21.492804954000,-0.315000000000
21.500491657000,-0.302000000000
21.508178360000,-0.288000000000
21.515865063000,-0.275000000000
21.523551766000,-0.265000000000
21.531238469000,-0.256000000000
21.538925172000,-0.246000000000
21.546611875000,-0.241000000000
21.554298578000,-0.236000000000
21.561985281000,-0.228000000000
21.569671984000,-0.224000000000
21.577358687000,-0.221000000000
21.585045390000,-0.219000000000
21.592732093000,-0.214000000000
21.600418796000,-0.211000000000
21.608105499000,-0.211000000000
21.615792202000,-0.209000000000
21.623478905000,-0.209000000000
21.631165608000,-0.206000000000
21.638852311000,-0.204000000000
21.646539014000,-0.201000000000
21.654225717000,-0.196000000000
21.661912420000,-0.192000000000
21.669599123000,-0.189000000000
21.677285826000,-0.184000000000
21.684972529000,-0.179000000000
21.692659232000,-0.174000000000
21.700345935000,-0.169000000000
21.708032638000,-0.167000000000
21.715719341000,-0.162000000000
21.723406044000,-0.157000000000
21.731092747000,-0.152000000000
21.738779450000,-0.147000000000
21.746466153000,-0.145000000000
21.754152856000,-0.142000000000
21.761839559000,-0.140000000000
21.769526262000,-0.135000000000
21.777212965000,-0.130000000000
21.784899668000,-0.128000000000
21.792586371000,-0.125000000000
21.800273074000,-0.123000000000
21.807959777000,-0.125000000000
21.815646480000,-0.120000000000
21.823333243000,-0.105000000000
21.831020364000,-0.083000000000
21.838707485000,-0.068000000000
21.846394606000,-0.071000000000
21.854081727000,-0.076000000000
21.861768848000,-0.076000000000
21.869455969000,-0.091000000000
21.877143090000,-0.123000000000
21.884830211000,-0.132000000000
21.892517332000,-0.123000000000
21.900204453000,-0.118000000000
21.907891574000,-0.115000000000
21.915578695000,-0.113000000000
21.923265816000,-0.110000000000
21.930952937000,-0.108000000000
21.938640058000,-0.108000000000
21.946327179000,-0.120000000000
21.954014300000,-0.162000000000
21.961701421000,-0.219000000000
21.969388542000,-0.130000000000
21.977075663000,0.322000000000
21.984762784000,1.083000000000
21.992449905000,1.856000000000
22.000137026000,1.888000000000
22.007824147000,0.558000000000
22.015511268000,-0.689000000000
22.023198389000,-0.448000000000
22.030885510000,-0.027000000000
22.038572631000,-0.246000000000
22.046259752000,-0.300000000000
22.053946873000,-0.155000000000
22.061633994000,-0.182000000000
22.069321115000,-0.209000000000
22.077008236000,-0.147000000000
22.084695357000,-0.130000000000
22.092382478000,-0.132000000000
22.100069599000,-0.103000000000
22.107756720000,-0.078000000000
22.115443841000,-0.064000000000
22.123130962000,-0.039000000000
22.130818083000,-0.014000000000
22.138505204000,0.009000000000
22.146192325000,0.036000000000
22.153879446000,0.068000000000
22.161566567000,0.103000000000
22.169253688000,0.140000000000
22.176940809000,0.182000000000
22.184627930000,0.226000000000
22.192315051000,0.268000000000
22.200002172000,0.305000000000
22.207689293000,0.334000000000
22.215376414000,0.352000000000
22.223063535000,0.354000000000
22.230750656000,0.347000000000
22.238437777000,0.329000000000
22.246124898000,0.297000000000
22.253812019000,0.241000000000
22.261499140000,0.152000000000
22.269186261000,0.041000000000
22.276873382000,-0.068000000000
22.284560503000,-0.162000000000
22.292247624000,-0.238000000000
22.299934745000,-0.288000000000
22.307621866000,-0.317000000000
22.315308987000,-0.329000000000
22.322996108000,-0.329000000000
22.330683229000,-0.322000000000
22.338370350000,-0.312000000000
22.346057471000,-0.300000000000
22.353744592000,-0.288000000000
22.361431713000,-0.275000000000
22.369118834000,-0.260000000000
22.376805955000,-0.248000000000
22.384493140000,-0.238000000000
22.392179913000,-0.231000000000
22.399866686000,-0.224000000000
22.407553459000,-0.216000000000
22.415240232000,-0.211000000000
22.422927005000,-0.209000000000
22.430613778000,-0.204000000000
22.438300551000,-0.199000000000
22.445987324000,-0.199000000000
22.453674097000,-0.196000000000
22.461360870000,-0.192000000000
22.469047643000,-0.192000000000
22.476734416000,-0.192000000000
22.484421189000,-0.187000000000
22.492107962000,-0.184000000000
22.499794735000,-0.184000000000
22.507481508000,-0.179000000000
22.515168281000,-0.177000000000
22.522855054000,-0.172000000000
22.530541827000,-0.169000000000
22.538228600000,-0.162000000000
22.545915373000,-0.160000000000
22.553602146000,-0.157000000000
22.561288919000,-0.150000000000
22.568975692000,-0.145000000000
22.576662465000,-0.142000000000
22.584349238000,-0.140000000000
22.592036011000,-0.135000000000
22.599722784000,-0.132000000000
22.607409557000,-0.128000000000
22.615096330000,-0.123000000000
22.622783103000,-0.120000000000
22.630469876000,-0.118000000000
22.638156649000,-0.115000000000
22.645843422000,-0.113000000000
22.653530195000,-0.110000000000
22.661216968000,-0.108000000000
22.668903741000,-0.105000000000
22.676590514000,-0.100000000000
22.684277287000,-0.100000000000
22.691964060000,-0.100000000000
22.699650833000,-0.098000000000
22.707337606000,-0.088000000000
22.715024379000,-0.071000000000
22.722711152000,-0.051000000000
22.730397925000,-0.049000000000
22.738084698000,-0.054000000000
22.745771471000,-0.051000000000
22.753458244000,-0.064000000000
22.761145017000,-0.098000000000
22.768831790000,-0.113000000000
22.776518563000,-0.103000000000
22.784205336000,-0.098000000000
22.791892109000,-0.096000000000
22.799578882000,-0.093000000000
22.807265655000,-0.093000000000
22.814952428000,-0.091000000000
22.822639201000,-0.088000000000
22.830325974000,-0.096000000000
22.838012747000,-0.125000000000
22.845699520000,-0.184000000000
22.853386293000,-0.167000000000
22.861073066000,0.162000000000
22.868759839000,0.846000000000
22.876446612000,1.661000000000
22.884133385000,2.030000000000
22.891820158000,1.068000000000
22.899506931000,-0.445000000000
22.907193704000,-0.610000000000
22.914880477000,-0.066000000000
22.922567250000,-0.152000000000
22.930254023000,-0.310000000000
22.937940796000,-0.172000000000
22.945627610000,-0.152000000000
22.953314662000,-0.206000000000
22.961001714000,-0.155000000000
22.968688766000,-0.115000000000
22.976375818000,-0.123000000000
22.984062870000,-0.103000000000
22.991749922000,-0.071000000000
22.999436974000,-0.059000000000
23.007124026000,-0.039000000000
23.014811078000,-0.012000000000
23.022498130000,0.009000000000
23.030185182000,0.034000000000
23.037872234000,0.064000000000
23.045559286000,0.096000000000
23.053246338000,0.130000000000
23.060933390000,0.167000000000
23.068620442000,0.209000000000
23.076307494000,0.248000000000
23.083994546000,0.283000000000
23.091681598000,0.312000000000
23.099368650000,0.332000000000
23.107055702000,0.339000000000
23.114742754000,0.334000000000
23.122429806000,0.322000000000
23.130116858000,0.297000000000
23.137803910000,0.256000000000
23.145490962000,0.187000000000
23.153178014000,0.091000000000
23.160865066000,-0.012000000000
23.168552118000,-0.110000000000
23.176239170000,-0.192000000000
23.183926222000,-0.251000000000
23.191613274000,-0.288000000000
23.199300326000,-0.307000000000
23.206987378000,-0.312000000000
23.214674430000,-0.307000000000
23.222361482000,-0.297000000000
23.230048534000,-0.288000000000
23.237735586000,-0.275000000000
23.245422638000,-0.260000000000
23.253109690000,-0.248000000000
23.260796742000,-0.236000000000
23.268483794000,-0.224000000000
23.276170846000,-0.216000000000
23.283857898000,-0.209000000000
23.291544950000,-0.204000000000
23.299232002000,-0.199000000000
23.306919054000,-0.196000000000
23.314606106000,-0.194000000000
23.322293158000,-0.189000000000
23.329980210000,-0.187000000000
23.337667262000,-0.184000000000
23.345354314000,-0.184000000000
23.353041366000,-0.182000000000
23.360728418000,-0.179000000000
23.368415470000,-0.177000000000
23.376102522000,-0.174000000000
23.383789574000,-0.174000000000
23.391476626000,-0.169000000000
23.399163678000,-0.167000000000
23.406850730000,-0.162000000000
23.414537782000,-0.160000000000
23.422224834000,-0.155000000000
23.429911886000,-0.150000000000
23.437598938000,-0.145000000000
23.445285990000,-0.140000000000
23.452973042000,-0.135000000000
23.460660094000,-0.135000000000
23.468347146000,-0.130000000000
23.476034198000,-0.125000000000
23.483721250000,-0.123000000000
23.491408302000,-0.120000000000
23.499095354000,-0.115000000000
23.506782420000,-0.113000000000
23.514469541000,-0.110000000000
23.522156662000,-0.105000000000
23.529843783000,-0.103000000000
23.537530904000,-0.103000000000
23.545218025000,-0.100000000000
23.552905146000,-0.098000000000
23.560592267000,-0.098000000000
23.568279388000,-0.096000000000
23.575966509000,-0.091000000000
23.583653630000,-0.091000000000
23.591340751000,-0.093000000000
23.599027872000,-0.091000000000
23.606714993000,-0.083000000000
23.614402114000,-0.066000000000
23.622089235000,-0.046000000000
23.629776356000,-0.041000000000
23.637463477000,-0.046000000000
23.645150598000,-0.044000000000
23.652837719000,-0.054000000000
23.660524840000,-0.083000000000
23.668211961000,-0.103000000000
23.675899082000,-0.098000000000
23.683586203000,-0.091000000000
23.691273324000,-0.088000000000
23.698960445000,-0.088000000000
23.706647566000,-0.086000000000
23.714334687000,-0.083000000000
23.722021808000,-0.083000000000
23.729708929000,-0.091000000000
23.737396050000,-0.120000000000
23.745083171000,-0.179000000000
23.752770292000,-0.157000000000
23.760457413000,0.174000000000
23.768144534000,0.864000000000
23.775831655000,1.681000000000
23.783518776000,2.021000000000
23.791205897000,1.026000000000
23.798893018000,-0.457000000000
23.806580139000,-0.590000000000
23.814267260000,-0.061000000000
23.821954381000,-0.155000000000
23.829641502000,-0.300000000000
23.837328623000,-0.164000000000
23.845015744000,-0.150000000000
23.852702865000,-0.199000000000
23.860389986000,-0.147000000000
23.868077107000,-0.113000000000
23.875764228000,-0.118000000000
23.883451349000,-0.096000000000
23.891138470000,-0.066000000000
23.898825591000,-0.054000000000
23.906512712000,-0.034000000000
23.914199833000,-0.009000000000
23.921886954000,0.012000000000
23.929574075000,0.036000000000
23.937261196000,0.066000000000
23.944948317000,0.098000000000
23.952635438000,0.130000000000
23.960322559000,0.167000000000
23.968009680000,0.204000000000
23.975696801000,0.243000000000
23.983383922000,0.278000000000
23.991071043000,0.305000000000
23.998758164000,0.322000000000
24.006445285000,0.329000000000
24.014132406000,0.324000000000
24.021819527000,0.310000000000
24.029506648000,0.288000000000
24.037193769000,0.248000000000
24.044880890000,0.184000000000
24.052568011000,0.096000000000
24.060255132000,-0.002000000000
24.067942317000,-0.098000000000
24.075629020000,-0.179000000000
24.083315723000,-0.238000000000
24.091002426000,-0.275000000000
24.098689129000,-0.295000000000
24.106375832000,-0.300000000000
24.114062535000,-0.297000000000
24.121749238000,-0.288000000000
24.129435941000,-0.273000000000
24.137122644000,-0.263000000000
24.144809347000,-0.251000000000
24.152496050000,-0.238000000000
24.160182753000,-0.228000000000
24.167869456000,-0.219000000000
24.175556159000,-0.209000000000
24.183242862000,-0.204000000000
24.190929565000,-0.196000000000
24.198616268000,-0.192000000000
24.206302971000,-0.189000000000
24.213989674000,-0.187000000000
24.221676377000,-0.184000000000
24.229363080000,-0.182000000000
24.237049783000,-0.179000000000
24.244736486000,-0.177000000000
24.252423189000,-0.177000000000
24.260109892000,-0.174000000000
24.267796595000,-0.172000000000
24.275483298000,-0.169000000000
24.283170001000,-0.167000000000
24.290856704000,-0.164000000000
24.298543407000,-0.162000000000
24.306230110000,-0.157000000000
24.313916813000,-0.152000000000
24.321603516000,-0.147000000000
24.329290219000,-0.145000000000
24.336976922000,-0.142000000000
24.344663625000,-0.137000000000
24.352350328000,-0.130000000000
24.360037031000,-0.128000000000
24.367723734000,-0.128000000000
24.375410437000,-0.123000000000
24.383097140000,-0.118000000000
24.390783843000,-0.115000000000
24.398470546000,-0.110000000000
24.406157249000,-0.108000000000
24.413843952000,-0.105000000000
24.421530655000,-0.100000000000
24.429217358000,-0.096000000000
24.436904061000,-0.093000000000
24.444590764000,-0.096000000000
24.452277467000,-0.093000000000
24.459964170000,-0.086000000000
24.467650873000,-0.086000000000
24.475337576000,-0.086000000000
24.483024279000,-0.083000000000
24.490710982000,-0.073000000000
24.498397685000,-0.056000000000
24.506084388000,-0.036000000000
24.513771091000,-0.034000000000
24.521457794000,-0.036000000000
24.529144497000,-0.039000000000
24.536831200000,-0.054000000000
24.544517903000,-0.086000000000
24.552204606000,-0.100000000000
24.559891309000,-0.091000000000
24.567578012000,-0.083000000000
24.575264715000,-0.083000000000
24.582951418000,-0.078000000000
24.590638121000,-0.076000000000
24.598324824000,-0.076000000000
24.606011527000,-0.078000000000
24.613698230000,-0.091000000000
24.621384933000,-0.125000000000
24.629071696000,-0.179000000000
24.636758817000,-0.113000000000
24.644445938000,0.305000000000
24.652133059000,1.053000000000
24.659820180000,1.821000000000
24.667507301000,1.907000000000
24.675194422000,0.662000000000
24.682881543000,-0.615000000000
24.690568664000,-0.457000000000
24.698255785000,-0.024000000000
24.705942906000,-0.204000000000
24.713630027000,-0.258000000000
24.721317148000,-0.125000000000
24.729004269000,-0.152000000000
24.736691390000,-0.184000000000
24.744378511000,-0.123000000000
24.752065632000,-0.100000000000
24.759752753000,-0.103000000000
24.767439874000,-0.073000000000
24.775126995000,-0.046000000000
24.782814116000,-0.032000000000
24.790501237000,-0.009000000000
24.798188358000,0.012000000000
24.805875479000,0.034000000000
24.813562600000,0.061000000000
24.821249721000,0.091000000000
24.828936842000,0.125000000000
24.836623963000,0.162000000000
24.844311084000,0.196000000000
24.851998205000,0.236000000000
24.859685326000,0.275000000000
24.867372447000,0.310000000000
24.875059568000,0.337000000000
24.882746689000,0.352000000000
24.890433810000,0.354000000000
24.898120931000,0.347000000000
24.905808052000,0.332000000000
24.913495173000,0.305000000000
24.921182294000,0.258000000000
24.928869415000,0.184000000000
24.936556536000,0.083000000000
24.944243657000,-0.017000000000
24.951930778000,-0.108000000000
24.959617899000,-0.187000000000
24.967305020000,-0.248000000000
24.974992141000,-0.285000000000
24.982679262000,-0.300000000000
24.990366383000,-0.297000000000
24.998053504000,-0.290000000000
25.005740625000,-0.285000000000
25.013427746000,-0.275000000000
25.021114867000,-0.258000000000
25.028801988000,-0.243000000000
25.036489109000,-0.231000000000
25.044176230000,-0.221000000000
25.051863351000,-0.214000000000
25.059550472000,-0.206000000000
25.067237593000,-0.199000000000
25.074924714000,-0.196000000000
25.082611835000,-0.194000000000
25.090298956000,-0.189000000000
25.097986077000,-0.182000000000
25.105673198000,-0.179000000000
25.113360319000,-0.179000000000
25.121047440000,-0.174000000000
25.128734561000,-0.167000000000
25.136421682000,-0.167000000000
25.144108803000,-0.169000000000
25.151795924000,-0.172000000000
25.159483045000,-0.167000000000
25.167170166000,-0.160000000000
25.174857287000,-0.157000000000
25.182544408000,-0.157000000000
25.190231593000,-0.152000000000
25.197918714000,-0.147000000000
25.205605835000,-0.145000000000
25.213292956000,-0.140000000000
25.220980077000,-0.135000000000
25.228667198000,-0.132000000000
25.236354319000,-0.128000000000
25.244041440000,-0.123000000000
25.251728561000,-0.120000000000
25.259415682000,-0.118000000000
25.267102803000,-0.113000000000
25.274789924000,-0.108000000000
25.282477045000,-0.105000000000
25.290164166000,-0.103000000000
25.297851287000,-0.098000000000
25.305538408000,-0.098000000000
25.313225529000,-0.096000000000
25.320912650000,-0.093000000000
25.328599771000,-0.091000000000
25.336286892000,-0.091000000000
25.343974013000,-0.086000000000
25.351661134000,-0.071000000000
25.359348255000,-0.049000000000
25.367035376000,-0.039000000000
25.374722497000,-0.041000000000
25.382409618000,-0.041000000000
25.390096739000,-0.049000000000
25.397783860000,-0.081000000000
25.405470981000,-0.105000000000
25.413158102000,-0.100000000000
25.420845223000,-0.091000000000
25.428532344000,-0.091000000000
25.436219465000,-0.088000000000
25.443906586000,-0.086000000000
25.451593707000,-0.083000000000
25.459280828000,-0.081000000000
25.466967949000,-0.086000000000
25.474655070000,-0.105000000000
25.482342191000,-0.160000000000
25.490029312000,-0.189000000000
25.497716433000,0.039000000000
25.505403554000,0.669000000000
25.513090675000,1.484000000000
25.520777796000,1.994000000000
25.528464917000,1.358000000000
25.536152038000,-0.162000000000
25.543839159000,-0.694000000000
25.551526280000,-0.174000000000
25.559213401000,-0.091000000000
25.566900522000,-0.285000000000
25.574587643000,-0.187000000000
25.582274764000,-0.128000000000
25.589961885000,-0.184000000000
25.597649006000,-0.155000000000
25.605336127000,-0.105000000000
25.613023248000,-0.108000000000
25.620710369000,-0.096000000000
25.628397490000,-0.066000000000
25.636084611000,-0.049000000000
25.643771732000,-0.034000000000
25.651458853000,-0.007000000000
25.659145974000,0.017000000000
25.666833095000,0.039000000000
25.674520216000,0.066000000000
25.682207337000,0.100000000000
25.689894458000,0.132000000000
25.697581579000,0.164000000000
25.705268700000,0.204000000000
25.712955821000,0.241000000000
25.720642942000,0.275000000000
25.728330063000,0.305000000000
25.736017184000,0.324000000000
25.743704305000,0.329000000000
25.751391494000,0.324000000000
25.759078267000,0.310000000000
25.766765040000,0.288000000000
25.774451813000,0.251000000000
25.782138586000,0.189000000000
25.789825359000,0.103000000000
25.797512132000,0.004000000000
25.805198905000,-0.091000000000
25.812885678000,-0.172000000000
25.820572451000,-0.233000000000
25.828259224000,-0.273000000000
25.835945997000,-0.297000000000
25.843632770000,-0.305000000000
25.851319543000,-0.302000000000
25.859006316000,-0.292000000000
25.866693089000,-0.283000000000
25.874379862000,-0.268000000000
25.882066635000,-0.256000000000
25.889753408000,-0.243000000000
25.897440181000,-0.233000000000
25.905126954000,-0.221000000000
25.912813727000,-0.214000000000
25.920500500000,-0.209000000000
25.928187273000,-0.201000000000
25.935874046000,-0.196000000000
25.943560819000,-0.194000000000
25.951247592000,-0.189000000000
25.958934365000,-0.184000000000
25.966621138000,-0.182000000000
25.974307911000,-0.179000000000
25.981994684000,-0.177000000000
25.989681457000,-0.177000000000
25.997368230000,-0.174000000000
26.005055003000,-0.172000000000
26.012741776000,-0.169000000000
26.020428549000,-0.167000000000
26.028115322000,-0.164000000000
26.035802095000,-0.160000000000
26.043488868000,-0.157000000000
26.051175641000,-0.155000000000
26.058862414000,-0.150000000000
26.066549187000,-0.147000000000
26.074235960000,-0.142000000000
26.081922733000,-0.140000000000
26.089609506000,-0.135000000000
26.097296279000,-0.132000000000
26.104983052000,-0.128000000000
26.112669825000,-0.125000000000
26.120356598000,-0.123000000000
26.128043371000,-0.118000000000
26.135730144000,-0.115000000000
26.143416917000,-0.110000000000
26.151103690000,-0.108000000000
26.158790463000,-0.103000000000
26.166477236000,-0.100000000000
26.174164009000,-0.100000000000
26.181850782000,-0.096000000000
26.189537555000,-0.093000000000
26.197224328000,-0.091000000000
26.204911101000,-0.088000000000
26.212597874000,-0.086000000000
26.220284647000,-0.088000000000
26.227971420000,-0.086000000000
26.235658193000,-0.076000000000
26.243344966000,-0.059000000000
26.251031739000,-0.041000000000
26.258718512000,-0.039000000000
26.266405285000,-0.044000000000
26.274092058000,-0.041000000000
26.281778831000,-0.051000000000
26.289465604000,-0.086000000000
26.297152377000,-0.103000000000
26.304839150000,-0.093000000000
26.312525960000,-0.086000000000
26.320213012000,-0.088000000000
26.327900064000,-0.086000000000
26.335587116000,-0.081000000000
26.343274168000,-0.081000000000
26.350961220000,-0.081000000000
26.358648272000,-0.091000000000
26.366335324000,-0.128000000000
26.374022376000,-0.189000000000
26.381709428000,-0.125000000000
26.389396480000,0.290000000000
26.397083532000,1.036000000000
26.404770584000,1.816000000000
26.412457636000,1.915000000000
26.420144688000,0.669000000000
26.427831740000,-0.617000000000
26.435518792000,-0.462000000000
26.443205844000,-0.024000000000
26.450892896000,-0.209000000000
26.458579948000,-0.275000000000
26.466267000000,-0.137000000000
26.473954052000,-0.157000000000
26.481641104000,-0.189000000000
26.489328156000,-0.130000000000
26.497015208000,-0.108000000000
26.504702260000,-0.113000000000
26.512389312000,-0.083000000000
26.520076364000,-0.059000000000
26.527763416000,-0.046000000000
26.535450468000,-0.027000000000
26.543137520000,0.000000000000
26.550824572000,0.019000000000
26.558511624000,0.044000000000
26.566198676000,0.073000000000
26.573885728000,0.103000000000
26.581572780000,0.135000000000
26.589259832000,0.169000000000
26.596946884000,0.206000000000
26.604633936000,0.243000000000
26.612320988000,0.275000000000
26.620008040000,0.300000000000
26.627695092000,0.312000000000
26.635382144000,0.312000000000
26.643069196000,0.305000000000
26.650756248000,0.288000000000
26.658443300000,0.263000000000
26.666130352000,0.221000000000
26.673817404000,0.155000000000
26.681504456000,0.068000000000
26.689191508000,-0.024000000000
26.696878560000,-0.113000000000
26.704565612000,-0.187000000000
26.712252664000,-0.238000000000
26.719939716000,-0.273000000000
26.727626768000,-0.290000000000
26.735313820000,-0.292000000000
26.743000872000,-0.288000000000
26.750687924000,-0.278000000000
26.758374976000,-0.265000000000
26.766062028000,-0.253000000000
26.773749080000,-0.241000000000
26.781436132000,-0.231000000000
26.789123184000,-0.219000000000
26.796810236000,-0.211000000000
26.804497288000,-0.204000000000
26.812184340000,-0.199000000000
26.819871392000,-0.194000000000
26.827558444000,-0.189000000000
26.835245496000,-0.184000000000
26.842932548000,-0.179000000000
26.850619600000,-0.177000000000
26.858306652000,-0.177000000000
26.865993704000,-0.174000000000
26.873680770000,-0.172000000000
26.881367891000,-0.172000000000
26.889055012000,-0.169000000000
26.896742133000,-0.167000000000
26.904429254000,-0.164000000000
26.912116375000,-0.162000000000
26.919803496000,-0.160000000000
26.927490617000,-0.157000000000
26.935177738000,-0.152000000000
26.942864859000,-0.150000000000
26.950551980000,-0.145000000000
26.958239101000,-0.142000000000
26.965926222000,-0.137000000000
26.973613343000,-0.132000000000
26.981300464000,-0.128000000000
26.988987585000,-0.125000000000
26.996674706000,-0.123000000000
27.004361827000,-0.118000000000
27.012048948000,-0.113000000000
27.019736069000,-0.110000000000
27.027423190000,-0.108000000000
27.035110311000,-0.105000000000
27.042797432000,-0.100000000000
27.050484553000,-0.098000000000
27.058171674000,-0.098000000000
27.065858795000,-0.096000000000
27.073545916000,-0.093000000000
27.081233037000,-0.088000000000
27.088920158000,-0.086000000000
27.096607279000,-0.086000000000
27.104294400000,-0.086000000000
27.111981521000,-0.081000000000
27.119668642000,-0.066000000000
27.127355763000,-0.046000000000
27.135042884000,-0.034000000000
27.142730005000,-0.036000000000
27.150417126000,-0.039000000000
27.158104247000,-0.041000000000
27.165791368000,-0.066000000000
27.173478489000,-0.096000000000
27.181165610000,-0.096000000000
27.188852731000,-0.083000000000
27.196539852000,-0.081000000000
27.204226973000,-0.083000000000
27.211914094000,-0.078000000000
27.219601215000,-0.076000000000
27.227288336000,-0.076000000000
27.234975457000,-0.078000000000
27.242662578000,-0.103000000000
27.250349699000,-0.160000000000
27.258036820000,-0.172000000000
27.265723941000,0.076000000000
27.273411062000,0.699000000000
27.281098183000,1.511000000000
27.288785304000,2.003000000000
27.296472425000,1.294000000000
27.304159546000,-0.226000000000
27.311846667000,-0.657000000000
27.319533788000,-0.128000000000
27.327220909000,-0.096000000000
27.334908030000,-0.283000000000
27.342595151000,-0.174000000000
27.350282272000,-0.123000000000
27.357969393000,-0.179000000000
27.365656514000,-0.145000000000
27.373343635000,-0.100000000000
27.381030756000,-0.103000000000
27.388717877000,-0.088000000000
27.396404998000,-0.059000000000
27.404092119000,-0.041000000000
27.411779240000,-0.027000000000
27.419466361000,-0.002000000000
27.427153482000,0.019000000000
27.434840667000,0.041000000000
27.442527370000,0.071000000000
27.450214073000,0.098000000000
27.457900776000,0.128000000000
27.465587479000,0.162000000000
27.473274182000,0.196000000000
27.480960885000,0.233000000000
27.488647588000,0.263000000000
27.496334291000,0.290000000000
27.504020994000,0.307000000000
27.511707697000,0.312000000000
27.519394400000,0.305000000000
27.527081103000,0.292000000000
27.534767806000,0.270000000000
27.542454509000,0.236000000000
27.550141212000,0.182000000000
27.557827915000,0.105000000000
27.565514618000,0.012000000000
27.573201321000,-0.076000000000
27.580888024000,-0.155000000000
27.588574727000,-0.214000000000
27.596261430000,-0.256000000000
27.603948133000,-0.278000000000
27.611634836000,-0.285000000000
27.619321539000,-0.283000000000
27.627008242000,-0.275000000000
27.634694945000,-0.263000000000
27.642381648000,-0.251000000000
27.650068351000,-0.241000000000
27.657755054000,-0.228000000000
27.665441757000,-0.219000000000
27.673128460000,-0.209000000000
27.680815163000,-0.201000000000
27.688501866000,-0.194000000000
27.696188569000,-0.192000000000
27.703875272000,-0.187000000000
27.711561975000,-0.182000000000
27.719248678000,-0.179000000000
27.726935381000,-0.177000000000
27.734622084000,-0.174000000000
27.742308787000,-0.172000000000
27.749995490000,-0.172000000000
27.757682193000,-0.169000000000
27.765368896000,-0.167000000000
27.773055599000,-0.164000000000
27.780742302000,-0.162000000000
27.788429005000,-0.160000000000
27.796115708000,-0.157000000000
27.803802411000,-0.155000000000
27.811489114000,-0.152000000000
27.819175817000,-0.147000000000
27.826862520000,-0.145000000000
27.834549223000,-0.140000000000
27.842235926000,-0.135000000000
27.849922629000,-0.132000000000
27.857609332000,-0.128000000000
27.865296035000,-0.123000000000
27.872982738000,-0.120000000000
27.880669441000,-0.115000000000
27.888356144000,-0.113000000000
27.896042847000,-0.108000000000
27.903729550000,-0.105000000000
27.911416253000,-0.103000000000
27.919102956000,-0.098000000000
27.926789659000,-0.096000000000
27.934476362000,-0.093000000000
27.942163065000,-0.091000000000
27.949849768000,-0.088000000000
27.957536471000,-0.088000000000
27.965223174000,-0.086000000000
27.972909877000,-0.076000000000
27.980596580000,-0.059000000000
27.988283283000,-0.039000000000
27.995970046000,-0.032000000000
28.003657167000,-0.036000000000
28.011344288000,-0.039000000000
28.019031409000,-0.049000000000
28.026718530000,-0.081000000000
28.034405651000,-0.103000000000
28.042092772000,-0.093000000000
28.049779893000,-0.083000000000
28.057467014000,-0.086000000000
28.065154135000,-0.083000000000
28.072841256000,-0.078000000000
28.080528377000,-0.078000000000
28.088215498000,-0.081000000000
28.095902619000,-0.091000000000
28.103589740000,-0.128000000000
28.111276861000,-0.184000000000
28.118963982000,-0.118000000000
28.126651103000,0.275000000000
28.134338224000,0.987000000000
28.142025345000,1.742000000000
28.149712466000,1.841000000000
28.157399587000,0.637000000000
28.165086708000,-0.608000000000
28.172773829000,-0.457000000000
28.180460950000,-0.032000000000
28.188148071000,-0.204000000000
28.195835192000,-0.260000000000
28.203522313000,-0.125000000000
28.211209434000,-0.147000000000
28.218896555000,-0.177000000000
28.226583676000,-0.120000000000
28.234270797000,-0.098000000000
28.241957918000,-0.103000000000
28.249645039000,-0.076000000000
28.257332160000,-0.054000000000
28.265019281000,-0.041000000000
28.272706402000,-0.019000000000
28.280393523000,0.004000000000
28.288080644000,0.027000000000
28.295767765000,0.049000000000
28.303454886000,0.078000000000
28.311142007000,0.105000000000
28.318829128000,0.137000000000
28.326516249000,0.172000000000
28.334203370000,0.206000000000
28.341890491000,0.238000000000
28.349577612000,0.270000000000
28.357264733000,0.292000000000
28.364951854000,0.302000000000
28.372638975000,0.300000000000
28.380326096000,0.292000000000
28.388013217000,0.278000000000
28.395700338000,0.248000000000
28.403387459000,0.204000000000
28.411074580000,0.140000000000
28.418761701000,0.054000000000
28.426448822000,-0.039000000000
28.434135943000,-0.123000000000
28.441823064000,-0.192000000000
28.449510185000,-0.246000000000
28.457197306000,-0.278000000000
28.464884427000,-0.290000000000
28.472571548000,-0.292000000000
28.480258669000,-0.288000000000
28.487945790000,-0.278000000000
28.495632911000,-0.265000000000
28.503320032000,-0.256000000000
28.511007153000,-0.243000000000
28.518694274000,-0.233000000000
28.526381395000,-0.224000000000
28.534068516000,-0.216000000000
28.541755637000,-0.209000000000
28.549442758000,-0.204000000000
28.557129943000,-0.199000000000
28.564817064000,-0.196000000000
28.572504185000,-0.189000000000
28.580191306000,-0.187000000000
28.587878427000,-0.187000000000
28.595565548000,-0.184000000000
28.603252669000,-0.182000000000
28.610939790000,-0.182000000000
28.618626911000,-0.177000000000
28.626314032000,-0.174000000000
28.634001153000,-0.174000000000
28.641688274000,-0.172000000000
28.649375395000,-0.169000000000
28.657062516000,-0.164000000000
28.664749637000,-0.162000000000
28.672436758000,-0.160000000000
28.680123879000,-0.155000000000
28.687811000000,-0.150000000000
28.695498121000,-0.145000000000
28.703185242000,-0.142000000000
28.710872363000,-0.137000000000
28.718559484000,-0.135000000000
28.726246605000,-0.130000000000
28.733933726000,-0.125000000000
28.741620847000,-0.123000000000
28.749307968000,-0.120000000000
28.756995089000,-0.115000000000
28.764682210000,-0.110000000000
28.772369331000,-0.113000000000
28.780056452000,-0.113000000000
28.787743573000,-0.103000000000
28.795430694000,-0.088000000000
28.803117815000,-0.066000000000
28.810804936000,-0.051000000000
28.818492057000,-0.056000000000
28.826179178000,-0.061000000000
28.833866299000,-0.064000000000
28.841553420000,-0.088000000000
28.849240541000,-0.115000000000
28.856927662000,-0.115000000000
28.864614783000,-0.103000000000
28.872301904000,-0.100000000000
28.879989025000,-0.100000000000
28.887676146000,-0.098000000000
28.895363267000,-0.098000000000
28.903050388000,-0.096000000000
28.910737509000,-0.096000000000
28.918424630000,-0.115000000000
28.926111751000,-0.167000000000
28.933798872000,-0.196000000000
28.941485993000,-0.002000000000
28.949173114000,0.566000000000
28.956860235000,1.346000000000
28.964547356000,1.890000000000
28.972234477000,1.358000000000
28.979921598000,-0.108000000000
28.987608719000,-0.691000000000
28.995295840000,-0.194000000000
29.002982961000,-0.083000000000
29.010670082000,-0.273000000000
29.018357203000,-0.184000000000
29.026044324000,-0.123000000000
29.033731445000,-0.179000000000
29.041418566000,-0.152000000000
29.049105687000,-0.098000000000
29.056792808000,-0.103000000000
29.064479929000,-0.091000000000
29.072167050000,-0.059000000000
29.079854171000,-0.044000000000
29.087541292000,-0.029000000000
29.095228413000,0.000000000000
29.102915534000,0.024000000000
29.110602655000,0.044000000000
29.118289844000,0.068000000000
29.125976547000,0.096000000000
29.133663250000,0.128000000000
29.141349953000,0.164000000000
29.149036656000,0.204000000000
29.156723359000,0.236000000000
29.164410062000,0.268000000000
29.172096765000,0.297000000000
29.179783468000,0.315000000000
29.187470171000,0.322000000000
29.195156874000,0.317000000000
29.202843577000,0.300000000000
29.210530280000,0.278000000000
29.218216983000,0.243000000000
29.225903686000,0.184000000000
29.233590389000,0.103000000000
29.241277092000,0.007000000000
29.248963795000,-0.088000000000
29.256650498000,-0.167000000000
29.264337201000,-0.228000000000
29.272023904000,-0.270000000000
29.279710607000,-0.292000000000
29.287397310000,-0.297000000000
29.295084013000,-0.292000000000
29.302770716000,-0.285000000000
29.310457419000,-0.273000000000
29.318144122000,-0.258000000000
29.325830825000,-0.243000000000
29.333517528000,-0.231000000000
