time,LSB
0.000000000000,1.019000000000
0.007687539000,0.868000000000
0.015375078000,0.057000000000
0.023062617000,-0.538000000000
0.030750156000,-0.428000000000
0.038437695000,-0.218000000000
0.046125234000,-0.250000000000
0.053812773000,-0.204000000000
0.061500312000,-0.110000000000
0.069187851000,-0.129000000000
0.076875390000,-0.139000000000
0.084562929000,-0.101000000000
0.092250468000,-0.091000000000
0.099938007000,-0.098000000000
0.107625546000,-0.084000000000
0.115313085000,-0.074000000000
0.123000624000,-0.074000000000
0.130688163000,-0.069000000000
0.138375702000,-0.062000000000
0.146063241000,-0.060000000000
0.153750780000,-0.052000000000
0.161438319000,-0.045000000000
0.169125858000,-0.038000000000
0.176813397000,-0.031000000000
0.184500936000,-0.026000000000
0.192188475000,-0.019000000000
0.199876014000,-0.012000000000
0.207563553000,-0.004000000000
0.215251092000,0.000000000000
0.222938631000,0.004000000000
0.230626170000,0.004000000000
0.238313709000,0.004000000000
0.246001248000,0.004000000000
0.253688787000,0.007000000000
0.261376326000,0.004000000000
0.269063865000,0.000000000000
0.276751404000,-0.014000000000
0.284438943000,-0.040000000000
0.292126482000,-0.072000000000
0.299814021000,-0.108000000000
0.307501560000,-0.144000000000
0.315189099000,-0.173000000000
0.322876638000,-0.194000000000
0.330564177000,-0.211000000000
0.338251716000,-0.221000000000
0.345939255000,-0.223000000000
0.353626794000,-0.223000000000
0.361314333000,-0.226000000000
0.369001872000,-0.223000000000
0.376689411000,-0.223000000000
0.384376950000,-0.226000000000
0.392064489000,-0.228000000000
0.399752028000,-0.228000000000
0.407439567000,-0.230000000000
0.415127106000,-0.235000000000
0.422814645000,-0.235000000000
0.430502184000,-0.238000000000
0.438189723000,-0.240000000000
0.445877262000,-0.242000000000
0.453564801000,-0.240000000000
0.461252340000,-0.238000000000
0.468939879000,-0.238000000000
0.476627418000,-0.240000000000
0.484314957000,-0.240000000000
0.492002496000,-0.238000000000
0.499690035000,-0.235000000000
0.507377574000,-0.235000000000
0.515065113000,-0.235000000000
0.522752652000,-0.235000000000
0.530440191000,-0.240000000000
0.538127730000,-0.245000000000
0.545815269000,-0.247000000000
0.553502876000,-0.240000000000
0.561190415000,-0.226000000000
0.568877954000,-0.214000000000
0.576565493000,-0.202000000000
0.584253032000,-0.180000000000
0.591940571000,-0.175000000000
0.599628110000,-0.197000000000
0.607315649000,-0.214000000000
0.615003188000,-0.209000000000
0.622690727000,-0.204000000000
0.630378266000,-0.204000000000
0.638065805000,-0.202000000000
0.645753344000,-0.197000000000
0.653440883000,-0.202000000000
0.661128422000,-0.226000000000
0.668815961000,-0.245000000000
0.676503500000,-0.074000000000
0.684191039000,0.461000000000
0.691878578000,0.945000000000
0.699566117000,0.678000000000
0.707253656000,-0.197000000000
0.714941195000,-0.711000000000
0.722628734000,-0.531000000000
0.730316273000,-0.334000000000
0.738003812000,-0.365000000000
0.745691351000,-0.290000000000
0.753378890000,-0.187000000000
0.761066429000,-0.204000000000
0.768753968000,-0.209000000000
0.776441507000,-0.170000000000
0.784129046000,-0.161000000000
0.791816585000,-0.158000000000
0.799504124000,-0.141000000000
0.807191663000,-0.132000000000
0.814879202000,-0.125000000000
0.822566741000,-0.115000000000
0.830254280000,-0.108000000000
0.837941819000,-0.101000000000
0.845629358000,-0.091000000000
0.853316897000,-0.079000000000
0.861004436000,-0.069000000000
0.868691975000,-0.060000000000
0.876379514000,-0.050000000000
0.884067053000,-0.036000000000
0.891754592000,-0.021000000000
0.899442131000,-0.007000000000
0.907129670000,0.004000000000
0.914817209000,0.016000000000
0.922504748000,0.024000000000
0.930192287000,0.031000000000
0.937879826000,0.040000000000
0.945567365000,0.048000000000
0.953254904000,0.052000000000
0.960942443000,0.048000000000
0.968629982000,0.028000000000
0.976317521000,-0.004000000000
0.984005060000,-0.040000000000
0.991692599000,-0.081000000000
0.999380138000,-0.122000000000
1.007067677000,-0.153000000000
1.014755216000,-0.175000000000
1.022442755000,-0.189000000000
1.030130294000,-0.194000000000
1.037817833000,-0.197000000000
1.045505372000,-0.197000000000
1.053192911000,-0.194000000000
1.060880450000,-0.192000000000
1.068567989000,-0.189000000000
1.076255528000,-0.187000000000
1.083943067000,-0.185000000000
1.091630606000,-0.182000000000
1.099318145000,-0.185000000000
1.107005684000,-0.187000000000
1.114693295000,-0.189000000000
1.122380556000,-0.189000000000
1.130067817000,-0.187000000000
1.137755078000,-0.185000000000
1.145442339000,-0.182000000000
1.153129600000,-0.180000000000
1.160816861000,-0.177000000000
1.168504122000,-0.173000000000
1.176191383000,-0.170000000000
1.183878644000,-0.165000000000
1.191565905000,-0.161000000000
1.199253166000,-0.158000000000
1.206940427000,-0.158000000000
1.214627688000,-0.161000000000
1.222314949000,-0.161000000000
1.230002210000,-0.161000000000
1.237689471000,-0.153000000000
1.245376732000,-0.141000000000
1.253063993000,-0.132000000000
1.260751254000,-0.127000000000
1.268438515000,-0.103000000000
1.276125776000,-0.081000000000
1.283813037000,-0.096000000000
1.291500298000,-0.117000000000
1.299187559000,-0.113000000000
1.306874820000,-0.108000000000
1.314562081000,-0.110000000000
1.322249342000,-0.105000000000
1.329936603000,-0.101000000000
1.337623864000,-0.098000000000
1.345311125000,-0.108000000000
1.352998386000,-0.129000000000
1.360685647000,-0.036000000000
1.368372908000,0.399000000000
1.376060169000,0.973000000000
1.383747430000,0.947000000000
1.391434691000,0.113000000000
1.399121952000,-0.610000000000
1.406809213000,-0.550000000000
1.414496474000,-0.286000000000
1.422183735000,-0.283000000000
1.429870996000,-0.228000000000
1.437558257000,-0.091000000000
1.445245518000,-0.081000000000
1.452932779000,-0.101000000000
1.460620040000,-0.064000000000
1.468307301000,-0.045000000000
1.475994562000,-0.048000000000
1.483681823000,-0.033000000000
1.491369084000,-0.021000000000
1.499056345000,-0.016000000000
1.506743606000,-0.009000000000
1.514430867000,0.004000000000
1.522118128000,0.012000000000
1.529805389000,0.019000000000
1.537492650000,0.028000000000
1.545179911000,0.038000000000
1.552867172000,0.045000000000
1.560554433000,0.057000000000
1.568241694000,0.067000000000
1.575928955000,0.076000000000
1.583616216000,0.091000000000
1.591303477000,0.103000000000
1.598990738000,0.115000000000
1.606677999000,0.127000000000
1.614365260000,0.134000000000
1.622052521000,0.139000000000
1.629739782000,0.149000000000
1.637427043000,0.156000000000
1.645114304000,0.153000000000
1.652801565000,0.137000000000
1.660488826000,0.105000000000
1.668176087000,0.062000000000
1.675863366000,0.016000000000
1.683550975000,-0.028000000000
1.691238584000,-0.069000000000
1.698926193000,-0.096000000000
1.706613802000,-0.110000000000
1.714301411000,-0.120000000000
1.721989020000,-0.122000000000
1.729676629000,-0.117000000000
1.737364238000,-0.113000000000
1.745051847000,-0.110000000000
1.752739456000,-0.105000000000
1.760427065000,-0.101000000000
1.768114674000,-0.101000000000
1.775802283000,-0.098000000000
1.783489892000,-0.098000000000
1.791177501000,-0.098000000000
1.798865110000,-0.098000000000
1.806552719000,-0.098000000000
1.814240328000,-0.098000000000
1.821927937000,-0.098000000000
1.829615546000,-0.098000000000
1.837303155000,-0.096000000000
1.844990764000,-0.093000000000
1.852678373000,-0.091000000000
1.860365982000,-0.091000000000
1.868053591000,-0.088000000000
1.875741200000,-0.086000000000
1.883428809000,-0.081000000000
1.891116418000,-0.076000000000
1.898804027000,-0.074000000000
1.906491636000,-0.069000000000
1.914179245000,-0.072000000000
1.921866854000,-0.076000000000
1.929554463000,-0.081000000000
1.937242072000,-0.079000000000
1.944929681000,-0.072000000000
1.952617290000,-0.057000000000
1.960304899000,-0.045000000000
1.967992508000,-0.036000000000
1.975680117000,-0.012000000000
1.983367726000,0.002000000000
1.991055335000,-0.016000000000
1.998742944000,-0.033000000000
2.006430553000,-0.028000000000
2.014118162000,-0.026000000000
2.021805771000,-0.028000000000
2.029493380000,-0.024000000000
2.037180989000,-0.021000000000
2.044868598000,-0.021000000000
2.052556207000,-0.043000000000
2.060243816000,-0.091000000000
2.067931425000,0.009000000000
2.075619034000,0.488000000000
2.083306643000,1.067000000000
2.090994252000,1.050000000000
2.098681861000,0.290000000000
2.106369470000,-0.396000000000
2.114057079000,-0.367000000000
2.121744688000,-0.139000000000
2.129432297000,-0.158000000000
2.137119906000,-0.137000000000
2.144807515000,-0.038000000000
2.152495124000,-0.045000000000
2.160182733000,-0.060000000000
2.167870342000,-0.021000000000
2.175557951000,-0.007000000000
2.183245560000,-0.009000000000
2.190933169000,0.004000000000
2.198620778000,0.016000000000
2.206308387000,0.019000000000
2.213995996000,0.028000000000
2.221683605000,0.036000000000
2.229371214000,0.040000000000
2.237058868000,0.048000000000
2.244746477000,0.057000000000
2.252434086000,0.064000000000
2.260121695000,0.074000000000
2.267809304000,0.084000000000
2.275496913000,0.091000000000
2.283184522000,0.101000000000
2.290872131000,0.110000000000
2.298559740000,0.115000000000
2.306247349000,0.120000000000
2.313934958000,0.122000000000
2.321622567000,0.125000000000
2.329310176000,0.125000000000
2.336997785000,0.125000000000
2.344685394000,0.127000000000
2.352373003000,0.127000000000
2.360060612000,0.120000000000
2.367748221000,0.101000000000
2.375435830000,0.076000000000
2.383123439000,0.045000000000
2.390811048000,0.014000000000
2.398498657000,-0.012000000000
2.406186266000,-0.033000000000
2.413873875000,-0.050000000000
2.421561484000,-0.057000000000
2.429249093000,-0.062000000000
2.436936702000,-0.062000000000
2.444624311000,-0.062000000000
2.452311920000,-0.060000000000
2.459999529000,-0.057000000000
2.467687138000,-0.057000000000
2.475374747000,-0.057000000000
2.483062356000,-0.057000000000
2.490749965000,-0.060000000000
2.498437574000,-0.060000000000
2.506125183000,-0.060000000000
2.513812792000,-0.062000000000
2.521500401000,-0.062000000000
2.529188010000,-0.062000000000
2.536875619000,-0.064000000000
2.544563228000,-0.062000000000
2.552250837000,-0.062000000000
2.559938446000,-0.062000000000
2.567626055000,-0.060000000000
2.575313664000,-0.057000000000
2.583001273000,-0.055000000000
2.590688882000,-0.055000000000
2.598376491000,-0.052000000000
2.606064100000,-0.050000000000
2.613751709000,-0.052000000000
2.621439318000,-0.057000000000
2.629126927000,-0.064000000000
2.636814536000,-0.067000000000
2.644502145000,-0.062000000000
2.652189754000,-0.048000000000
2.659877363000,-0.036000000000
2.667564972000,-0.028000000000
2.675252581000,-0.004000000000
2.682940190000,0.007000000000
2.690627799000,-0.012000000000
2.698315408000,-0.031000000000
2.706003017000,-0.026000000000
2.713690626000,-0.026000000000
2.721378235000,-0.028000000000
2.729065844000,-0.026000000000
2.736753453000,-0.021000000000
2.744441062000,-0.026000000000
2.752128671000,-0.048000000000
2.759816280000,-0.091000000000
2.767503889000,-0.009000000000
2.775191498000,0.432000000000
2.782879107000,1.010000000000
2.790566716000,1.038000000000
2.798254370000,0.315000000000
2.805941631000,-0.396000000000
2.813628892000,-0.408000000000
2.821316153000,-0.168000000000
2.829003414000,-0.170000000000
2.836690675000,-0.156000000000
2.844377936000,-0.052000000000
2.852065197000,-0.050000000000
2.859752458000,-0.072000000000
2.867439719000,-0.038000000000
2.875126980000,-0.019000000000
2.882814241000,-0.021000000000
2.890501502000,-0.009000000000
2.898188763000,0.004000000000
2.905876024000,0.007000000000
2.913563285000,0.014000000000
2.921250546000,0.021000000000
2.928937807000,0.026000000000
2.936625068000,0.031000000000
2.944312329000,0.043000000000
2.951999590000,0.050000000000
2.959686851000,0.057000000000
2.967374112000,0.067000000000
2.975061373000,0.076000000000
2.982748634000,0.084000000000
2.990435895000,0.091000000000
2.998123156000,0.098000000000
3.005810417000,0.103000000000
3.013497678000,0.105000000000
3.021184939000,0.108000000000
3.028872200000,0.108000000000
3.036559461000,0.108000000000
3.044246722000,0.110000000000
3.051933983000,0.108000000000
3.059621244000,0.096000000000
3.067308505000,0.074000000000
3.074995766000,0.045000000000
3.082683027000,0.014000000000
3.090370288000,-0.019000000000
3.098057549000,-0.048000000000
3.105744810000,-0.072000000000
3.113432071000,-0.084000000000
3.121119332000,-0.091000000000
3.128806593000,-0.093000000000
3.136493854000,-0.096000000000
3.144181115000,-0.096000000000
3.151868376000,-0.093000000000
3.159555637000,-0.088000000000
3.167242898000,-0.088000000000
3.174930159000,-0.088000000000
3.182617420000,-0.091000000000
3.190304681000,-0.091000000000
3.197991942000,-0.088000000000
3.205679203000,-0.091000000000
3.213366464000,-0.093000000000
3.221053725000,-0.093000000000
3.228740986000,-0.093000000000
3.236428247000,-0.091000000000
3.244115508000,-0.091000000000
3.251802769000,-0.091000000000
3.259490030000,-0.088000000000
3.267177291000,-0.086000000000
3.274864552000,-0.084000000000
3.282551813000,-0.084000000000
3.290239074000,-0.086000000000
3.297926335000,-0.081000000000
3.305613596000,-0.081000000000
3.313300857000,-0.084000000000
3.320988118000,-0.088000000000
3.328675379000,-0.093000000000
3.336362640000,-0.088000000000
3.344049901000,-0.074000000000
3.351737162000,-0.064000000000
3.359424437000,-0.060000000000
3.367111976000,-0.043000000000
3.374799515000,-0.021000000000
3.382487054000,-0.026000000000
3.390174593000,-0.052000000000
3.397862132000,-0.060000000000
3.405549671000,-0.052000000000
3.413237210000,-0.055000000000
3.420924749000,-0.055000000000
3.428612288000,-0.048000000000
3.436299827000,-0.048000000000
3.443987366000,-0.057000000000
3.451674905000,-0.091000000000
3.459362444000,-0.081000000000
3.467049983000,0.214000000000
3.474737522000,0.812000000000
3.482425061000,1.098000000000
3.490112600000,0.565000000000
3.497800139000,-0.286000000000
3.505487678000,-0.548000000000
3.513175217000,-0.290000000000
3.520862756000,-0.189000000000
3.528550295000,-0.211000000000
3.536237834000,-0.103000000000
3.543925373000,-0.048000000000
3.551612912000,-0.079000000000
3.559300451000,-0.060000000000
3.566987990000,-0.028000000000
3.574675529000,-0.031000000000
3.582363068000,-0.021000000000
3.590050607000,-0.004000000000
3.597738146000,-0.002000000000
3.605425685000,0.000000000000
3.613113224000,0.012000000000
3.620800763000,0.024000000000
3.628488302000,0.033000000000
3.636175841000,0.040000000000
3.643863380000,0.048000000000
3.651550919000,0.057000000000
3.659238458000,0.067000000000
3.666925997000,0.079000000000
3.674613536000,0.088000000000
3.682301075000,0.098000000000
3.689988614000,0.113000000000
3.697676153000,0.122000000000
3.705363692000,0.129000000000
3.713051231000,0.132000000000
3.720738770000,0.137000000000
3.728426309000,0.144000000000
3.736113848000,0.149000000000
3.743801387000,0.144000000000
3.751488926000,0.129000000000
3.759176465000,0.108000000000
3.766864004000,0.074000000000
3.774551543000,0.036000000000
3.782239082000,-0.009000000000
3.789926621000,-0.043000000000
3.797614160000,-0.069000000000
3.805301699000,-0.093000000000
3.812989238000,-0.110000000000
3.820676777000,-0.115000000000
3.828364316000,-0.113000000000
3.836051855000,-0.108000000000
3.843739394000,-0.108000000000
3.851426933000,-0.103000000000
3.859114472000,-0.101000000000
3.866802011000,-0.098000000000
3.874489550000,-0.103000000000
3.882177089000,-0.108000000000
3.889864628000,-0.108000000000
3.897552167000,-0.110000000000
3.905239706000,-0.115000000000
3.912927245000,-0.113000000000
3.920614852000,-0.108000000000
3.928302391000,-0.110000000000
3.935989930000,-0.110000000000
3.943677469000,-0.108000000000
3.951365008000,-0.108000000000
3.959052547000,-0.108000000000
3.966740086000,-0.108000000000
3.974427625000,-0.110000000000
3.982115164000,-0.117000000000
3.989802703000,-0.115000000000
3.997490242000,-0.110000000000
4.005177781000,-0.110000000000
4.012865320000,-0.101000000000
4.020552859000,-0.088000000000
4.028240398000,-0.079000000000
4.035927937000,-0.055000000000
4.043615476000,-0.043000000000
4.051303015000,-0.064000000000
4.058990554000,-0.081000000000
4.066678093000,-0.079000000000
4.074365632000,-0.074000000000
4.082053171000,-0.072000000000
4.089740710000,-0.067000000000
4.097428249000,-0.062000000000
4.105115788000,-0.067000000000
4.112803327000,-0.084000000000
4.120490866000,-0.079000000000
4.128178405000,0.149000000000
4.135865944000,0.721000000000
4.143553483000,1.120000000000
4.151241022000,0.654000000000
4.158928561000,-0.300000000000
4.166616100000,-0.673000000000
4.174303639000,-0.391000000000
4.181991178000,-0.245000000000
4.189678717000,-0.266000000000
4.197366256000,-0.139000000000
4.205053795000,-0.040000000000
4.212741334000,-0.067000000000
4.220428873000,-0.057000000000
4.228116412000,-0.021000000000
4.235803951000,-0.021000000000
4.243491490000,-0.019000000000
4.251179029000,0.000000000000
4.258866568000,0.009000000000
4.266554107000,0.014000000000
4.274241646000,0.026000000000
4.281929185000,0.036000000000
4.289616724000,0.043000000000
4.297304263000,0.052000000000
4.304991802000,0.062000000000
4.312679341000,0.072000000000
4.320366880000,0.084000000000
4.328054419000,0.096000000000
4.335741958000,0.110000000000
4.343429497000,0.125000000000
4.351117036000,0.139000000000
4.358804575000,0.151000000000
4.366492114000,0.161000000000
4.374179653000,0.168000000000
4.381867192000,0.173000000000
4.389554731000,0.175000000000
4.397242270000,0.177000000000
4.404929809000,0.175000000000
4.412617348000,0.156000000000
4.420304887000,0.120000000000
4.427992426000,0.076000000000
4.435679965000,0.024000000000
4.443367504000,-0.028000000000
4.451055043000,-0.076000000000
4.458742582000,-0.105000000000
4.466430121000,-0.122000000000
4.474117660000,-0.134000000000
4.481805271000,-0.139000000000
4.489492810000,-0.137000000000
4.497180349000,-0.132000000000
4.504867888000,-0.125000000000
4.512555427000,-0.120000000000
4.520242966000,-0.113000000000
4.527930505000,-0.110000000000
4.535618044000,-0.113000000000
4.543305583000,-0.113000000000
4.550993122000,-0.115000000000
4.558680661000,-0.117000000000
4.566368200000,-0.120000000000
4.574055739000,-0.120000000000
4.581743278000,-0.125000000000
4.589430817000,-0.127000000000
4.597118356000,-0.127000000000
4.604805895000,-0.125000000000
4.612493434000,-0.122000000000
4.620180973000,-0.120000000000
4.627868512000,-0.122000000000
4.635556051000,-0.129000000000
4.643243590000,-0.132000000000
4.650931129000,-0.129000000000
4.658618668000,-0.127000000000
4.666306207000,-0.120000000000
4.673993746000,-0.113000000000
4.681681285000,-0.105000000000
4.689368824000,-0.081000000000
4.697056363000,-0.060000000000
4.704743902000,-0.069000000000
4.712431441000,-0.093000000000
4.720118980000,-0.093000000000
4.727806519000,-0.088000000000
4.735494058000,-0.091000000000
4.743181597000,-0.086000000000
4.750869136000,-0.081000000000
4.758556675000,-0.084000000000
4.766244214000,-0.096000000000
4.773931753000,-0.127000000000
4.781619292000,-0.060000000000
4.789306831000,0.360000000000
4.796994370000,0.976000000000
4.804681909000,1.055000000000
4.812369448000,0.300000000000
4.820056987000,-0.497000000000
4.827744526000,-0.541000000000
4.835432065000,-0.259000000000
4.843119604000,-0.238000000000
4.850807143000,-0.228000000000
4.858494682000,-0.108000000000
4.866182221000,-0.086000000000
4.873869760000,-0.110000000000
4.881557299000,-0.079000000000
4.889244838000,-0.057000000000
4.896932377000,-0.060000000000
4.904619916000,-0.050000000000
4.912307455000,-0.036000000000
4.919994994000,-0.033000000000
4.927682533000,-0.026000000000
4.935370072000,-0.016000000000
4.943057611000,-0.009000000000
4.950745150000,0.000000000000
4.958432689000,0.009000000000
4.966120228000,0.019000000000
4.973807767000,0.028000000000
4.981495306000,0.036000000000
4.989182845000,0.048000000000
4.996870384000,0.062000000000
5.004557923000,0.074000000000
5.012245462000,0.084000000000
5.019933001000,0.096000000000
5.027620540000,0.101000000000
5.035308079000,0.103000000000
5.042995686000,0.108000000000
5.050683225000,0.110000000000
5.058370764000,0.110000000000
5.066058303000,0.103000000000
5.073745842000,0.086000000000
5.081433381000,0.057000000000
5.089120920000,0.019000000000
5.096808459000,-0.026000000000
5.104495998000,-0.069000000000
5.112183537000,-0.103000000000
5.119871076000,-0.125000000000
5.127558615000,-0.137000000000
5.135246154000,-0.144000000000
5.142933693000,-0.146000000000
5.150621232000,-0.144000000000
5.158308771000,-0.139000000000
5.165996310000,-0.137000000000
5.173683849000,-0.132000000000
5.181371388000,-0.129000000000
5.189058927000,-0.127000000000
5.196746466000,-0.127000000000
5.204434005000,-0.127000000000
5.212121544000,-0.127000000000
5.219809083000,-0.129000000000
5.227496622000,-0.129000000000
5.235184161000,-0.129000000000
5.242871700000,-0.129000000000
5.250559239000,-0.129000000000
5.258246778000,-0.129000000000
5.265934317000,-0.129000000000
5.273621856000,-0.127000000000
5.281309395000,-0.127000000000
5.288996934000,-0.134000000000
5.296684473000,-0.139000000000
5.304372012000,-0.139000000000
5.312059551000,-0.137000000000
5.319747090000,-0.127000000000
5.327434629000,-0.115000000000
5.335122168000,-0.105000000000
5.342809707000,-0.084000000000
5.350497246000,-0.060000000000
5.358184785000,-0.069000000000
5.365872324000,-0.091000000000
5.373559863000,-0.093000000000
5.381247402000,-0.088000000000
5.388934941000,-0.088000000000
5.396622480000,-0.088000000000
5.404310019000,-0.081000000000
5.411997558000,-0.079000000000
5.419685097000,-0.093000000000
5.427372636000,-0.137000000000
5.435060175000,-0.127000000000
5.442747714000,0.187000000000
5.450435253000,0.812000000000
5.458122792000,1.147000000000
5.465810331000,0.666000000000
5.473497870000,-0.202000000000
5.481185409000,-0.514000000000
5.488872948000,-0.271000000000
5.496560487000,-0.185000000000
5.504248026000,-0.233000000000
5.511935565000,-0.141000000000
5.519623104000,-0.093000000000
5.527310643000,-0.125000000000
5.534998182000,-0.103000000000
5.542685721000,-0.069000000000
5.550373260000,-0.069000000000
5.558060799000,-0.062000000000
5.565748338000,-0.045000000000
5.573435877000,-0.038000000000
5.581123416000,-0.031000000000
5.588810955000,-0.021000000000
5.596498494000,-0.016000000000
5.604186101000,-0.009000000000
5.611873640000,0.000000000000
5.619561179000,0.009000000000
5.627248718000,0.019000000000
5.634936257000,0.028000000000
5.642623796000,0.038000000000
5.650311335000,0.050000000000
5.657998874000,0.060000000000
5.665686413000,0.072000000000
5.673373952000,0.079000000000
5.681061491000,0.084000000000
5.688749030000,0.084000000000
5.696436569000,0.081000000000
5.704124108000,0.081000000000
5.711811647000,0.079000000000
5.719499186000,0.074000000000
5.727186725000,0.062000000000
5.734874264000,0.040000000000
5.742561803000,0.012000000000
5.750249342000,-0.021000000000
5.757936881000,-0.055000000000
5.765624420000,-0.086000000000
5.773311959000,-0.105000000000
5.780999498000,-0.117000000000
5.788687037000,-0.125000000000
5.796374576000,-0.127000000000
5.804062115000,-0.127000000000
5.811749654000,-0.125000000000
5.819437193000,-0.120000000000
5.827124732000,-0.120000000000
5.834812271000,-0.117000000000
5.842499810000,-0.115000000000
5.850187349000,-0.115000000000
5.857874888000,-0.113000000000
5.865562427000,-0.113000000000
5.873249966000,-0.113000000000
5.880937505000,-0.113000000000
5.888625044000,-0.115000000000
5.896312583000,-0.115000000000
5.904000122000,-0.115000000000
5.911687661000,-0.113000000000
5.919375200000,-0.113000000000
5.927062739000,-0.113000000000
5.934750278000,-0.110000000000
5.942437817000,-0.108000000000
5.950125356000,-0.105000000000
5.957812895000,-0.103000000000
5.965500434000,-0.101000000000
5.973187973000,-0.103000000000
5.980875512000,-0.108000000000
5.988563051000,-0.113000000000
5.996250590000,-0.115000000000
6.003938129000,-0.108000000000
6.011625668000,-0.093000000000
6.019313207000,-0.084000000000
6.027000746000,-0.072000000000
6.034688285000,-0.048000000000
6.042375824000,-0.036000000000
6.050063363000,-0.057000000000
6.057750902000,-0.074000000000
6.065438441000,-0.069000000000
6.073125980000,-0.067000000000
6.080813519000,-0.069000000000
6.088501058000,-0.064000000000
6.096188597000,-0.062000000000
6.103876136000,-0.064000000000
6.111563675000,-0.088000000000
6.119251214000,-0.137000000000
6.126938753000,-0.048000000000
6.134626292000,0.416000000000
6.142313831000,1.010000000000
6.150001370000,1.043000000000
6.157688909000,0.303000000000
6.165376516000,-0.425000000000
6.173063986000,-0.430000000000
6.180751456000,-0.189000000000
6.188438926000,-0.204000000000
6.196126396000,-0.192000000000
6.203813866000,-0.088000000000
6.211501336000,-0.088000000000
6.219188806000,-0.108000000000
6.226876276000,-0.072000000000
6.234563746000,-0.052000000000
6.242251216000,-0.055000000000
6.249938686000,-0.043000000000
6.257626156000,-0.031000000000
6.265313626000,-0.028000000000
6.273001096000,-0.021000000000
6.280688566000,-0.009000000000
6.288376036000,-0.002000000000
6.296063506000,0.002000000000
6.303750976000,0.012000000000
6.311438446000,0.021000000000
6.319125916000,0.028000000000
6.326813386000,0.038000000000
6.334500856000,0.048000000000
6.342188326000,0.057000000000
6.349875796000,0.067000000000
6.357563266000,0.076000000000
6.365250736000,0.081000000000
6.372938206000,0.086000000000
6.380625676000,0.086000000000
6.388313146000,0.086000000000
6.396000616000,0.084000000000
6.403688086000,0.084000000000
6.411375556000,0.081000000000
6.419063026000,0.069000000000
6.426750496000,0.045000000000
6.434437966000,0.014000000000
6.442125436000,-0.019000000000
6.449812906000,-0.052000000000
6.457500376000,-0.081000000000
6.465187846000,-0.101000000000
6.472875316000,-0.115000000000
6.480562786000,-0.122000000000
6.488250256000,-0.125000000000
6.495937726000,-0.122000000000
6.503625196000,-0.120000000000
6.511312666000,-0.117000000000
6.519000136000,-0.115000000000
6.526687606000,-0.115000000000
6.534375076000,-0.115000000000
6.542062546000,-0.115000000000
6.549750016000,-0.115000000000
6.557437486000,-0.115000000000
6.565124956000,-0.115000000000
6.572812426000,-0.115000000000
6.580499896000,-0.117000000000
6.588187366000,-0.120000000000
6.595874836000,-0.120000000000
6.603562306000,-0.122000000000
6.611249776000,-0.122000000000
6.618937246000,-0.120000000000
6.626624716000,-0.117000000000
6.634312186000,-0.117000000000
6.641999656000,-0.115000000000
6.649687126000,-0.115000000000
6.657374596000,-0.113000000000
6.665062066000,-0.110000000000
6.672749536000,-0.108000000000
6.680437006000,-0.105000000000
6.688124476000,-0.103000000000
6.695811946000,-0.101000000000
6.703499416000,-0.098000000000
6.711186886000,-0.098000000000
6.718874356000,-0.093000000000
6.726561848000,-0.088000000000
6.734249457000,-0.088000000000
6.741937066000,-0.088000000000
6.749624675000,-0.086000000000
6.757312284000,-0.086000000000
6.764999893000,-0.088000000000
6.772687502000,-0.093000000000
6.780375111000,-0.101000000000
6.788062720000,-0.103000000000
6.795750329000,-0.093000000000
6.803437938000,-0.081000000000
6.811125547000,-0.072000000000
6.818813156000,-0.060000000000
6.826500765000,-0.038000000000
6.834188374000,-0.033000000000
6.841875983000,-0.055000000000
6.849563592000,-0.069000000000
6.857251201000,-0.067000000000
6.864938810000,-0.064000000000
6.872626419000,-0.067000000000
6.880314028000,-0.062000000000
6.888001637000,-0.060000000000
6.895689246000,-0.067000000000
6.903376855000,-0.093000000000
6.911064464000,-0.137000000000
6.918752073000,0.002000000000
6.926439682000,0.519000000000
6.934127291000,1.043000000000
6.941814900000,0.899000000000
6.949502509000,0.091000000000
6.957190118000,-0.500000000000
6.964877727000,-0.382000000000
6.972565336000,-0.180000000000
6.980252945000,-0.223000000000
6.987940554000,-0.175000000000
6.995628163000,-0.081000000000
7.003315772000,-0.101000000000
7.011003381000,-0.108000000000
7.018690990000,-0.067000000000
7.026378599000,-0.060000000000
7.034066208000,-0.062000000000
7.041753817000,-0.048000000000
7.049441426000,-0.038000000000
7.057129035000,-0.036000000000
7.064816644000,-0.026000000000
7.072504253000,-0.021000000000
7.080191862000,-0.014000000000
7.087879471000,-0.007000000000
7.095567080000,0.002000000000
7.103254689000,0.009000000000
7.110942298000,0.019000000000
7.118629907000,0.026000000000
7.126317516000,0.036000000000
7.134005125000,0.043000000000
7.141692734000,0.050000000000
7.149380343000,0.057000000000
7.157067952000,0.062000000000
7.164755561000,0.062000000000
7.172443170000,0.064000000000
7.180130779000,0.067000000000
7.187818388000,0.067000000000
7.195505997000,0.072000000000
7.203193606000,0.076000000000
7.210881215000,0.072000000000
7.218568824000,0.057000000000
7.226256433000,0.033000000000
7.233944042000,0.007000000000
7.241631651000,-0.024000000000
7.249319260000,-0.050000000000
7.257006869000,-0.074000000000
7.264694478000,-0.093000000000
7.272382087000,-0.103000000000
7.280069696000,-0.108000000000
7.287757350000,-0.108000000000
7.295444541000,-0.105000000000
7.303131732000,-0.105000000000
7.310818923000,-0.105000000000
7.318506114000,-0.105000000000
7.326193305000,-0.103000000000
7.333880496000,-0.103000000000
7.341567687000,-0.105000000000
7.349254878000,-0.105000000000
7.356942069000,-0.105000000000
7.364629260000,-0.105000000000
7.372316451000,-0.108000000000
7.380003642000,-0.108000000000
7.387690833000,-0.108000000000
7.395378024000,-0.108000000000
7.403065215000,-0.108000000000
7.410752406000,-0.105000000000
7.418439597000,-0.105000000000
7.426126788000,-0.103000000000
7.433813979000,-0.101000000000
7.441501170000,-0.098000000000
7.449188361000,-0.096000000000
7.456875552000,-0.093000000000
7.464562743000,-0.091000000000
7.472249934000,-0.088000000000
7.479937125000,-0.086000000000
7.487624316000,-0.084000000000
7.495311507000,-0.081000000000
7.502998698000,-0.079000000000
7.510685889000,-0.079000000000
7.518373080000,-0.076000000000
7.526060271000,-0.074000000000
7.533747462000,-0.072000000000
7.541434653000,-0.069000000000
7.549121844000,-0.067000000000
7.556809035000,-0.067000000000
7.564496226000,-0.067000000000
7.572183417000,-0.064000000000
7.579870608000,-0.062000000000
7.587557799000,-0.060000000000
7.595244990000,-0.057000000000
7.602932181000,-0.057000000000
7.610619372000,-0.055000000000
7.618306563000,-0.052000000000
7.625993754000,-0.057000000000
7.633680945000,-0.064000000000
7.641368136000,-0.069000000000
7.649055327000,-0.069000000000
7.656742518000,-0.062000000000
7.664429709000,-0.050000000000
7.672116900000,-0.045000000000
7.679804091000,-0.038000000000
7.687491282000,-0.016000000000
7.695178473000,-0.009000000000
7.702865664000,-0.028000000000
7.710552855000,-0.045000000000
7.718240046000,-0.045000000000
7.725927237000,-0.048000000000
7.733614428000,-0.050000000000
7.741301619000,-0.043000000000
7.748988810000,-0.040000000000
7.756676001000,-0.048000000000
7.764363192000,-0.079000000000
7.772050383000,-0.093000000000
7.779737574000,0.127000000000
7.787424765000,0.699000000000
7.795111956000,1.106000000000
7.802799147000,0.723000000000
7.810486338000,-0.144000000000
7.818173529000,-0.560000000000
7.825860720000,-0.346000000000
7.833547911000,-0.197000000000
7.841235102000,-0.240000000000
7.848922334000,-0.153000000000
7.856609804000,-0.072000000000
7.864297274000,-0.101000000000
7.871984744000,-0.096000000000
7.879672214000,-0.060000000000
7.887359684000,-0.057000000000
7.895047154000,-0.060000000000
7.902734624000,-0.050000000000
7.910422094000,-0.045000000000
7.918109564000,-0.040000000000
7.925797034000,-0.031000000000
7.933484504000,-0.026000000000
7.941171974000,-0.021000000000
7.948859444000,-0.014000000000
7.956546914000,-0.007000000000
7.964234384000,-0.002000000000
7.971921854000,0.004000000000
7.979609324000,0.012000000000
7.987296794000,0.016000000000
7.994984264000,0.024000000000
8.002671734000,0.033000000000
8.010359204000,0.043000000000
8.018046674000,0.048000000000
8.025734144000,0.050000000000
8.033421614000,0.055000000000
8.041109084000,0.055000000000
8.048796554000,0.060000000000
8.056484024000,0.064000000000
8.064171494000,0.062000000000
8.071858964000,0.050000000000
8.079546434000,0.031000000000
8.087233904000,0.000000000000
8.094921374000,-0.038000000000
8.102608844000,-0.076000000000
8.110296314000,-0.113000000000
8.117983784000,-0.144000000000
8.125671254000,-0.163000000000
8.133358724000,-0.175000000000
8.141046194000,-0.180000000000
8.148733664000,-0.182000000000
8.156421134000,-0.185000000000
8.164108604000,-0.180000000000
8.171796074000,-0.180000000000
8.179483544000,-0.180000000000
8.187171014000,-0.177000000000
8.194858484000,-0.180000000000
8.202545954000,-0.182000000000
8.210233424000,-0.187000000000
8.217920894000,-0.189000000000
8.225608364000,-0.192000000000
8.233295834000,-0.194000000000
8.240983304000,-0.199000000000
8.248670774000,-0.202000000000
8.256358244000,-0.202000000000
8.264045714000,-0.202000000000
8.271733184000,-0.202000000000
8.279420654000,-0.202000000000
8.287108124000,-0.202000000000
8.294795594000,-0.199000000000
8.302483064000,-0.199000000000
8.310170534000,-0.199000000000
8.317858004000,-0.197000000000
8.325545474000,-0.194000000000
8.333232944000,-0.192000000000
8.340920414000,-0.192000000000
8.348607884000,-0.189000000000
8.356295354000,-0.187000000000
8.363982824000,-0.185000000000
8.371670294000,-0.182000000000
8.379357764000,-0.180000000000
8.387045234000,-0.175000000000
8.394732704000,-0.173000000000
8.402420174000,-0.173000000000
8.410107662000,-0.170000000000
8.417795201000,-0.170000000000
8.425482740000,-0.168000000000
8.433170279000,-0.165000000000
8.440857818000,-0.173000000000
8.448545357000,-0.177000000000
8.456232896000,-0.177000000000
8.463920435000,-0.173000000000
8.471607974000,-0.163000000000
8.479295513000,-0.151000000000
8.486983052000,-0.144000000000
8.494670591000,-0.125000000000
8.502358130000,-0.105000000000
8.510045669000,-0.117000000000
8.517733208000,-0.139000000000
8.525420747000,-0.139000000000
8.533108286000,-0.137000000000
8.540795825000,-0.139000000000
8.548483364000,-0.134000000000
8.556170903000,-0.129000000000
8.563858442000,-0.132000000000
8.571545981000,-0.156000000000
8.579233520000,-0.177000000000
8.586921059000,-0.009000000000
8.594608598000,0.529000000000
8.602296137000,1.007000000000
8.609983676000,0.731000000000
8.617671215000,-0.139000000000
8.625358754000,-0.649000000000
8.633046293000,-0.468000000000
8.640733832000,-0.281000000000
8.648421371000,-0.310000000000
8.656108910000,-0.226000000000
8.663796449000,-0.122000000000
8.671483988000,-0.141000000000
8.679171527000,-0.144000000000
8.686859066000,-0.103000000000
8.694546605000,-0.096000000000
8.702234144000,-0.096000000000
8.709921683000,-0.079000000000
8.717609222000,-0.069000000000
8.725296761000,-0.064000000000
8.732984300000,-0.055000000000
8.740671839000,-0.043000000000
8.748359378000,-0.036000000000
8.756046917000,-0.028000000000
8.763734456000,-0.016000000000
8.771421995000,-0.007000000000
8.779109534000,0.002000000000
8.786797073000,0.012000000000
8.794484612000,0.021000000000
8.802172151000,0.033000000000
8.809859690000,0.048000000000
8.817547229000,0.060000000000
8.825234768000,0.069000000000
8.832922307000,0.074000000000
8.840609846000,0.079000000000
8.848297385000,0.081000000000
8.855984924000,0.081000000000
8.863672463000,0.084000000000
8.871360002000,0.079000000000
8.879047541000,0.064000000000
8.886735080000,0.043000000000
8.894422619000,0.009000000000
8.902110158000,-0.031000000000
8.909797697000,-0.074000000000
8.917485236000,-0.108000000000
8.925172775000,-0.129000000000
8.932860314000,-0.144000000000
8.940547853000,-0.151000000000
8.948235392000,-0.153000000000
8.955922931000,-0.149000000000
8.963610470000,-0.144000000000
8.971298077000,-0.139000000000
8.978985616000,-0.132000000000
8.986673155000,-0.125000000000
8.994360694000,-0.122000000000
9.002048233000,-0.122000000000
9.009735772000,-0.120000000000
9.017423311000,-0.122000000000
9.025110850000,-0.122000000000
9.032798389000,-0.122000000000
9.040485928000,-0.125000000000
9.048173467000,-0.125000000000
9.055861006000,-0.125000000000
9.063548545000,-0.125000000000
9.071236084000,-0.125000000000
9.078923623000,-0.122000000000
9.086611162000,-0.120000000000
9.094298701000,-0.117000000000
9.101986240000,-0.115000000000
9.109673779000,-0.113000000000
9.117361318000,-0.108000000000
9.125048857000,-0.105000000000
9.132736396000,-0.103000000000
9.140423935000,-0.101000000000
9.148111474000,-0.096000000000
9.155799013000,-0.093000000000
9.163486552000,-0.091000000000
9.171174091000,-0.086000000000
9.178861630000,-0.084000000000
9.186549169000,-0.081000000000
9.194236708000,-0.079000000000
9.201924247000,-0.076000000000
9.209611786000,-0.074000000000
9.217299325000,-0.072000000000
9.224986864000,-0.069000000000
9.232674403000,-0.067000000000
9.240361942000,-0.064000000000
9.248049481000,-0.062000000000
9.255737020000,-0.060000000000
9.263424559000,-0.057000000000
9.271112098000,-0.055000000000
9.278799637000,-0.052000000000
9.286487176000,-0.050000000000
9.294174715000,-0.050000000000
9.301862254000,-0.048000000000
9.309549793000,-0.048000000000
9.317237332000,-0.050000000000
9.324924871000,-0.060000000000
9.332612410000,-0.064000000000
9.340299949000,-0.062000000000
9.347987488000,-0.052000000000
9.355675027000,-0.036000000000
9.363362566000,-0.021000000000
9.371050105000,-0.012000000000
9.378737644000,0.002000000000
9.386425183000,0.000000000000
9.394112722000,-0.021000000000
9.401800261000,-0.031000000000
9.409487800000,-0.028000000000
9.417175339000,-0.028000000000
9.424862878000,-0.028000000000
9.432550417000,-0.024000000000
9.440237956000,-0.024000000000
9.447925495000,-0.045000000000
9.455613034000,-0.096000000000
9.463300573000,-0.052000000000
9.470988112000,0.336000000000
9.478675651000,0.947000000000
9.486363190000,1.135000000000
9.494050729000,0.548000000000
9.501738268000,-0.228000000000
9.509425807000,-0.394000000000
9.517113346000,-0.168000000000
9.524800885000,-0.153000000000
9.532488492000,-0.182000000000
9.540175962000,-0.084000000000
9.547863432000,-0.062000000000
9.555550902000,-0.091000000000
9.563238372000,-0.060000000000
9.570925842000,-0.036000000000
9.578613312000,-0.040000000000
9.586300782000,-0.028000000000
9.593988252000,-0.012000000000
9.601675722000,-0.012000000000
9.609363192000,-0.004000000000
9.617050662000,0.004000000000
9.624738132000,0.012000000000
9.632425602000,0.019000000000
9.640113072000,0.026000000000
9.647800542000,0.036000000000
9.655488012000,0.043000000000
9.663175482000,0.052000000000
9.670862952000,0.064000000000
9.678550422000,0.074000000000
9.686237892000,0.084000000000
9.693925362000,0.093000000000
9.701612832000,0.101000000000
9.709300302000,0.108000000000
9.716987772000,0.113000000000
9.724675242000,0.113000000000
9.732362712000,0.108000000000
9.740050182000,0.108000000000
9.747737652000,0.108000000000
9.755425122000,0.105000000000
9.763112592000,0.093000000000
9.770800062000,0.076000000000
9.778487532000,0.052000000000
9.786175002000,0.024000000000
9.793862472000,-0.007000000000
9.801549942000,-0.033000000000
9.809237412000,-0.052000000000
9.816924882000,-0.064000000000
9.824612352000,-0.072000000000
9.832299822000,-0.074000000000
9.839987292000,-0.076000000000
9.847674762000,-0.074000000000
9.855362232000,-0.069000000000
9.863049702000,-0.067000000000
9.870737172000,-0.067000000000
9.878424642000,-0.067000000000
9.886112112000,-0.064000000000
9.893799582000,-0.064000000000
9.901487052000,-0.064000000000
9.909174522000,-0.067000000000
9.916861992000,-0.067000000000
9.924549462000,-0.067000000000
9.932236932000,-0.067000000000
9.939924402000,-0.069000000000
9.947611872000,-0.069000000000
9.955299342000,-0.067000000000
9.962986812000,-0.067000000000
9.970674282000,-0.067000000000
9.978361752000,-0.064000000000
9.986049222000,-0.064000000000
9.993736692000,-0.062000000000
10.001424162000,-0.060000000000
10.009111632000,-0.060000000000
10.016799102000,-0.057000000000
10.024486572000,-0.057000000000
10.032174042000,-0.055000000000
10.039861512000,-0.055000000000
10.047548982000,-0.052000000000
10.055236452000,-0.048000000000
10.062923922000,-0.045000000000
10.070611392000,-0.045000000000
10.078298862000,-0.043000000000
10.085986332000,-0.040000000000
10.093673824000,-0.040000000000
10.101361433000,-0.038000000000
10.109049042000,-0.036000000000
10.116736651000,-0.033000000000
10.124424260000,-0.033000000000
10.132111869000,-0.031000000000
10.139799478000,-0.031000000000
10.147487087000,-0.033000000000
10.155174696000,-0.040000000000
10.162862305000,-0.048000000000
10.170549914000,-0.052000000000
10.178237523000,-0.048000000000
10.185925132000,-0.033000000000
10.193612741000,-0.016000000000
10.201300350000,-0.004000000000
10.208987959000,0.007000000000
10.216675568000,0.014000000000
10.224363177000,0.002000000000
10.232050786000,-0.019000000000
10.239738395000,-0.024000000000
10.247426004000,-0.021000000000
10.255113613000,-0.021000000000
10.262801222000,-0.019000000000
10.270488831000,-0.016000000000
10.278176440000,-0.024000000000
10.285864049000,-0.052000000000
10.293551658000,-0.091000000000
10.301239267000,0.048000000000
10.308926876000,0.560000000000
10.316614485000,1.074000000000
10.324302094000,0.937000000000
10.331989703000,0.161000000000
10.339677312000,-0.423000000000
10.347364921000,-0.334000000000
10.355052530000,-0.144000000000
10.362740139000,-0.185000000000
10.370427748000,-0.141000000000
10.378115357000,-0.050000000000
10.385802966000,-0.064000000000
10.393490575000,-0.074000000000
10.401178184000,-0.038000000000
10.408865793000,-0.028000000000
10.416553402000,-0.028000000000
10.424241011000,-0.014000000000
10.431928620000,-0.002000000000
10.439616229000,0.000000000000
10.447303838000,0.009000000000
10.454991447000,0.016000000000
10.462679056000,0.021000000000
10.470366665000,0.031000000000
10.478054274000,0.038000000000
10.485741883000,0.045000000000
10.493429492000,0.055000000000
10.501117101000,0.064000000000
10.508804710000,0.076000000000
10.516492319000,0.088000000000
10.524179928000,0.101000000000
10.531867537000,0.110000000000
10.539555146000,0.117000000000
10.547242755000,0.122000000000
10.554930364000,0.122000000000
10.562617973000,0.120000000000
10.570305582000,0.115000000000
10.577993191000,0.113000000000
10.585680800000,0.105000000000
10.593368409000,0.096000000000
10.601056018000,0.074000000000
10.608743627000,0.048000000000
10.616431236000,0.012000000000
10.624118845000,-0.026000000000
10.631806454000,-0.060000000000
10.639494063000,-0.084000000000
10.647181672000,-0.101000000000
10.654869326000,-0.110000000000
10.662556517000,-0.115000000000
10.670243708000,-0.115000000000
10.677930899000,-0.115000000000
10.685618090000,-0.113000000000
10.693305281000,-0.110000000000
10.700992472000,-0.108000000000
10.708679663000,-0.108000000000
10.716366854000,-0.105000000000
10.724054045000,-0.105000000000
10.731741236000,-0.108000000000
10.739428427000,-0.108000000000
10.747115618000,-0.110000000000
10.754802809000,-0.113000000000
10.762490000000,-0.115000000000
10.770177191000,-0.117000000000
10.777864382000,-0.115000000000
10.785551573000,-0.117000000000
10.793238764000,-0.117000000000
10.800925955000,-0.117000000000
10.808613146000,-0.120000000000
10.816300337000,-0.120000000000
10.823987528000,-0.117000000000
10.831674719000,-0.117000000000
10.839361910000,-0.117000000000
10.847049101000,-0.117000000000
10.854736292000,-0.117000000000
10.862423483000,-0.117000000000
10.870110674000,-0.115000000000
10.877797865000,-0.115000000000
10.885485056000,-0.115000000000
10.893172247000,-0.115000000000
10.900859438000,-0.115000000000
10.908546629000,-0.115000000000
10.916233820000,-0.122000000000
10.923921011000,-0.129000000000
10.931608202000,-0.134000000000
10.939295393000,-0.134000000000
10.946982584000,-0.125000000000
10.954669775000,-0.110000000000
10.962356966000,-0.103000000000
10.970044157000,-0.091000000000
10.977731348000,-0.074000000000
10.985418539000,-0.079000000000
10.993105730000,-0.103000000000
11.000792921000,-0.115000000000
11.008480112000,-0.113000000000
11.016167303000,-0.115000000000
11.023854494000,-0.115000000000
11.031541685000,-0.113000000000
11.039228876000,-0.115000000000
11.046916067000,-0.132000000000
11.054603258000,-0.175000000000
11.062290449000,-0.127000000000
11.069977640000,0.264000000000
11.077664831000,0.851000000000
11.085352022000,0.957000000000
11.093039213000,0.293000000000
11.100726404000,-0.442000000000
11.108413595000,-0.524000000000
11.116100786000,-0.290000000000
11.123787977000,-0.271000000000
11.131475168000,-0.266000000000
11.139162359000,-0.158000000000
11.146849550000,-0.139000000000
11.154536741000,-0.165000000000
11.162223932000,-0.139000000000
11.169911123000,-0.117000000000
11.177598314000,-0.117000000000
11.185285505000,-0.105000000000
11.192972696000,-0.091000000000
11.200659887000,-0.088000000000
11.208347078000,-0.081000000000
11.216034310000,-0.072000000000
11.223721919000,-0.062000000000
11.231409528000,-0.055000000000
11.239097137000,-0.045000000000
11.246784746000,-0.033000000000
11.254472355000,-0.024000000000
11.262159964000,-0.014000000000
11.269847573000,0.000000000000
11.277535182000,0.014000000000
11.285222791000,0.028000000000
11.292910400000,0.040000000000
11.300598009000,0.052000000000
11.308285618000,0.062000000000
11.315973227000,0.064000000000
11.323660836000,0.067000000000
11.331348445000,0.064000000000
11.339036054000,0.062000000000
11.346723663000,0.055000000000
11.354411272000,0.043000000000
11.362098881000,0.021000000000
11.369786490000,-0.012000000000
11.377474099000,-0.050000000000
11.385161708000,-0.093000000000
11.392849317000,-0.132000000000
11.400536926000,-0.153000000000
11.408224535000,-0.168000000000
11.415912144000,-0.177000000000
11.423599753000,-0.177000000000
11.431287362000,-0.173000000000
11.438974971000,-0.170000000000
11.446662580000,-0.165000000000
11.454350189000,-0.163000000000
11.462037798000,-0.161000000000
11.469725407000,-0.156000000000
11.477413016000,-0.151000000000
11.485100625000,-0.151000000000
11.492788234000,-0.151000000000
11.500475843000,-0.149000000000
11.508163452000,-0.149000000000
11.515851061000,-0.149000000000
11.523538670000,-0.149000000000
11.531226279000,-0.146000000000
11.538913888000,-0.146000000000
11.546601497000,-0.149000000000
11.554289106000,-0.144000000000
11.561976715000,-0.139000000000
11.569664324000,-0.139000000000
11.577351933000,-0.137000000000
11.585039542000,-0.129000000000
11.592727151000,-0.129000000000
11.600414760000,-0.132000000000
11.608102369000,-0.127000000000
11.615789978000,-0.120000000000
11.623477587000,-0.115000000000
11.631165196000,-0.115000000000
11.638852805000,-0.113000000000
11.646540414000,-0.108000000000
11.654228023000,-0.110000000000
11.661915632000,-0.115000000000
11.669603241000,-0.122000000000
11.677290850000,-0.122000000000
11.684978459000,-0.113000000000
11.692666068000,-0.098000000000
11.700353677000,-0.088000000000
11.708041286000,-0.079000000000
11.715728895000,-0.057000000000
11.723416504000,-0.045000000000
11.731104113000,-0.062000000000
11.738791722000,-0.081000000000
11.746479331000,-0.079000000000
11.754166940000,-0.076000000000
11.761854549000,-0.074000000000
11.769542158000,-0.069000000000
11.777229812000,-0.072000000000
11.784917212000,-0.076000000000
11.792604612000,-0.098000000000
11.800292012000,-0.115000000000
11.807979412000,0.086000000000
11.815666812000,0.649000000000
11.823354212000,1.077000000000
11.831041612000,0.711000000000
11.838729012000,-0.153000000000
11.846416412000,-0.574000000000
11.854103812000,-0.377000000000
11.861791212000,-0.230000000000
11.869478612000,-0.257000000000
11.877166012000,-0.158000000000
11.884853412000,-0.069000000000
11.892540812000,-0.093000000000
11.900228212000,-0.091000000000
11.907915612000,-0.057000000000
11.915603012000,-0.055000000000
11.923290412000,-0.052000000000
11.930977812000,-0.033000000000
11.938665212000,-0.021000000000
11.946352612000,-0.019000000000
11.954040012000,-0.009000000000
11.961727412000,0.002000000000
11.969414812000,0.009000000000
11.977102212000,0.016000000000
11.984789612000,0.028000000000
11.992477012000,0.040000000000
12.000164412000,0.052000000000
12.007851812000,0.064000000000
12.015539212000,0.079000000000
12.023226612000,0.096000000000
12.030914012000,0.108000000000
12.038601412000,0.125000000000
12.046288812000,0.139000000000
12.053976212000,0.146000000000
12.061663612000,0.149000000000
12.069351012000,0.151000000000
12.077038412000,0.151000000000
12.084725812000,0.149000000000
12.092413212000,0.139000000000
12.100100612000,0.115000000000
12.107788012000,0.081000000000
12.115475412000,0.036000000000
12.123162812000,-0.016000000000
12.130850212000,-0.064000000000
12.138537612000,-0.098000000000
12.146225012000,-0.122000000000
12.153912412000,-0.137000000000
12.161599812000,-0.141000000000
12.169287212000,-0.141000000000
12.176974612000,-0.139000000000
12.184662012000,-0.134000000000
12.192349412000,-0.129000000000
12.200036812000,-0.127000000000
12.207724212000,-0.122000000000
12.215411612000,-0.120000000000
12.223099012000,-0.117000000000
12.230786412000,-0.117000000000
12.238473812000,-0.115000000000
12.246161212000,-0.117000000000
12.253848612000,-0.120000000000
12.261536012000,-0.120000000000
12.269223412000,-0.120000000000
12.276910812000,-0.120000000000
12.284598212000,-0.117000000000
12.292285612000,-0.117000000000
12.299973012000,-0.117000000000
12.307660412000,-0.115000000000
12.315347812000,-0.110000000000
12.323035212000,-0.108000000000
12.330722612000,-0.105000000000
12.338410053000,-0.103000000000
12.346097592000,-0.101000000000
12.353785131000,-0.098000000000
12.361472670000,-0.098000000000
12.369160209000,-0.103000000000
12.376847748000,-0.105000000000
12.384535287000,-0.103000000000
12.392222826000,-0.098000000000
12.399910365000,-0.086000000000
12.407597904000,-0.074000000000
12.415285443000,-0.069000000000
12.422972982000,-0.052000000000
12.430660521000,-0.026000000000
12.438348060000,-0.033000000000
12.446035599000,-0.055000000000
12.453723138000,-0.060000000000
12.461410677000,-0.055000000000
12.469098216000,-0.057000000000
12.476785755000,-0.055000000000
12.484473294000,-0.050000000000
12.492160833000,-0.048000000000
12.499848372000,-0.057000000000
12.507535911000,-0.088000000000
12.515223450000,-0.036000000000
12.522910989000,0.355000000000
12.530598528000,0.964000000000
12.538286067000,1.067000000000
12.545973606000,0.348000000000
12.553661145000,-0.420000000000
12.561348684000,-0.485000000000
12.569036223000,-0.240000000000
12.576723762000,-0.216000000000
12.584411301000,-0.199000000000
12.592098840000,-0.076000000000
12.599786379000,-0.048000000000
12.607473918000,-0.072000000000
12.615161457000,-0.043000000000
12.622848996000,-0.019000000000
12.630536535000,-0.021000000000
12.638224074000,-0.009000000000
12.645911613000,0.007000000000
12.653599152000,0.012000000000
12.661286691000,0.019000000000
12.668974230000,0.031000000000
12.676661769000,0.040000000000
12.684349308000,0.048000000000
12.692036847000,0.060000000000
12.699724386000,0.072000000000
12.707411925000,0.084000000000
12.715099464000,0.096000000000
12.722787003000,0.110000000000
12.730474542000,0.125000000000
12.738162081000,0.139000000000
12.745849620000,0.156000000000
12.753537159000,0.168000000000
12.761224698000,0.175000000000
12.768912237000,0.180000000000
12.776599776000,0.182000000000
12.784287315000,0.187000000000
12.791974854000,0.187000000000
12.799662393000,0.180000000000
12.807349932000,0.163000000000
12.815037471000,0.134000000000
12.822725010000,0.093000000000
12.830412549000,0.043000000000
12.838100088000,-0.009000000000
12.845787627000,-0.050000000000
12.853475166000,-0.076000000000
12.861162705000,-0.093000000000
12.868850244000,-0.101000000000
12.876537783000,-0.103000000000
12.884225322000,-0.103000000000
12.891912861000,-0.096000000000
12.899600468000,-0.091000000000
12.907287938000,-0.086000000000
12.914975408000,-0.081000000000
12.922662878000,-0.079000000000
12.930350348000,-0.079000000000
12.938037818000,-0.079000000000
12.945725288000,-0.076000000000
12.953412758000,-0.079000000000
12.961100228000,-0.081000000000
12.968787698000,-0.081000000000
12.976475168000,-0.084000000000
12.984162638000,-0.084000000000
12.991850108000,-0.084000000000
12.999537578000,-0.084000000000
13.007225048000,-0.084000000000
13.014912518000,-0.081000000000
13.022599988000,-0.079000000000
13.030287458000,-0.079000000000
13.037974928000,-0.079000000000
13.045662398000,-0.076000000000
13.053349868000,-0.074000000000
13.061037338000,-0.072000000000
13.068724808000,-0.069000000000
13.076412278000,-0.067000000000
13.084099748000,-0.064000000000
13.091787218000,-0.062000000000
13.099474688000,-0.057000000000
13.107162158000,-0.057000000000
13.114849628000,-0.064000000000
13.122537098000,-0.069000000000
13.130224568000,-0.074000000000
13.137912038000,-0.072000000000
13.145599508000,-0.060000000000
13.153286978000,-0.043000000000
13.160974448000,-0.036000000000
13.168661918000,-0.021000000000
13.176349388000,0.000000000000
13.184036858000,-0.004000000000
13.191724328000,-0.028000000000
13.199411798000,-0.036000000000
13.207099268000,-0.033000000000
13.214786738000,-0.036000000000
13.222474208000,-0.033000000000
13.230161678000,-0.028000000000
13.237849148000,-0.028000000000
13.245536618000,-0.045000000000
13.253224088000,-0.096000000000
13.260911558000,-0.079000000000
13.268599028000,0.271000000000
13.276286498000,0.887000000000
13.283973968000,1.115000000000
13.291661438000,0.555000000000
13.299348908000,-0.221000000000
13.307036378000,-0.406000000000
13.314723848000,-0.187000000000
13.322411318000,-0.163000000000
13.330098788000,-0.189000000000
13.337786258000,-0.088000000000
13.345473728000,-0.062000000000
13.353161198000,-0.093000000000
13.360848668000,-0.067000000000
13.368536138000,-0.040000000000
13.376223608000,-0.043000000000
13.383911078000,-0.033000000000
13.391598548000,-0.019000000000
13.399286018000,-0.014000000000
13.406973488000,-0.009000000000
13.414660958000,0.000000000000
13.422348428000,0.004000000000
13.430035898000,0.012000000000
13.437723368000,0.021000000000
13.445410838000,0.031000000000
13.453098308000,0.040000000000
13.460785800000,0.050000000000
13.468473409000,0.060000000000
13.476161018000,0.072000000000
13.483848627000,0.081000000000
13.491536236000,0.093000000000
13.499223845000,0.103000000000
13.506911454000,0.110000000000
13.514599063000,0.113000000000
13.522286672000,0.113000000000
13.529974281000,0.113000000000
13.537661890000,0.110000000000
13.545349499000,0.105000000000
13.553037108000,0.096000000000
13.560724717000,0.076000000000
13.568412326000,0.050000000000
13.576099935000,0.014000000000
13.583787544000,-0.024000000000
13.591475153000,-0.060000000000
13.599162762000,-0.086000000000
13.606850371000,-0.105000000000
13.614537980000,-0.115000000000
13.622225589000,-0.122000000000
13.629913198000,-0.125000000000
13.637600807000,-0.125000000000
13.645288416000,-0.122000000000
13.652976025000,-0.117000000000
13.660663634000,-0.115000000000
13.668351243000,-0.113000000000
13.676038852000,-0.113000000000
13.683726461000,-0.113000000000
13.691414070000,-0.115000000000
13.699101679000,-0.115000000000
13.706789288000,-0.113000000000
13.714476897000,-0.115000000000
13.722164506000,-0.117000000000
13.729852115000,-0.117000000000
13.737539724000,-0.117000000000
13.745227333000,-0.117000000000
13.752914942000,-0.117000000000
13.760602551000,-0.120000000000
13.768290160000,-0.120000000000
13.775977769000,-0.117000000000
13.783665378000,-0.115000000000
13.791352987000,-0.113000000000
13.799040596000,-0.110000000000
13.806728205000,-0.110000000000
13.814415814000,-0.108000000000
13.822103423000,-0.105000000000
13.829791032000,-0.103000000000
13.837478641000,-0.101000000000
13.845166250000,-0.101000000000
13.852853859000,-0.098000000000
13.860541468000,-0.098000000000
13.868229077000,-0.098000000000
13.875916686000,-0.093000000000
13.883604295000,-0.091000000000
13.891291904000,-0.088000000000
13.898979513000,-0.088000000000
13.906667122000,-0.086000000000
13.914354731000,-0.084000000000
13.922042340000,-0.084000000000
13.929729949000,-0.084000000000
13.937417558000,-0.088000000000
13.945105167000,-0.098000000000
13.952792776000,-0.101000000000
13.960480385000,-0.098000000000
13.968167994000,-0.091000000000
13.975855603000,-0.076000000000
13.983543212000,-0.069000000000
13.991230821000,-0.055000000000
13.998918430000,-0.033000000000
14.006606039000,-0.033000000000
14.014293648000,-0.057000000000
14.021981302000,-0.069000000000
14.029668493000,-0.067000000000
14.037355684000,-0.067000000000
14.045042875000,-0.067000000000
14.052730066000,-0.062000000000
14.060417257000,-0.062000000000
14.068104448000,-0.074000000000
14.075791639000,-0.115000000000
14.083478830000,-0.127000000000
14.091166021000,0.127000000000
14.098853212000,0.707000000000
14.106540403000,1.060000000000
14.114227594000,0.666000000000
14.121914785000,-0.122000000000
14.129601976000,-0.452000000000
14.137289167000,-0.257000000000
14.144976358000,-0.177000000000
14.152663549000,-0.228000000000
14.160350740000,-0.144000000000
14.168037931000,-0.088000000000
14.175725122000,-0.117000000000
14.183412313000,-0.105000000000
14.191099504000,-0.074000000000
14.198786695000,-0.074000000000
14.206473886000,-0.067000000000
14.214161077000,-0.052000000000
14.221848268000,-0.045000000000
14.229535459000,-0.040000000000
14.237222650000,-0.031000000000
14.244909841000,-0.024000000000
14.252597032000,-0.019000000000
14.260284223000,-0.009000000000
14.267971414000,0.000000000000
14.275658605000,0.007000000000
14.283345796000,0.016000000000
14.291032987000,0.028000000000
14.298720178000,0.038000000000
14.306407369000,0.048000000000
14.314094560000,0.060000000000
14.321781751000,0.069000000000
14.329468942000,0.076000000000
14.337156133000,0.081000000000
14.344843324000,0.084000000000
14.352530515000,0.086000000000
14.360217706000,0.086000000000
14.367904897000,0.086000000000
14.375592088000,0.084000000000
14.383279279000,0.074000000000
14.390966470000,0.055000000000
14.398653661000,0.026000000000
14.406340852000,-0.004000000000
14.414028043000,-0.038000000000
14.421715234000,-0.069000000000
14.429402425000,-0.093000000000
14.437089616000,-0.108000000000
14.444776807000,-0.117000000000
14.452463998000,-0.120000000000
14.460151189000,-0.120000000000
14.467838380000,-0.117000000000
14.475525571000,-0.115000000000
14.483212762000,-0.115000000000
14.490899953000,-0.113000000000
14.498587144000,-0.110000000000
14.506274335000,-0.110000000000
14.513961526000,-0.110000000000
14.521648717000,-0.110000000000
14.529335908000,-0.110000000000
14.537023099000,-0.110000000000
14.544710290000,-0.110000000000
14.552397481000,-0.110000000000
14.560084672000,-0.113000000000
14.567771863000,-0.110000000000
14.575459054000,-0.110000000000
14.583146286000,-0.110000000000
14.590833756000,-0.108000000000
14.598521226000,-0.105000000000
14.606208696000,-0.105000000000
14.613896166000,-0.103000000000
14.621583636000,-0.103000000000
14.629271106000,-0.101000000000
14.636958576000,-0.098000000000
14.644646046000,-0.096000000000
14.652333516000,-0.093000000000
14.660020986000,-0.091000000000
14.667708456000,-0.088000000000
14.675395926000,-0.086000000000
14.683083396000,-0.084000000000
14.690770866000,-0.084000000000
14.698458336000,-0.081000000000
14.706145806000,-0.076000000000
14.713833276000,-0.076000000000
14.721520746000,-0.074000000000
14.729208216000,-0.072000000000
14.736895686000,-0.069000000000
14.744583156000,-0.069000000000
14.752270626000,-0.067000000000
14.759958096000,-0.064000000000
14.767645566000,-0.062000000000
14.775333036000,-0.062000000000
14.783020506000,-0.057000000000
14.790707976000,-0.057000000000
14.798395446000,-0.057000000000
14.806082916000,-0.064000000000
14.813770386000,-0.072000000000
14.821457856000,-0.074000000000
14.829145326000,-0.072000000000
14.836832796000,-0.064000000000
14.844520266000,-0.050000000000
14.852207736000,-0.038000000000
14.859895206000,-0.028000000000
14.867582676000,-0.012000000000
14.875270146000,-0.012000000000
14.882957616000,-0.031000000000
14.890645086000,-0.045000000000
14.898332556000,-0.043000000000
14.906020026000,-0.040000000000
14.913707496000,-0.043000000000
14.921394966000,-0.038000000000
14.929082436000,-0.038000000000
14.936769906000,-0.050000000000
14.944457376000,-0.091000000000
14.952144846000,-0.093000000000
14.959832316000,0.175000000000
14.967519786000,0.752000000000
14.975207256000,1.062000000000
14.982894726000,0.620000000000
14.990582196000,-0.151000000000
14.998269666000,-0.435000000000
15.005957136000,-0.235000000000
15.013644606000,-0.165000000000
15.021332076000,-0.206000000000
15.029019546000,-0.115000000000
15.036707016000,-0.067000000000
15.044394486000,-0.096000000000
15.052081956000,-0.081000000000
15.059769426000,-0.050000000000
15.067456896000,-0.050000000000
15.075144366000,-0.045000000000
15.082831836000,-0.028000000000
15.090519306000,-0.021000000000
15.098206776000,-0.016000000000
15.105894246000,-0.007000000000
15.113581716000,0.000000000000
15.121269186000,0.004000000000
15.128956656000,0.014000000000
15.136644126000,0.024000000000
15.144331614000,0.033000000000
15.152019153000,0.043000000000
15.159706692000,0.050000000000
15.167394231000,0.060000000000
15.175081770000,0.069000000000
15.182769309000,0.081000000000
15.190456848000,0.093000000000
15.198144387000,0.103000000000
15.205831926000,0.108000000000
15.213519465000,0.110000000000
15.221207004000,0.108000000000
15.228894543000,0.110000000000
15.236582082000,0.110000000000
15.244269621000,0.108000000000
15.251957160000,0.096000000000
15.259644699000,0.076000000000
15.267332238000,0.052000000000
15.275019777000,0.019000000000
15.282707316000,-0.016000000000
15.290394855000,-0.050000000000
15.298082394000,-0.076000000000
15.305769933000,-0.093000000000
15.313457472000,-0.103000000000
15.321145011000,-0.108000000000
15.328832550000,-0.108000000000
15.336520089000,-0.103000000000
15.344207628000,-0.101000000000
15.351895167000,-0.098000000000
15.359582706000,-0.098000000000
15.367270245000,-0.096000000000
15.374957784000,-0.096000000000
15.382645323000,-0.096000000000
15.390332862000,-0.098000000000
15.398020401000,-0.098000000000
15.405707940000,-0.098000000000
15.413395479000,-0.098000000000
15.421083018000,-0.101000000000
15.428770557000,-0.101000000000
15.436458096000,-0.101000000000
15.444145635000,-0.101000000000
15.451833174000,-0.098000000000
15.459520713000,-0.098000000000
15.467208252000,-0.098000000000
15.474895791000,-0.096000000000
15.482583330000,-0.096000000000
15.490270869000,-0.093000000000
15.497958408000,-0.091000000000
15.505645947000,-0.088000000000
15.513333486000,-0.086000000000
15.521021025000,-0.084000000000
15.528708564000,-0.084000000000
15.536396103000,-0.081000000000
15.544083642000,-0.079000000000
15.551771181000,-0.076000000000
15.559458720000,-0.074000000000
15.567146259000,-0.072000000000
15.574833798000,-0.072000000000
15.582521337000,-0.069000000000
15.590208876000,-0.067000000000
15.597896415000,-0.064000000000
15.605583954000,-0.064000000000
15.613271493000,-0.064000000000
15.620959032000,-0.064000000000
15.628646571000,-0.069000000000
15.636334110000,-0.074000000000
15.644021649000,-0.074000000000
15.651709188000,-0.072000000000
15.659396727000,-0.067000000000
15.667084266000,-0.052000000000
15.674771805000,-0.045000000000
15.682459344000,-0.031000000000
15.690146883000,-0.012000000000
15.697834422000,-0.019000000000
15.705522029000,-0.043000000000
15.713209429000,-0.050000000000
15.720896829000,-0.048000000000
15.728584229000,-0.050000000000
15.736271629000,-0.048000000000
15.743959029000,-0.043000000000
15.751646429000,-0.045000000000
15.759333829000,-0.062000000000
15.767021229000,-0.096000000000
15.774708629000,-0.016000000000
15.782396029000,0.413000000000
15.790083429000,0.971000000000
15.797770829000,0.940000000000
15.805458229000,0.194000000000
15.813145629000,-0.454000000000
15.820833029000,-0.440000000000
15.828520429000,-0.228000000000
15.836207829000,-0.228000000000
15.843895229000,-0.192000000000
15.851582629000,-0.076000000000
15.859270029000,-0.067000000000
15.866957429000,-0.086000000000
15.874644829000,-0.057000000000
15.882332229000,-0.040000000000
15.890019629000,-0.043000000000
15.897707029000,-0.031000000000
15.905394429000,-0.019000000000
15.913081829000,-0.014000000000
15.920769229000,-0.007000000000
15.928456629000,0.004000000000
15.936144029000,0.009000000000
15.943831429000,0.016000000000
15.951518829000,0.028000000000
15.959206229000,0.036000000000
15.966893629000,0.045000000000
15.974581029000,0.057000000000
15.982268429000,0.069000000000
15.989955829000,0.081000000000
15.997643229000,0.093000000000
16.005330629000,0.108000000000
16.013018029000,0.120000000000
16.020705429000,0.127000000000
16.028392829000,0.134000000000
16.036080229000,0.137000000000
16.043767629000,0.134000000000
16.051455029000,0.134000000000
16.059142429000,0.132000000000
16.066829829000,0.120000000000
16.074517229000,0.098000000000
16.082204629000,0.067000000000
16.089892029000,0.026000000000
16.097579429000,-0.019000000000
16.105266829000,-0.064000000000
16.112954229000,-0.096000000000
16.120641629000,-0.117000000000
16.128329029000,-0.127000000000
16.136016429000,-0.134000000000
16.143703829000,-0.134000000000
16.151391229000,-0.132000000000
16.159078629000,-0.127000000000
16.166766029000,-0.122000000000
16.174453429000,-0.120000000000
16.182140829000,-0.115000000000
16.189828229000,-0.113000000000
16.197515629000,-0.110000000000
16.205203029000,-0.108000000000
16.212890429000,-0.110000000000
16.220577829000,-0.113000000000
16.228265229000,-0.113000000000
16.235952629000,-0.113000000000
16.243640029000,-0.115000000000
16.251327429000,-0.115000000000
16.259014829000,-0.115000000000
16.266702274000,-0.113000000000
16.274389535000,-0.113000000000
16.282076796000,-0.113000000000
16.289764057000,-0.110000000000
16.297451318000,-0.108000000000
16.305138579000,-0.108000000000
16.312825840000,-0.105000000000
16.320513101000,-0.103000000000
16.328200362000,-0.101000000000
16.335887623000,-0.096000000000
16.343574884000,-0.096000000000
16.351262145000,-0.096000000000
16.358949406000,-0.093000000000
16.366636667000,-0.088000000000
16.374323928000,-0.088000000000
16.382011189000,-0.086000000000
16.389698450000,-0.084000000000
16.397385711000,-0.081000000000
16.405072972000,-0.079000000000
16.412760233000,-0.076000000000
16.420447494000,-0.074000000000
16.428134755000,-0.079000000000
16.435822016000,-0.086000000000
16.443509277000,-0.091000000000
16.451196538000,-0.091000000000
16.458883799000,-0.086000000000
16.466571060000,-0.072000000000
16.474258321000,-0.060000000000
16.481945582000,-0.050000000000
16.489632843000,-0.031000000000
16.497320104000,-0.021000000000
16.505007365000,-0.038000000000
16.512694626000,-0.055000000000
16.520381887000,-0.057000000000
16.528069148000,-0.057000000000
16.535756409000,-0.057000000000
16.543443670000,-0.055000000000
16.551130931000,-0.052000000000
16.558818192000,-0.057000000000
16.566505453000,-0.086000000000
16.574192714000,-0.129000000000
16.581879975000,0.019000000000
16.589567236000,0.543000000000
16.597254497000,1.038000000000
16.604941758000,0.870000000000
16.612629019000,0.108000000000
16.620316280000,-0.420000000000
16.628003541000,-0.322000000000
16.635690802000,-0.168000000000
16.643378063000,-0.214000000000
16.651065324000,-0.165000000000
16.658752585000,-0.079000000000
16.666439846000,-0.098000000000
16.674127107000,-0.105000000000
16.681814368000,-0.069000000000
16.689501629000,-0.062000000000
16.697188890000,-0.062000000000
16.704876151000,-0.045000000000
16.712563412000,-0.036000000000
16.720250673000,-0.031000000000
16.727937934000,-0.021000000000
16.735625195000,-0.014000000000
16.743312456000,-0.007000000000
16.750999717000,0.002000000000
16.758686978000,0.012000000000
16.766374239000,0.019000000000
16.774061500000,0.031000000000
16.781748761000,0.040000000000
16.789436022000,0.052000000000
16.797123283000,0.064000000000
16.804810544000,0.076000000000
16.812497805000,0.088000000000
16.820185066000,0.101000000000
16.827872341000,0.105000000000
16.835559880000,0.110000000000
16.843247419000,0.110000000000
16.850934958000,0.110000000000
16.858622497000,0.105000000000
16.866310036000,0.101000000000
16.873997575000,0.086000000000
16.881685114000,0.064000000000
16.889372653000,0.038000000000
16.897060192000,0.004000000000
16.904747731000,-0.036000000000
16.912435270000,-0.069000000000
16.920122809000,-0.096000000000
16.927810348000,-0.115000000000
16.935497887000,-0.122000000000
16.943185426000,-0.125000000000
16.950872965000,-0.125000000000
16.958560504000,-0.122000000000
16.966248043000,-0.117000000000
16.973935582000,-0.117000000000
16.981623121000,-0.113000000000
16.989310660000,-0.110000000000
16.996998199000,-0.110000000000
17.004685738000,-0.108000000000
17.012373277000,-0.108000000000
17.020060816000,-0.108000000000
17.027748355000,-0.108000000000
17.035435894000,-0.108000000000
17.043123433000,-0.108000000000
17.050810972000,-0.105000000000
17.058498511000,-0.108000000000
17.066186050000,-0.108000000000
17.073873589000,-0.108000000000
17.081561128000,-0.105000000000
17.089248667000,-0.105000000000
17.096936206000,-0.103000000000
17.104623745000,-0.101000000000
17.112311284000,-0.098000000000
17.119998823000,-0.096000000000
17.127686362000,-0.093000000000
17.135373901000,-0.091000000000
17.143061440000,-0.088000000000
17.150748979000,-0.086000000000
17.158436518000,-0.084000000000
17.166124057000,-0.081000000000
17.173811596000,-0.079000000000
17.181499135000,-0.076000000000
17.189186674000,-0.076000000000
17.196874213000,-0.074000000000
17.204561752000,-0.069000000000
17.212249291000,-0.069000000000
17.219936830000,-0.064000000000
17.227624369000,-0.064000000000
17.235311908000,-0.072000000000
17.242999447000,-0.079000000000
17.250686986000,-0.081000000000
17.258374525000,-0.081000000000
17.266062064000,-0.074000000000
17.273749603000,-0.060000000000
17.281437142000,-0.050000000000
17.289124681000,-0.038000000000
17.296812220000,-0.019000000000
17.304499759000,-0.016000000000
17.312187298000,-0.038000000000
17.319874837000,-0.050000000000
17.327562376000,-0.048000000000
17.335249915000,-0.050000000000
17.342937454000,-0.050000000000
17.350624993000,-0.045000000000
17.358312532000,-0.045000000000
17.366000071000,-0.055000000000
17.373687610000,-0.093000000000
17.381375149000,-0.103000000000
17.389062756000,0.153000000000
17.396750295000,0.728000000000
17.404437834000,1.062000000000
17.412125373000,0.656000000000
17.419812912000,-0.120000000000
17.427500451000,-0.435000000000
17.435187990000,-0.242000000000
17.442875529000,-0.165000000000
17.450563068000,-0.211000000000
17.458250607000,-0.125000000000
17.465938146000,-0.069000000000
17.473625685000,-0.101000000000
17.481313224000,-0.088000000000
17.489000763000,-0.055000000000
17.496688302000,-0.052000000000
17.504375841000,-0.048000000000
17.512063380000,-0.033000000000
17.519750919000,-0.026000000000
17.527438458000,-0.021000000000
17.535125997000,-0.009000000000
17.542813536000,-0.002000000000
17.550501075000,0.000000000000
17.558188614000,0.012000000000
17.565876153000,0.024000000000
17.573563692000,0.031000000000
17.581251231000,0.040000000000
17.588938770000,0.055000000000
17.596626309000,0.067000000000
17.604313848000,0.076000000000
17.612001387000,0.091000000000
17.619688926000,0.105000000000
17.627376465000,0.115000000000
17.635064004000,0.120000000000
17.642751543000,0.122000000000
17.650439082000,0.122000000000
17.658126621000,0.120000000000
17.665814160000,0.117000000000
17.673501699000,0.110000000000
17.681189238000,0.096000000000
17.688876777000,0.072000000000
17.696564316000,0.043000000000
17.704251855000,0.007000000000
17.711939394000,-0.036000000000
17.719626933000,-0.072000000000
17.727314472000,-0.096000000000
17.735002011000,-0.108000000000
17.742689550000,-0.117000000000
17.750377089000,-0.120000000000
17.758064628000,-0.117000000000
17.765752167000,-0.115000000000
17.773439706000,-0.115000000000
17.781127245000,-0.110000000000
17.788814784000,-0.108000000000
17.796502323000,-0.105000000000
17.804189862000,-0.103000000000
17.811877401000,-0.103000000000
17.819564940000,-0.103000000000
17.827252479000,-0.105000000000
17.834940018000,-0.105000000000
17.842627557000,-0.105000000000
17.850315096000,-0.105000000000
17.858002635000,-0.105000000000
17.865690174000,-0.105000000000
17.873377713000,-0.105000000000
17.881065252000,-0.105000000000
17.888752791000,-0.105000000000
17.896440330000,-0.103000000000
17.904127869000,-0.101000000000
17.911815408000,-0.101000000000
17.919502947000,-0.098000000000
17.927190486000,-0.098000000000
17.934878025000,-0.093000000000
17.942565564000,-0.091000000000
17.950253175000,-0.088000000000
17.957940436000,-0.086000000000
17.965627697000,-0.091000000000
17.973314958000,-0.096000000000
17.981002219000,-0.103000000000
17.988689480000,-0.101000000000
17.996376741000,-0.093000000000
18.004064002000,-0.079000000000
18.011751263000,-0.072000000000
18.019438524000,-0.062000000000
18.027125785000,-0.036000000000
18.034813046000,-0.028000000000
18.042500307000,-0.052000000000
18.050187568000,-0.067000000000
18.057874829000,-0.062000000000
18.065562090000,-0.062000000000
18.073249351000,-0.064000000000
18.080936612000,-0.060000000000
18.088623873000,-0.057000000000
18.096311134000,-0.062000000000
18.103998395000,-0.098000000000
18.111685656000,-0.122000000000
18.119372917000,0.081000000000
18.127060178000,0.644000000000
18.134747439000,1.074000000000
18.142434700000,0.755000000000
18.150121961000,-0.067000000000
18.157809222000,-0.500000000000
18.165496483000,-0.324000000000
18.173183744000,-0.187000000000
18.180871005000,-0.230000000000
18.188558266000,-0.146000000000
18.196245527000,-0.064000000000
18.203932788000,-0.091000000000
18.211620049000,-0.088000000000
18.219307310000,-0.052000000000
18.226994571000,-0.050000000000
18.234681832000,-0.045000000000
18.242369093000,-0.028000000000
18.250056354000,-0.021000000000
18.257743615000,-0.016000000000
18.265430876000,-0.007000000000
18.273118137000,0.002000000000
18.280805398000,0.009000000000
18.288492659000,0.019000000000
18.296179920000,0.028000000000
18.303867181000,0.038000000000
18.311554442000,0.050000000000
18.319241703000,0.064000000000
18.326928964000,0.079000000000
18.334616225000,0.093000000000
18.342303486000,0.105000000000
18.349990747000,0.120000000000
18.357678008000,0.134000000000
18.365365269000,0.141000000000
18.373052530000,0.141000000000
18.380739791000,0.141000000000
18.388427052000,0.139000000000
18.396114313000,0.134000000000
18.403801574000,0.122000000000
18.411488835000,0.101000000000
18.419176096000,0.072000000000
18.426863357000,0.033000000000
18.434550618000,-0.009000000000
18.442237879000,-0.055000000000
18.449925140000,-0.091000000000
18.457612401000,-0.110000000000
18.465299662000,-0.125000000000
18.472986923000,-0.132000000000
18.480674184000,-0.134000000000
18.488361445000,-0.132000000000
18.496048706000,-0.127000000000
18.503735967000,-0.122000000000
18.511423246000,-0.120000000000
18.519110855000,-0.117000000000
18.526798464000,-0.115000000000
18.534486073000,-0.115000000000
18.542173682000,-0.110000000000
18.549861291000,-0.110000000000
18.557548900000,-0.113000000000
18.565236509000,-0.115000000000
18.572924118000,-0.115000000000
18.580611727000,-0.115000000000
18.588299336000,-0.115000000000
18.595986945000,-0.117000000000
18.603674554000,-0.117000000000
18.611362163000,-0.115000000000
18.619049772000,-0.115000000000
18.626737381000,-0.113000000000
18.634424990000,-0.113000000000
18.642112599000,-0.110000000000
18.649800208000,-0.110000000000
18.657487817000,-0.110000000000
18.665175426000,-0.115000000000
18.672863035000,-0.120000000000
18.680550644000,-0.127000000000
18.688238253000,-0.127000000000
18.695925862000,-0.115000000000
18.703613471000,-0.105000000000
18.711301080000,-0.098000000000
18.718988689000,-0.086000000000
18.726676298000,-0.060000000000
18.734363907000,-0.060000000000
18.742051516000,-0.086000000000
18.749739125000,-0.101000000000
18.757426734000,-0.096000000000
18.765114343000,-0.101000000000
18.772801952000,-0.101000000000
18.780489561000,-0.096000000000
18.788177170000,-0.098000000000
18.795864779000,-0.105000000000
18.803552388000,-0.134000000000
18.811239997000,-0.146000000000
18.818927606000,0.086000000000
18.826615215000,0.675000000000
18.834302824000,1.060000000000
18.841990433000,0.639000000000
18.849678042000,-0.218000000000
18.857365651000,-0.598000000000
18.865053260000,-0.399000000000
18.872740869000,-0.274000000000
18.880428478000,-0.303000000000
18.888116087000,-0.206000000000
18.895803696000,-0.127000000000
18.903491305000,-0.151000000000
18.911178914000,-0.146000000000
18.918866523000,-0.115000000000
18.926554132000,-0.115000000000
18.934241741000,-0.117000000000
18.941929350000,-0.103000000000
18.949616959000,-0.091000000000
18.957304568000,-0.088000000000
18.964992177000,-0.081000000000
18.972679786000,-0.074000000000
18.980367395000,-0.072000000000
18.988055004000,-0.060000000000
18.995742613000,-0.048000000000
19.003430222000,-0.040000000000
19.011117831000,-0.031000000000
19.018805440000,-0.019000000000
19.026493049000,-0.004000000000
19.034180658000,0.012000000000
19.041868267000,0.028000000000
19.049555876000,0.040000000000
19.057243485000,0.050000000000
19.064931094000,0.057000000000
19.072618748000,0.062000000000
19.080306078000,0.060000000000
19.087993408000,0.055000000000
19.095680738000,0.052000000000
19.103368068000,0.040000000000
19.111055398000,0.009000000000
19.118742728000,-0.028000000000
19.126430058000,-0.076000000000
19.134117388000,-0.137000000000
19.141804718000,-0.189000000000
19.149492048000,-0.226000000000
19.157179378000,-0.250000000000
19.164866708000,-0.264000000000
19.172554038000,-0.269000000000
19.180241368000,-0.271000000000
19.187928698000,-0.269000000000
19.195616028000,-0.266000000000
19.203303358000,-0.264000000000
19.210990688000,-0.259000000000
19.218678018000,-0.254000000000
19.226365348000,-0.252000000000
19.234052678000,-0.254000000000
19.241740008000,-0.252000000000
19.249427338000,-0.250000000000
19.257114668000,-0.254000000000
19.264801998000,-0.257000000000
19.272489328000,-0.257000000000
19.280176658000,-0.257000000000
19.287863988000,-0.259000000000
19.295551318000,-0.259000000000
19.303238648000,-0.257000000000
19.310925978000,-0.259000000000
19.318613308000,-0.259000000000
19.326300638000,-0.259000000000
19.333987968000,-0.264000000000
19.341675298000,-0.264000000000
19.349362628000,-0.262000000000
19.357049958000,-0.254000000000
19.364737288000,-0.245000000000
19.372424618000,-0.238000000000
19.380111948000,-0.228000000000
19.387799278000,-0.199000000000
19.395486608000,-0.182000000000
19.403173938000,-0.204000000000
19.410861268000,-0.218000000000
19.418548598000,-0.214000000000
19.426235928000,-0.211000000000
19.433923258000,-0.214000000000
19.441610588000,-0.206000000000
19.449297918000,-0.199000000000
19.456985248000,-0.199000000000
19.464672578000,-0.216000000000
19.472359908000,-0.228000000000
19.480047238000,-0.043000000000
19.487734568000,0.524000000000
19.495421898000,1.024000000000
19.503109228000,0.711000000000
19.510796558000,-0.216000000000
19.518483888000,-0.743000000000
19.526171218000,-0.557000000000
19.533858548000,-0.365000000000
19.541545878000,-0.387000000000
19.549233208000,-0.293000000000
19.556920538000,-0.177000000000
19.564607868000,-0.187000000000
19.572295198000,-0.189000000000
19.579982528000,-0.151000000000
19.587669858000,-0.139000000000
19.595357188000,-0.137000000000
19.603044518000,-0.117000000000
19.610731848000,-0.103000000000
19.618419178000,-0.096000000000
19.626106508000,-0.084000000000
19.633793902000,-0.072000000000
19.641481372000,-0.062000000000
19.649168842000,-0.048000000000
19.656856312000,-0.033000000000
19.664543782000,-0.019000000000
19.672231252000,-0.004000000000
19.679918722000,0.009000000000
19.687606192000,0.028000000000
19.695293662000,0.050000000000
19.702981132000,0.072000000000
19.710668602000,0.088000000000
19.718356072000,0.105000000000
19.726043542000,0.117000000000
19.733731012000,0.125000000000
19.741418482000,0.127000000000
19.749105952000,0.127000000000
19.756793422000,0.122000000000
19.764480892000,0.103000000000
19.772168362000,0.074000000000
19.779855832000,0.031000000000
19.787543302000,-0.021000000000
19.795230772000,-0.084000000000
19.802918242000,-0.139000000000
19.810605712000,-0.177000000000
19.818293182000,-0.202000000000
19.825980652000,-0.214000000000
19.833668122000,-0.216000000000
19.841355592000,-0.214000000000
19.849043062000,-0.209000000000
19.856730532000,-0.199000000000
19.864418002000,-0.189000000000
19.872105472000,-0.182000000000
19.879792942000,-0.175000000000
19.887480412000,-0.170000000000
19.895167882000,-0.165000000000
19.902855352000,-0.163000000000
19.910542822000,-0.163000000000
19.918230292000,-0.163000000000
19.925917762000,-0.163000000000
19.933605232000,-0.163000000000
19.941292702000,-0.165000000000
19.948980172000,-0.165000000000
19.956667642000,-0.163000000000
19.964355112000,-0.163000000000
19.972042582000,-0.161000000000
19.979730052000,-0.158000000000
19.987417522000,-0.158000000000
19.995104992000,-0.163000000000
20.002792462000,-0.163000000000
20.010479932000,-0.163000000000
20.018167402000,-0.161000000000
20.025854872000,-0.151000000000
20.033542342000,-0.137000000000
20.041229812000,-0.129000000000
20.048917282000,-0.110000000000
20.056604752000,-0.084000000000
20.064292222000,-0.091000000000
20.071979692000,-0.115000000000
20.079667162000,-0.117000000000
20.087354632000,-0.113000000000
20.095042102000,-0.113000000000
20.102729572000,-0.108000000000
20.110417042000,-0.101000000000
20.118104512000,-0.101000000000
20.125791982000,-0.110000000000
20.133479452000,-0.151000000000
20.141166922000,-0.139000000000
20.148854392000,0.187000000000
20.156541862000,0.832000000000
20.164229332000,1.156000000000
20.171916802000,0.642000000000
20.179604272000,-0.238000000000
20.187291742000,-0.548000000000
20.194979234000,-0.307000000000
20.202666843000,-0.218000000000
20.210354452000,-0.259000000000
20.218042061000,-0.163000000000
20.225729670000,-0.105000000000
20.233417279000,-0.134000000000
20.241104888000,-0.117000000000
20.248792497000,-0.084000000000
20.256480106000,-0.081000000000
20.264167715000,-0.074000000000
20.271855324000,-0.057000000000
20.279542933000,-0.050000000000
20.287230542000,-0.043000000000
20.294918151000,-0.031000000000
20.302605760000,-0.021000000000
20.310293369000,-0.012000000000
20.317980978000,0.000000000000
20.325668587000,0.012000000000
20.333356196000,0.024000000000
20.341043805000,0.038000000000
20.348731414000,0.052000000000
20.356419023000,0.067000000000
20.364106632000,0.084000000000
20.371794241000,0.101000000000
20.379481850000,0.117000000000
20.387169459000,0.129000000000
20.394857068000,0.139000000000
20.402544677000,0.144000000000
20.410232286000,0.146000000000
20.417919895000,0.146000000000
20.425607504000,0.141000000000
20.433295113000,0.127000000000
20.440982722000,0.101000000000
20.448670331000,0.067000000000
20.456357940000,0.024000000000
20.464045549000,-0.021000000000
20.471733158000,-0.062000000000
20.479420767000,-0.088000000000
20.487108376000,-0.103000000000
20.494795985000,-0.113000000000
20.502483594000,-0.115000000000
20.510171203000,-0.113000000000
20.517858812000,-0.108000000000
20.525546421000,-0.103000000000
20.533234030000,-0.101000000000
20.540921639000,-0.096000000000
20.548609248000,-0.093000000000
20.556296857000,-0.088000000000
20.563984466000,-0.088000000000
20.571672075000,-0.088000000000
20.579359684000,-0.088000000000
20.587047293000,-0.088000000000
20.594734902000,-0.088000000000
20.602422511000,-0.086000000000
20.610110120000,-0.086000000000
20.617797729000,-0.086000000000
20.625485338000,-0.086000000000
20.633172947000,-0.084000000000
20.640860556000,-0.081000000000
20.648548165000,-0.079000000000
20.656235774000,-0.076000000000
20.663923383000,-0.074000000000
20.671610992000,-0.072000000000
20.679298601000,-0.069000000000
20.686986210000,-0.064000000000
20.694673819000,-0.062000000000
20.702361428000,-0.060000000000
20.710049037000,-0.057000000000
20.717736646000,-0.055000000000
20.725424255000,-0.055000000000
20.733111864000,-0.060000000000
20.740799473000,-0.067000000000
20.748487082000,-0.064000000000
20.756174736000,-0.057000000000
20.763861927000,-0.040000000000
20.771549118000,-0.031000000000
20.779236309000,-0.024000000000
20.786923500000,0.000000000000
20.794610691000,0.014000000000
20.802297882000,-0.004000000000
20.809985073000,-0.024000000000
20.817672264000,-0.024000000000
20.825359455000,-0.019000000000
20.833046646000,-0.024000000000
20.840733837000,-0.021000000000
20.848421028000,-0.014000000000
20.856108219000,-0.016000000000
20.863795410000,-0.040000000000
20.871482601000,-0.096000000000
20.879169792000,-0.062000000000
20.886856983000,0.327000000000
20.894544174000,0.957000000000
20.902231365000,1.163000000000
20.909918556000,0.569000000000
20.917605747000,-0.223000000000
20.925292938000,-0.391000000000
20.932980129000,-0.163000000000
20.940667320000,-0.141000000000
20.948354511000,-0.170000000000
20.956041702000,-0.072000000000
20.963728893000,-0.045000000000
20.971416084000,-0.076000000000
20.979103275000,-0.048000000000
20.986790466000,-0.021000000000
20.994477657000,-0.024000000000
21.002164848000,-0.016000000000
21.009852039000,0.000000000000
21.017539230000,0.004000000000
21.025226421000,0.009000000000
21.032913612000,0.021000000000
21.040600803000,0.028000000000
21.048287994000,0.033000000000
21.055975185000,0.043000000000
21.063662376000,0.052000000000
21.071349567000,0.062000000000
21.079036758000,0.072000000000
21.086723949000,0.086000000000
21.094411140000,0.098000000000
21.102098331000,0.110000000000
21.109785522000,0.125000000000
21.117472713000,0.134000000000
21.125159904000,0.144000000000
21.132847095000,0.149000000000
21.140534286000,0.151000000000
21.148221477000,0.151000000000
21.155908668000,0.149000000000
21.163595859000,0.144000000000
21.171283050000,0.132000000000
21.178970241000,0.113000000000
21.186657432000,0.084000000000
21.194344623000,0.052000000000
21.202031814000,0.016000000000
21.209719005000,-0.016000000000
21.217406196000,-0.045000000000
21.225093387000,-0.064000000000
21.232780578000,-0.076000000000
21.240467769000,-0.084000000000
21.248154960000,-0.084000000000
21.255842151000,-0.084000000000
21.263529342000,-0.081000000000
21.271216533000,-0.079000000000
21.278903724000,-0.079000000000
21.286590915000,-0.076000000000
21.294278106000,-0.076000000000
21.301965297000,-0.074000000000
21.309652488000,-0.074000000000
21.317339720000,-0.074000000000
21.325027190000,-0.074000000000
21.332714660000,-0.074000000000
21.340402130000,-0.076000000000
21.348089600000,-0.076000000000
21.355777070000,-0.079000000000
21.363464540000,-0.079000000000
21.371152010000,-0.076000000000
21.378839480000,-0.079000000000
21.386526950000,-0.076000000000
21.394214420000,-0.074000000000
21.401901890000,-0.074000000000
21.409589360000,-0.072000000000
21.417276830000,-0.069000000000
21.424964300000,-0.067000000000
21.432651770000,-0.064000000000
21.440339240000,-0.062000000000
21.448026710000,-0.060000000000
21.455714180000,-0.060000000000
21.463401650000,-0.057000000000
21.471089120000,-0.055000000000
21.478776590000,-0.052000000000
21.486464060000,-0.050000000000
21.494151530000,-0.048000000000
21.501839000000,-0.048000000000
21.509526470000,-0.045000000000
21.517213940000,-0.043000000000
21.524901410000,-0.043000000000
21.532588880000,-0.040000000000
21.540276350000,-0.038000000000
21.547963820000,-0.038000000000
21.555651290000,-0.040000000000
21.563338760000,-0.043000000000
21.571026230000,-0.048000000000
21.578713700000,-0.052000000000
21.586401170000,-0.055000000000
21.594088640000,-0.050000000000
21.601776110000,-0.038000000000
21.609463580000,-0.028000000000
21.617151050000,-0.019000000000
21.624838520000,0.000000000000
21.632525990000,0.012000000000
21.640213460000,-0.002000000000
21.647900930000,-0.024000000000
21.655588400000,-0.026000000000
21.663275870000,-0.026000000000
21.670963340000,-0.028000000000
21.678650810000,-0.026000000000
21.686338280000,-0.021000000000
21.694025750000,-0.024000000000
21.701713220000,-0.040000000000
21.709400690000,-0.088000000000
21.717088160000,-0.086000000000
21.724775630000,0.228000000000
21.732463100000,0.834000000000
21.740150570000,1.111000000000
21.747838040000,0.620000000000
21.755525510000,-0.165000000000
21.763212980000,-0.418000000000
21.770900450000,-0.202000000000
21.778587920000,-0.149000000000
21.786275390000,-0.192000000000
21.793962860000,-0.098000000000
21.801650330000,-0.060000000000
21.809337800000,-0.091000000000
21.817025270000,-0.069000000000
21.824712740000,-0.040000000000
21.832400210000,-0.043000000000
21.840087680000,-0.036000000000
21.847775150000,-0.019000000000
21.855462620000,-0.014000000000
21.863150090000,-0.009000000000
21.870837560000,0.000000000000
21.878525048000,0.007000000000
21.886212587000,0.012000000000
21.893900126000,0.019000000000
21.901587665000,0.031000000000
21.909275204000,0.038000000000
21.916962743000,0.045000000000
21.924650282000,0.057000000000
21.932337821000,0.067000000000
21.940025360000,0.079000000000
21.947712899000,0.091000000000
21.955400438000,0.101000000000
21.963087977000,0.108000000000
21.970775516000,0.113000000000
21.978463055000,0.115000000000
21.986150594000,0.115000000000
21.993838133000,0.115000000000
22.001525672000,0.115000000000
22.009213211000,0.110000000000
22.016900750000,0.101000000000
22.024588289000,0.081000000000
22.032275828000,0.055000000000
22.039963367000,0.024000000000
22.047650906000,-0.009000000000
22.055338445000,-0.043000000000
22.063025984000,-0.067000000000
22.070713523000,-0.084000000000
22.078401062000,-0.093000000000
22.086088601000,-0.098000000000
22.093776140000,-0.101000000000
22.101463679000,-0.101000000000
22.109151218000,-0.098000000000
22.116838757000,-0.096000000000
22.124526296000,-0.096000000000
22.132213835000,-0.093000000000
22.139901374000,-0.093000000000
22.147588913000,-0.093000000000
22.155276452000,-0.093000000000
22.162963991000,-0.093000000000
22.170651530000,-0.096000000000
22.178339069000,-0.096000000000
22.186026608000,-0.096000000000
22.193714147000,-0.098000000000
22.201401686000,-0.098000000000
22.209089225000,-0.098000000000
22.216776764000,-0.096000000000
22.224464303000,-0.096000000000
22.232151842000,-0.093000000000
22.239839381000,-0.091000000000
22.247526920000,-0.091000000000
22.255214459000,-0.091000000000
22.262901998000,-0.088000000000
22.270589537000,-0.084000000000
22.278277076000,-0.081000000000
22.285964615000,-0.081000000000
22.293652154000,-0.079000000000
22.301339693000,-0.076000000000
22.309027232000,-0.074000000000
22.316714771000,-0.074000000000
22.324402310000,-0.072000000000
22.332089849000,-0.069000000000
22.339777388000,-0.067000000000
22.347464927000,-0.067000000000
22.355152466000,-0.067000000000
22.362840005000,-0.064000000000
22.370527544000,-0.062000000000
22.378215083000,-0.060000000000
22.385902622000,-0.057000000000
22.393590161000,-0.057000000000
22.401277700000,-0.057000000000
22.408965239000,-0.055000000000
22.416652778000,-0.052000000000
22.424340317000,-0.052000000000
22.432027856000,-0.052000000000
22.439715463000,-0.050000000000
22.447402863000,-0.048000000000
22.455090263000,-0.048000000000
22.462777663000,-0.048000000000
22.470465063000,-0.045000000000
22.478152463000,-0.043000000000
22.485839863000,-0.045000000000
22.493527263000,-0.050000000000
22.501214663000,-0.057000000000
22.508902063000,-0.062000000000
22.516589463000,-0.062000000000
22.524276863000,-0.055000000000
22.531964263000,-0.040000000000
22.539651663000,-0.028000000000
22.547339063000,-0.019000000000
22.555026463000,-0.004000000000
22.562713863000,-0.002000000000
22.570401263000,-0.021000000000
22.578088663000,-0.040000000000
22.585776063000,-0.038000000000
22.593463463000,-0.036000000000
22.601150863000,-0.036000000000
22.608838263000,-0.033000000000
22.616525663000,-0.031000000000
22.624213063000,-0.040000000000
22.631900463000,-0.074000000000
22.639587863000,-0.115000000000
22.647275263000,0.036000000000
22.654962663000,0.560000000000
22.662650063000,1.058000000000
22.670337463000,0.892000000000
22.678024863000,0.125000000000
22.685712263000,-0.413000000000
22.693399663000,-0.317000000000
22.701087063000,-0.153000000000
22.708774463000,-0.204000000000
22.716461863000,-0.161000000000
22.724149263000,-0.074000000000
22.731836663000,-0.088000000000
22.739524063000,-0.096000000000
22.747211463000,-0.060000000000
22.754898863000,-0.052000000000
22.762586263000,-0.052000000000
22.770273663000,-0.038000000000
22.777961063000,-0.026000000000
22.785648463000,-0.021000000000
22.793335863000,-0.014000000000
22.801023263000,-0.007000000000
22.808710663000,0.000000000000
22.816398063000,0.004000000000
22.824085463000,0.014000000000
22.831772863000,0.024000000000
22.839460263000,0.033000000000
22.847147663000,0.043000000000
22.854835063000,0.052000000000
22.862522463000,0.064000000000
22.870209863000,0.076000000000
22.877897263000,0.088000000000
22.885584663000,0.098000000000
22.893272063000,0.103000000000
22.900959463000,0.105000000000
22.908646863000,0.108000000000
22.916334263000,0.108000000000
22.924021663000,0.108000000000
22.931709063000,0.105000000000
22.939396463000,0.101000000000
22.947083863000,0.086000000000
22.954771263000,0.064000000000
22.962458663000,0.040000000000
22.970146063000,0.009000000000
22.977833463000,-0.024000000000
22.985520863000,-0.055000000000
22.993208263000,-0.079000000000
23.000895708000,-0.096000000000
23.008582969000,-0.103000000000
23.016270230000,-0.108000000000
23.023957491000,-0.108000000000
23.031644752000,-0.108000000000
23.039332013000,-0.105000000000
23.047019274000,-0.103000000000
23.054706535000,-0.103000000000
23.062393796000,-0.101000000000
23.070081057000,-0.101000000000
23.077768318000,-0.101000000000
23.085455579000,-0.101000000000
23.093142840000,-0.103000000000
23.100830101000,-0.103000000000
23.108517362000,-0.103000000000
23.116204623000,-0.105000000000
23.123891884000,-0.105000000000
23.131579145000,-0.105000000000
23.139266406000,-0.105000000000
23.146953667000,-0.105000000000
23.154640928000,-0.103000000000
23.162328189000,-0.103000000000
23.170015450000,-0.101000000000
23.177702711000,-0.101000000000
23.185389972000,-0.096000000000
23.193077233000,-0.093000000000
23.200764494000,-0.093000000000
23.208451755000,-0.093000000000
23.216139016000,-0.088000000000
23.223826277000,-0.086000000000
23.231513538000,-0.086000000000
23.239200799000,-0.081000000000
23.246888060000,-0.081000000000
23.254575321000,-0.079000000000
23.262262582000,-0.076000000000
23.269949843000,-0.074000000000
23.277637104000,-0.072000000000
23.285324365000,-0.069000000000
23.293011626000,-0.067000000000
23.300698887000,-0.067000000000
23.308386148000,-0.064000000000
23.316073409000,-0.060000000000
23.323760670000,-0.060000000000
23.331447931000,-0.060000000000
23.339135192000,-0.060000000000
23.346822453000,-0.055000000000
23.354509714000,-0.057000000000
23.362196975000,-0.064000000000
23.369884236000,-0.069000000000
23.377571497000,-0.069000000000
23.385258758000,-0.067000000000
23.392946019000,-0.052000000000
23.400633280000,-0.040000000000
23.408320541000,-0.033000000000
23.416007802000,-0.021000000000
23.423695063000,-0.009000000000
23.431382324000,-0.024000000000
23.439069585000,-0.043000000000
23.446756846000,-0.045000000000
23.454444107000,-0.043000000000
23.462131368000,-0.048000000000
23.469818629000,-0.045000000000
23.477505890000,-0.040000000000
23.485193151000,-0.045000000000
23.492880412000,-0.067000000000
23.500567673000,-0.093000000000
23.508254934000,0.052000000000
23.515942195000,0.567000000000
23.523629456000,1.065000000000
23.531316717000,0.856000000000
23.539003978000,0.028000000000
23.546691239000,-0.526000000000
23.554378500000,-0.411000000000
23.562065775000,-0.216000000000
23.569753314000,-0.238000000000
23.577440853000,-0.173000000000
23.585128392000,-0.067000000000
23.592815931000,-0.076000000000
23.600503470000,-0.084000000000
23.608191009000,-0.048000000000
23.615878548000,-0.038000000000
23.623566087000,-0.038000000000
23.631253626000,-0.024000000000
23.638941165000,-0.014000000000
23.646628704000,-0.009000000000
23.654316243000,-0.002000000000
23.662003782000,0.007000000000
23.669691321000,0.014000000000
23.677378860000,0.024000000000
23.685066399000,0.033000000000
23.692753938000,0.043000000000
23.700441477000,0.052000000000
23.708129016000,0.064000000000
23.715816555000,0.076000000000
23.723504094000,0.093000000000
23.731191633000,0.108000000000
23.738879172000,0.125000000000
23.746566711000,0.139000000000
23.754254250000,0.149000000000
23.761941789000,0.153000000000
23.769629328000,0.153000000000
23.777316867000,0.156000000000
23.785004406000,0.153000000000
23.792691945000,0.144000000000
23.800379484000,0.129000000000
23.808067023000,0.108000000000
23.815754562000,0.074000000000
23.823442101000,0.033000000000
23.831129640000,-0.014000000000
23.838817179000,-0.062000000000
23.846504718000,-0.096000000000
23.854192257000,-0.120000000000
23.861879796000,-0.134000000000
23.869567335000,-0.139000000000
23.877254874000,-0.139000000000
23.884942413000,-0.137000000000
23.892629952000,-0.132000000000
23.900317491000,-0.122000000000
23.908005030000,-0.117000000000
23.915692569000,-0.113000000000
23.923380108000,-0.108000000000
23.931067647000,-0.105000000000
23.938755186000,-0.105000000000
23.946442725000,-0.108000000000
23.954130264000,-0.108000000000
23.961817803000,-0.108000000000
23.969505342000,-0.110000000000
23.977192881000,-0.113000000000
23.984880420000,-0.113000000000
23.992567959000,-0.115000000000
24.000255498000,-0.115000000000
24.007943037000,-0.113000000000
24.015630576000,-0.113000000000
24.023318115000,-0.113000000000
24.031005654000,-0.110000000000
24.038693193000,-0.108000000000
24.046380732000,-0.105000000000
24.054068271000,-0.105000000000
24.061755810000,-0.103000000000
24.069443349000,-0.101000000000
24.077130888000,-0.098000000000
24.084818427000,-0.096000000000
24.092505966000,-0.093000000000
24.100193505000,-0.091000000000
24.107881044000,-0.088000000000
24.115568583000,-0.088000000000
24.123256190000,-0.088000000000
24.130943729000,-0.096000000000
24.138631268000,-0.101000000000
24.146318807000,-0.103000000000
24.154006346000,-0.096000000000
24.161693885000,-0.079000000000
24.169381424000,-0.069000000000
24.177068963000,-0.062000000000
24.184756502000,-0.040000000000
24.192444041000,-0.031000000000
24.200131580000,-0.050000000000
24.207819119000,-0.067000000000
24.215506658000,-0.067000000000
24.223194197000,-0.064000000000
24.230881736000,-0.067000000000
24.238569275000,-0.062000000000
24.246256814000,-0.060000000000
24.253944353000,-0.067000000000
24.261631892000,-0.101000000000
24.269319431000,-0.139000000000
24.277006970000,0.033000000000
24.284694509000,0.584000000000
24.292382048000,1.091000000000
24.300069587000,0.901000000000
24.307757126000,0.088000000000
24.315444665000,-0.476000000000
24.323132204000,-0.360000000000
24.330819743000,-0.180000000000
24.338507282000,-0.221000000000
24.346194821000,-0.170000000000
24.353882360000,-0.084000000000
24.361569899000,-0.101000000000
24.369257438000,-0.108000000000
24.376944977000,-0.069000000000
24.384632516000,-0.060000000000
24.392320055000,-0.062000000000
24.400007594000,-0.045000000000
24.407695133000,-0.033000000000
24.415382672000,-0.031000000000
24.423070211000,-0.024000000000
24.430757750000,-0.009000000000
24.438445289000,-0.002000000000
24.446132828000,0.002000000000
24.453820367000,0.014000000000
24.461507906000,0.026000000000
24.469195445000,0.036000000000
24.476882984000,0.050000000000
24.484570523000,0.064000000000
24.492258062000,0.079000000000
24.499945601000,0.096000000000
24.507633140000,0.115000000000
24.515320679000,0.129000000000
24.523008218000,0.137000000000
24.530695757000,0.139000000000
24.538383296000,0.139000000000
24.546070835000,0.134000000000
24.553758374000,0.127000000000
24.561445913000,0.117000000000
24.569133452000,0.098000000000
24.576820991000,0.067000000000
24.584508530000,0.031000000000
24.592196069000,-0.007000000000
24.599883608000,-0.048000000000
24.607571147000,-0.091000000000
24.615258686000,-0.117000000000
24.622946225000,-0.132000000000
24.630633764000,-0.141000000000
24.638321303000,-0.146000000000
24.646008842000,-0.144000000000
24.653696381000,-0.141000000000
24.661383920000,-0.137000000000
24.669071459000,-0.134000000000
24.676758998000,-0.129000000000
24.684446609000,-0.125000000000
24.692134148000,-0.122000000000
24.699821687000,-0.120000000000
24.707509226000,-0.120000000000
24.715196765000,-0.117000000000
24.722884304000,-0.117000000000
24.730571843000,-0.117000000000
24.738259382000,-0.117000000000
24.745946921000,-0.117000000000
24.753634460000,-0.117000000000
24.761321999000,-0.115000000000
24.769009538000,-0.113000000000
24.776697077000,-0.113000000000
24.784384616000,-0.113000000000
24.792072155000,-0.110000000000
24.799759694000,-0.108000000000
24.807447233000,-0.105000000000
24.815134772000,-0.103000000000
24.822822311000,-0.098000000000
24.830509850000,-0.096000000000
24.838197389000,-0.093000000000
24.845884928000,-0.091000000000
24.853572467000,-0.091000000000
24.861260006000,-0.093000000000
24.868947545000,-0.101000000000
24.876635084000,-0.105000000000
24.884322623000,-0.103000000000
24.892010162000,-0.096000000000
24.899697701000,-0.081000000000
24.907385240000,-0.069000000000
24.915072779000,-0.060000000000
24.922760318000,-0.038000000000
24.930447857000,-0.028000000000
24.938135396000,-0.050000000000
24.945822935000,-0.067000000000
24.953510474000,-0.062000000000
24.961198013000,-0.064000000000
24.968885552000,-0.067000000000
24.976573091000,-0.062000000000
24.984260630000,-0.060000000000
24.991948169000,-0.067000000000
24.999635708000,-0.098000000000
25.007323247000,-0.139000000000
25.015010786000,0.026000000000
25.022698325000,0.569000000000
25.030385864000,1.082000000000
25.038073403000,0.899000000000
25.045760942000,0.084000000000
25.053448481000,-0.483000000000
25.061136020000,-0.363000000000
25.068823559000,-0.180000000000
25.076511098000,-0.226000000000
25.084198637000,-0.173000000000
25.091886176000,-0.081000000000
25.099573715000,-0.098000000000
25.107261254000,-0.105000000000
25.114948793000,-0.067000000000
25.122636332000,-0.057000000000
25.130323871000,-0.060000000000
25.138011410000,-0.043000000000
25.145698949000,-0.031000000000
25.153386488000,-0.028000000000
25.161074027000,-0.021000000000
25.168761566000,-0.009000000000
25.176449105000,-0.002000000000
25.184136644000,0.004000000000
25.191824183000,0.014000000000
25.199511722000,0.026000000000
25.207199261000,0.036000000000
25.214886800000,0.050000000000
25.222574339000,0.064000000000
25.230261878000,0.076000000000
25.237949417000,0.093000000000
25.245637024000,0.110000000000
25.253324354000,0.122000000000
25.261011684000,0.132000000000
25.268699014000,0.134000000000
25.276386344000,0.134000000000
25.284073674000,0.132000000000
25.291761004000,0.125000000000
25.299448334000,0.113000000000
25.307135664000,0.096000000000
25.314822994000,0.069000000000
25.322510324000,0.036000000000
25.330197654000,-0.007000000000
25.337884984000,-0.050000000000
25.345572314000,-0.086000000000
25.353259644000,-0.113000000000
25.360946974000,-0.129000000000
25.368634304000,-0.139000000000
25.376321634000,-0.141000000000
25.384008964000,-0.139000000000
25.391696294000,-0.137000000000
25.399383624000,-0.134000000000
25.407070954000,-0.129000000000
25.414758284000,-0.125000000000
25.422445614000,-0.122000000000
25.430132944000,-0.120000000000
25.437820274000,-0.117000000000
25.445507604000,-0.115000000000
25.453194934000,-0.115000000000
25.460882264000,-0.115000000000
25.468569594000,-0.115000000000
25.476256924000,-0.115000000000
25.483944254000,-0.117000000000
25.491631584000,-0.117000000000
25.499318914000,-0.115000000000
25.507006244000,-0.115000000000
25.514693574000,-0.113000000000
25.522380904000,-0.110000000000
25.530068234000,-0.108000000000
25.537755564000,-0.108000000000
25.545442894000,-0.105000000000
25.553130224000,-0.103000000000
25.560817554000,-0.101000000000
25.568504884000,-0.098000000000
25.576192214000,-0.096000000000
25.583879544000,-0.093000000000
25.591566874000,-0.093000000000
25.599254204000,-0.088000000000
25.606941534000,-0.091000000000
25.614628864000,-0.098000000000
25.622316194000,-0.105000000000
25.630003524000,-0.105000000000
25.637690854000,-0.098000000000
25.645378184000,-0.084000000000
25.653065514000,-0.072000000000
25.660752844000,-0.062000000000
25.668440174000,-0.043000000000
25.676127504000,-0.028000000000
25.683814834000,-0.045000000000
25.691502164000,-0.067000000000
25.699189494000,-0.067000000000
25.706876824000,-0.064000000000
25.714564154000,-0.064000000000
25.722251484000,-0.062000000000
25.729938814000,-0.060000000000
25.737626144000,-0.062000000000
25.745313474000,-0.086000000000
25.753000804000,-0.134000000000
25.760688134000,-0.043000000000
25.768375464000,0.423000000000
25.776062794000,0.988000000000
25.783750124000,0.966000000000
25.791437454000,0.226000000000
25.799124784000,-0.442000000000
25.806812182000,-0.423000000000
25.814499791000,-0.202000000000
25.822187400000,-0.216000000000
25.829875009000,-0.187000000000
25.837562618000,-0.084000000000
25.845250227000,-0.084000000000
25.852937836000,-0.103000000000
25.860625445000,-0.069000000000
25.868313054000,-0.052000000000
25.876000663000,-0.057000000000
25.883688272000,-0.043000000000
25.891375881000,-0.031000000000
25.899063490000,-0.028000000000
25.906751099000,-0.021000000000
25.914438708000,-0.012000000000
25.922126317000,-0.004000000000
25.929813926000,0.004000000000
25.937501535000,0.014000000000
25.945189144000,0.024000000000
25.952876753000,0.036000000000
25.960564362000,0.048000000000
25.968251971000,0.057000000000
25.975939580000,0.072000000000
25.983627189000,0.084000000000
25.991314798000,0.098000000000
25.999002407000,0.110000000000
26.006690016000,0.120000000000
26.014377625000,0.125000000000
26.022065234000,0.125000000000
26.029752843000,0.122000000000
26.037440452000,0.122000000000
26.045128061000,0.117000000000
26.052815670000,0.103000000000
26.060503279000,0.079000000000
26.068190888000,0.052000000000
26.075878497000,0.016000000000
26.083566106000,-0.026000000000
26.091253715000,-0.067000000000
26.098941324000,-0.096000000000
26.106628933000,-0.113000000000
26.114316542000,-0.122000000000
26.122004151000,-0.127000000000
26.129691760000,-0.125000000000
26.137379369000,-0.127000000000
26.145066978000,-0.125000000000
26.152754587000,-0.120000000000
26.160442196000,-0.115000000000
26.168129805000,-0.113000000000
26.175817414000,-0.113000000000
26.183505023000,-0.113000000000
26.191192632000,-0.110000000000
26.198880241000,-0.108000000000
26.206567850000,-0.108000000000
26.214255459000,-0.110000000000
26.221943068000,-0.113000000000
26.229630677000,-0.113000000000
26.237318286000,-0.115000000000
26.245005895000,-0.115000000000
26.252693504000,-0.110000000000
26.260381113000,-0.108000000000
26.268068722000,-0.110000000000
26.275756331000,-0.108000000000
26.283443940000,-0.105000000000
26.291131549000,-0.105000000000
26.298819158000,-0.103000000000
26.306506767000,-0.098000000000
26.314194376000,-0.096000000000
26.321881985000,-0.096000000000
26.329569594000,-0.093000000000
26.337257203000,-0.091000000000
26.344944812000,-0.086000000000
26.352632421000,-0.084000000000
26.360320030000,-0.081000000000
26.368007684000,-0.081000000000
26.375694945000,-0.086000000000
26.383382206000,-0.093000000000
26.391069467000,-0.096000000000
26.398756728000,-0.091000000000
26.406443989000,-0.079000000000
26.414131250000,-0.067000000000
26.421818511000,-0.062000000000
26.429505772000,-0.048000000000
26.437193033000,-0.026000000000
26.444880294000,-0.031000000000
26.452567555000,-0.055000000000
26.460254816000,-0.060000000000
26.467942077000,-0.057000000000
26.475629338000,-0.062000000000
26.483316599000,-0.060000000000
26.491003860000,-0.052000000000
26.498691121000,-0.052000000000
26.506378382000,-0.064000000000
26.514065643000,-0.098000000000
26.521752904000,-0.076000000000
26.529440165000,0.245000000000
26.537127426000,0.848000000000
26.544814687000,1.067000000000
26.552501948000,0.466000000000
26.560189209000,-0.351000000000
26.567876470000,-0.548000000000
26.575563731000,-0.298000000000
26.583250992000,-0.223000000000
26.590938253000,-0.233000000000
26.598625514000,-0.113000000000
26.606312775000,-0.062000000000
26.614000036000,-0.091000000000
26.621687297000,-0.072000000000
26.629374558000,-0.040000000000
26.637061819000,-0.045000000000
26.644749080000,-0.038000000000
26.652436341000,-0.024000000000
26.660123602000,-0.016000000000
26.667810863000,-0.012000000000
26.675498124000,-0.002000000000
26.683185385000,0.007000000000
26.690872646000,0.014000000000
26.698559907000,0.024000000000
26.706247168000,0.036000000000
26.713934429000,0.045000000000
26.721621690000,0.055000000000
26.729308951000,0.067000000000
26.736996212000,0.081000000000
26.744683473000,0.098000000000
26.752370734000,0.115000000000
26.760057995000,0.127000000000
26.767745256000,0.137000000000
26.775432517000,0.141000000000
26.783119778000,0.146000000000
26.790807039000,0.149000000000
26.798494300000,0.146000000000
26.806181561000,0.144000000000
26.813868822000,0.137000000000
26.821556083000,0.120000000000
26.829243344000,0.088000000000
26.836930605000,0.048000000000
26.844617866000,0.002000000000
26.852305127000,-0.045000000000
26.859992388000,-0.081000000000
26.867679649000,-0.110000000000
26.875366910000,-0.127000000000
26.883054171000,-0.137000000000
26.890741432000,-0.137000000000
26.898428693000,-0.134000000000
26.906115954000,-0.132000000000
26.913803215000,-0.127000000000
26.921490476000,-0.122000000000
26.929177751000,-0.120000000000
26.936865290000,-0.117000000000
26.944552829000,-0.115000000000
26.952240368000,-0.115000000000
26.959927907000,-0.115000000000
26.967615446000,-0.117000000000
26.975302985000,-0.120000000000
26.982990524000,-0.120000000000
26.990678063000,-0.120000000000
26.998365602000,-0.122000000000
27.006053141000,-0.122000000000
27.013740680000,-0.122000000000
27.021428219000,-0.122000000000
27.029115758000,-0.122000000000
27.036803297000,-0.120000000000
27.044490836000,-0.120000000000
27.052178375000,-0.117000000000
27.059865914000,-0.115000000000
27.067553453000,-0.113000000000
27.075240992000,-0.113000000000
27.082928531000,-0.110000000000
27.090616070000,-0.110000000000
27.098303609000,-0.105000000000
27.105991148000,-0.103000000000
27.113678687000,-0.098000000000
27.121366226000,-0.098000000000
27.129053765000,-0.096000000000
27.136741304000,-0.098000000000
27.144428843000,-0.105000000000
27.152116382000,-0.108000000000
27.159803921000,-0.108000000000
27.167491460000,-0.098000000000
27.175178999000,-0.086000000000
27.182866538000,-0.076000000000
27.190554077000,-0.067000000000
27.198241616000,-0.043000000000
27.205929155000,-0.036000000000
27.213616694000,-0.057000000000
27.221304233000,-0.072000000000
27.228991772000,-0.069000000000
27.236679311000,-0.072000000000
27.244366850000,-0.074000000000
27.252054389000,-0.069000000000
27.259741928000,-0.064000000000
27.267429467000,-0.069000000000
27.275117006000,-0.096000000000
27.282804545000,-0.129000000000
27.290492084000,0.026000000000
27.298179623000,0.555000000000
27.305867162000,1.048000000000
27.313554701000,0.824000000000
27.321242240000,-0.002000000000
27.328929779000,-0.533000000000
27.336617318000,-0.404000000000
27.344304857000,-0.218000000000
27.351992396000,-0.242000000000
27.359679935000,-0.175000000000
27.367367474000,-0.081000000000
27.375055013000,-0.096000000000
27.382742552000,-0.101000000000
27.390430091000,-0.064000000000
27.398117630000,-0.055000000000
27.405805169000,-0.057000000000
27.413492708000,-0.040000000000
27.421180247000,-0.028000000000
27.428867786000,-0.028000000000
27.436555325000,-0.021000000000
27.444242864000,-0.009000000000
27.451930403000,-0.004000000000
27.459617942000,0.004000000000
27.467305481000,0.014000000000
27.474993020000,0.024000000000
27.482680559000,0.033000000000
27.490368170000,0.045000000000
27.498055709000,0.055000000000
27.505743248000,0.067000000000
27.513430787000,0.081000000000
27.521118326000,0.096000000000
27.528805865000,0.105000000000
27.536493404000,0.110000000000
27.544180943000,0.115000000000
27.551868482000,0.117000000000
27.559556021000,0.115000000000
27.567243560000,0.113000000000
27.574931099000,0.108000000000
27.582618638000,0.098000000000
27.590306177000,0.076000000000
27.597993716000,0.045000000000
27.605681255000,0.007000000000
27.613368794000,-0.033000000000
27.621056333000,-0.072000000000
27.628743872000,-0.101000000000
27.636431411000,-0.117000000000
27.644118950000,-0.127000000000
27.651806489000,-0.132000000000
27.659494028000,-0.132000000000
27.667181567000,-0.129000000000
27.674869106000,-0.125000000000
27.682556645000,-0.122000000000
27.690244184000,-0.120000000000
27.697931723000,-0.117000000000
27.705619262000,-0.115000000000
27.713306801000,-0.113000000000
27.720994340000,-0.113000000000
27.728681879000,-0.113000000000
27.736369418000,-0.113000000000
27.744056957000,-0.113000000000
27.751744496000,-0.113000000000
27.759432035000,-0.115000000000
27.767119574000,-0.113000000000
27.774807113000,-0.113000000000
27.782494652000,-0.113000000000
27.790182191000,-0.115000000000
27.797869730000,-0.113000000000
27.805557269000,-0.110000000000
27.813244808000,-0.110000000000
27.820932347000,-0.108000000000
27.828619886000,-0.105000000000
27.836307425000,-0.105000000000
27.843994964000,-0.103000000000
27.851682503000,-0.098000000000
27.859370042000,-0.096000000000
27.867057581000,-0.093000000000
27.874745120000,-0.091000000000
27.882432659000,-0.088000000000
27.890120198000,-0.088000000000
27.897807737000,-0.086000000000
27.905495276000,-0.084000000000
27.913182815000,-0.081000000000
27.920870354000,-0.079000000000
27.928557893000,-0.076000000000
27.936245432000,-0.074000000000
27.943932971000,-0.072000000000
27.951620510000,-0.069000000000
27.959308049000,-0.069000000000
27.966995588000,-0.067000000000
27.974683127000,-0.067000000000
27.982370666000,-0.069000000000
27.990058205000,-0.079000000000
27.997745744000,-0.084000000000
28.005433283000,-0.084000000000
28.013120822000,-0.076000000000
28.020808361000,-0.062000000000
28.028495900000,-0.050000000000
28.036183439000,-0.043000000000
28.043870978000,-0.026000000000
28.051558585000,-0.014000000000
28.059245846000,-0.031000000000
28.066933107000,-0.050000000000
28.074620368000,-0.052000000000
28.082307629000,-0.052000000000
28.089994890000,-0.052000000000
28.097682151000,-0.050000000000
28.105369412000,-0.048000000000
28.113056673000,-0.052000000000
28.120743934000,-0.081000000000
28.128431195000,-0.127000000000
28.136118456000,-0.002000000000
28.143805717000,0.492000000000
28.151492978000,1.026000000000
28.159180239000,0.952000000000
28.166867500000,0.216000000000
28.174554761000,-0.384000000000
28.182242022000,-0.336000000000
28.189929283000,-0.158000000000
28.197616544000,-0.204000000000
28.205303805000,-0.177000000000
28.212991066000,-0.086000000000
28.220678327000,-0.098000000000
28.228365588000,-0.110000000000
28.236052849000,-0.074000000000
28.243740110000,-0.062000000000
28.251427371000,-0.064000000000
28.259114632000,-0.050000000000
28.266801893000,-0.038000000000
28.274489154000,-0.033000000000
28.282176415000,-0.028000000000
28.289863676000,-0.019000000000
28.297550937000,-0.014000000000
28.305238198000,-0.004000000000
28.312925459000,0.004000000000
28.320612720000,0.014000000000
28.328299981000,0.021000000000
28.335987242000,0.031000000000
28.343674503000,0.040000000000
28.351361764000,0.050000000000
28.359049025000,0.060000000000
28.366736286000,0.072000000000
28.374423547000,0.081000000000
28.382110808000,0.088000000000
28.389798069000,0.091000000000
28.397485330000,0.093000000000
28.405172591000,0.093000000000
28.412859852000,0.093000000000
28.420547113000,0.091000000000
28.428234374000,0.084000000000
28.435921635000,0.072000000000
28.443608896000,0.055000000000
28.451296157000,0.031000000000
28.458983418000,0.002000000000
28.466670679000,-0.028000000000
28.474357940000,-0.057000000000
28.482045201000,-0.081000000000
28.489732462000,-0.096000000000
28.497419723000,-0.103000000000
28.505106984000,-0.105000000000
28.512794245000,-0.108000000000
28.520481506000,-0.105000000000
28.528168767000,-0.103000000000
28.535856028000,-0.103000000000
28.543543289000,-0.101000000000
28.551230550000,-0.098000000000
28.558917811000,-0.098000000000
28.566605072000,-0.101000000000
28.574292333000,-0.098000000000
28.581979594000,-0.101000000000
28.589666855000,-0.103000000000
28.597354116000,-0.105000000000
28.605041377000,-0.108000000000
28.612728656000,-0.108000000000
28.620416056000,-0.108000000000
28.628103456000,-0.105000000000
28.635790856000,-0.103000000000
28.643478256000,-0.101000000000
28.651165656000,-0.103000000000
28.658853056000,-0.103000000000
28.666540456000,-0.098000000000
28.674227856000,-0.096000000000
28.681915256000,-0.096000000000
28.689602656000,-0.093000000000
28.697290056000,-0.091000000000
28.704977456000,-0.088000000000
28.712664856000,-0.086000000000
28.720352256000,-0.084000000000
28.728039656000,-0.081000000000
28.735727056000,-0.086000000000
28.743414456000,-0.093000000000
28.751101856000,-0.098000000000
28.758789256000,-0.098000000000
28.766476656000,-0.088000000000
28.774164056000,-0.074000000000
28.781851456000,-0.064000000000
28.789538856000,-0.055000000000
28.797226256000,-0.033000000000
28.804913656000,-0.026000000000
28.812601056000,-0.048000000000
28.820288456000,-0.064000000000
28.827975856000,-0.060000000000
28.835663256000,-0.060000000000
28.843350656000,-0.064000000000
28.851038056000,-0.057000000000
28.858725456000,-0.055000000000
28.866412856000,-0.062000000000
28.874100256000,-0.091000000000
28.881787656000,-0.125000000000
28.889475056000,0.024000000000
28.897162456000,0.543000000000
28.904849856000,1.043000000000
28.912537256000,0.858000000000
28.920224656000,0.057000000000
28.927912056000,-0.492000000000
28.935599456000,-0.375000000000
28.943286856000,-0.189000000000
28.950974256000,-0.223000000000
28.958661656000,-0.165000000000
28.966349056000,-0.074000000000
28.974036456000,-0.091000000000
28.981723856000,-0.096000000000
28.989411256000,-0.060000000000
28.997098656000,-0.052000000000
29.004786056000,-0.052000000000
29.012473456000,-0.036000000000
29.020160856000,-0.024000000000
29.027848256000,-0.019000000000
29.035535656000,-0.009000000000
29.043223056000,-0.002000000000
29.050910456000,0.004000000000
29.058597856000,0.014000000000
29.066285256000,0.024000000000
29.073972656000,0.031000000000
29.081660056000,0.043000000000
29.089347456000,0.055000000000
29.097034856000,0.064000000000
29.104722256000,0.076000000000
29.112409656000,0.091000000000
29.120097056000,0.103000000000
29.127784456000,0.113000000000
29.135471856000,0.120000000000
29.143159256000,0.120000000000
29.150846656000,0.117000000000
29.158534056000,0.115000000000
29.166221456000,0.110000000000
29.173908897000,0.103000000000
29.181596436000,0.086000000000
29.189283975000,0.062000000000
29.196971514000,0.033000000000
29.204659053000,-0.002000000000
29.212346592000,-0.043000000000
29.220034131000,-0.079000000000
29.227721670000,-0.105000000000
29.235409209000,-0.122000000000
29.243096748000,-0.129000000000
29.250784287000,-0.132000000000
29.258471826000,-0.132000000000
29.266159365000,-0.129000000000
29.273846904000,-0.125000000000
29.281534443000,-0.125000000000
29.289221982000,-0.120000000000
29.296909521000,-0.117000000000
29.304597060000,-0.115000000000
29.312284599000,-0.113000000000
29.319972138000,-0.113000000000
29.327659677000,-0.115000000000
29.335347216000,-0.115000000000
29.343034755000,-0.115000000000
29.350722294000,-0.117000000000
29.358409833000,-0.117000000000
