time,LSB
0.000000000000,-0.158000000000
0.007687191000,-0.199000000000
0.015374382000,-0.230000000000
0.023061573000,-0.250000000000
0.030748764000,-0.250000000000
0.038435955000,-0.242000000000
0.046123146000,-0.242000000000
0.053810337000,-0.242000000000
0.061497528000,-0.240000000000
0.069184719000,-0.233000000000
0.076871910000,-0.228000000000
0.084559101000,-0.226000000000
0.092246292000,-0.221000000000
0.099933483000,-0.226000000000
0.107620674000,-0.228000000000
0.115307865000,-0.226000000000
0.122995056000,-0.233000000000
0.130682247000,-0.240000000000
0.138369438000,-0.235000000000
0.146056629000,-0.233000000000
0.153743820000,-0.242000000000
0.161431011000,-0.247000000000
0.169118202000,-0.242000000000
0.176805393000,-0.230000000000
0.184492584000,-0.223000000000
0.192179775000,-0.223000000000
0.199866966000,-0.221000000000
0.207554157000,-0.216000000000
0.215241348000,-0.233000000000
0.222928539000,-0.250000000000
0.230615730000,-0.242000000000
0.238302921000,-0.233000000000
0.245990112000,-0.238000000000
0.253677303000,-0.235000000000
0.261364494000,-0.228000000000
0.269051685000,-0.204000000000
0.276738876000,-0.158000000000
0.284426067000,-0.158000000000
0.292113258000,-0.204000000000
0.299800449000,-0.199000000000
0.307487640000,-0.192000000000
0.315174831000,-0.216000000000
0.322862022000,-0.204000000000
0.330549213000,-0.173000000000
0.338236404000,-0.177000000000
0.345923595000,-0.187000000000
0.353610786000,-0.187000000000
0.361297977000,-0.226000000000
0.368985168000,-0.223000000000
0.376672359000,0.043000000000
0.384359550000,0.555000000000
0.392046741000,0.764000000000
0.399733932000,0.264000000000
0.407421123000,-0.452000000000
0.415108314000,-0.644000000000
0.422795505000,-0.416000000000
0.430482696000,-0.305000000000
0.438169887000,-0.293000000000
0.445857078000,-0.209000000000
0.453544269000,-0.153000000000
0.461231460000,-0.146000000000
0.468918651000,-0.139000000000
0.476605842000,-0.137000000000
0.484293033000,-0.125000000000
0.491980224000,-0.105000000000
0.499667415000,-0.105000000000
0.507354606000,-0.086000000000
0.515041797000,-0.050000000000
0.522728988000,-0.045000000000
0.530416224000,-0.048000000000
0.538103276000,-0.028000000000
0.545790328000,-0.019000000000
0.553477380000,0.014000000000
0.561164432000,0.072000000000
0.568851484000,0.067000000000
0.576538536000,0.050000000000
0.584225588000,0.074000000000
0.591912640000,0.072000000000
0.599599692000,0.040000000000
0.607286744000,0.026000000000
0.614973796000,0.021000000000
0.622660848000,0.009000000000
0.630347900000,0.004000000000
0.638034952000,-0.021000000000
0.645722004000,-0.096000000000
0.653409056000,-0.151000000000
0.661096108000,-0.151000000000
0.668783160000,-0.165000000000
0.676470212000,-0.202000000000
0.684157264000,-0.199000000000
0.691844316000,-0.175000000000
0.699531368000,-0.161000000000
0.707218420000,-0.151000000000
0.714905472000,-0.182000000000
0.722592524000,-0.214000000000
0.730279576000,-0.194000000000
0.737966628000,-0.197000000000
0.745653680000,-0.192000000000
0.753340732000,-0.144000000000
0.761027784000,-0.156000000000
0.768714836000,-0.185000000000
0.776401888000,-0.175000000000
0.784088940000,-0.206000000000
0.791775992000,-0.238000000000
0.799463044000,-0.226000000000
0.807150096000,-0.214000000000
0.814837148000,-0.189000000000
0.822524200000,-0.194000000000
0.830211252000,-0.223000000000
0.837898304000,-0.233000000000
0.845585356000,-0.240000000000
0.853272408000,-0.240000000000
0.860959460000,-0.242000000000
0.868646512000,-0.247000000000
0.876333564000,-0.226000000000
0.884020616000,-0.226000000000
0.891707668000,-0.262000000000
0.899394720000,-0.274000000000
0.907081772000,-0.264000000000
0.914768824000,-0.290000000000
0.922455876000,-0.307000000000
0.930142928000,-0.257000000000
0.937829980000,-0.228000000000
0.945517032000,-0.252000000000
0.953204084000,-0.250000000000
0.960891136000,-0.259000000000
0.968578188000,-0.298000000000
0.976265240000,-0.305000000000
0.983952292000,-0.295000000000
0.991639344000,-0.310000000000
0.999326396000,-0.331000000000
1.007013448000,-0.331000000000
1.014700500000,-0.339000000000
1.022387552000,-0.384000000000
1.030074604000,-0.377000000000
1.037761656000,-0.072000000000
1.045448708000,0.464000000000
1.053135760000,0.577000000000
1.060822812000,-0.057000000000
1.068509864000,-0.779000000000
1.076196916000,-0.870000000000
1.083883968000,-0.620000000000
1.091571034000,-0.562000000000
1.099258155000,-0.553000000000
1.106945276000,-0.444000000000
1.114632397000,-0.408000000000
1.122319518000,-0.430000000000
1.130006639000,-0.418000000000
1.137693760000,-0.404000000000
1.145380881000,-0.404000000000
1.153068002000,-0.399000000000
1.160755123000,-0.391000000000
1.168442244000,-0.384000000000
1.176129365000,-0.377000000000
1.183816486000,-0.372000000000
1.191503607000,-0.358000000000
1.199190728000,-0.334000000000
1.206877849000,-0.310000000000
1.214564970000,-0.288000000000
1.222252091000,-0.269000000000
1.229939212000,-0.262000000000
1.237626333000,-0.252000000000
1.245313454000,-0.242000000000
1.253000575000,-0.257000000000
1.260687696000,-0.276000000000
1.268374817000,-0.290000000000
1.276061938000,-0.310000000000
1.283749059000,-0.329000000000
1.291436180000,-0.351000000000
1.299123301000,-0.384000000000
1.306810422000,-0.428000000000
1.314497543000,-0.471000000000
1.322184664000,-0.505000000000
1.329871785000,-0.521000000000
1.337558906000,-0.536000000000
1.345246027000,-0.541000000000
1.352933148000,-0.533000000000
1.360620269000,-0.533000000000
1.368307390000,-0.536000000000
1.375994511000,-0.531000000000
1.383681632000,-0.521000000000
1.391368753000,-0.512000000000
1.399055874000,-0.502000000000
1.406742995000,-0.505000000000
1.414430116000,-0.514000000000
1.422117237000,-0.509000000000
1.429804358000,-0.509000000000
1.437491479000,-0.514000000000
1.445178600000,-0.505000000000
1.452865721000,-0.502000000000
1.460552842000,-0.512000000000
1.468239963000,-0.500000000000
1.475927084000,-0.485000000000
1.483614205000,-0.495000000000
1.491301326000,-0.502000000000
1.498988447000,-0.490000000000
1.506675568000,-0.485000000000
1.514362689000,-0.483000000000
1.522049810000,-0.478000000000
1.529736931000,-0.476000000000
1.537424052000,-0.476000000000
1.545111173000,-0.471000000000
1.552798294000,-0.456000000000
1.560485415000,-0.447000000000
1.568172536000,-0.444000000000
1.575859657000,-0.420000000000
1.583546778000,-0.394000000000
1.591233899000,-0.404000000000
1.598921020000,-0.423000000000
1.606608141000,-0.418000000000
1.614295262000,-0.411000000000
1.621982383000,-0.413000000000
1.629669504000,-0.411000000000
1.637356625000,-0.406000000000
1.645043746000,-0.408000000000
1.652730931000,-0.420000000000
1.660418052000,-0.423000000000
1.668105173000,-0.242000000000
1.675792294000,0.254000000000
1.683479415000,0.601000000000
1.691166536000,0.182000000000
1.698853657000,-0.632000000000
1.706540778000,-0.957000000000
1.714227899000,-0.738000000000
1.721915020000,-0.581000000000
1.729602141000,-0.560000000000
1.737289262000,-0.432000000000
1.744976383000,-0.336000000000
1.752663504000,-0.346000000000
1.760350625000,-0.336000000000
1.768037746000,-0.307000000000
1.775724867000,-0.295000000000
1.783411988000,-0.283000000000
1.791099109000,-0.271000000000
1.798786230000,-0.266000000000
1.806473351000,-0.254000000000
1.814160472000,-0.230000000000
1.821847593000,-0.211000000000
1.829534714000,-0.194000000000
1.837221835000,-0.170000000000
1.844908956000,-0.144000000000
1.852596077000,-0.120000000000
1.860283198000,-0.103000000000
1.867970319000,-0.088000000000
1.875657440000,-0.076000000000
1.883344561000,-0.081000000000
1.891031682000,-0.101000000000
1.898718803000,-0.108000000000
1.906405924000,-0.108000000000
1.914093045000,-0.132000000000
1.921780166000,-0.168000000000
1.929467287000,-0.199000000000
1.937154408000,-0.238000000000
1.944841529000,-0.286000000000
1.952528650000,-0.327000000000
1.960215771000,-0.355000000000
1.967902892000,-0.375000000000
1.975590013000,-0.377000000000
1.983277134000,-0.365000000000
1.990964255000,-0.360000000000
1.998651376000,-0.367000000000
2.006338497000,-0.358000000000
2.014025618000,-0.339000000000
2.021712739000,-0.334000000000
2.029399860000,-0.331000000000
2.037086981000,-0.324000000000
2.044774102000,-0.322000000000
2.052461223000,-0.327000000000
2.060148344000,-0.331000000000
2.067835465000,-0.329000000000
2.075522586000,-0.329000000000
2.083209707000,-0.334000000000
2.090896828000,-0.341000000000
2.098583949000,-0.343000000000
2.106271070000,-0.341000000000
2.113958191000,-0.339000000000
2.121645312000,-0.339000000000
2.129332433000,-0.336000000000
2.137019554000,-0.334000000000
2.144706675000,-0.329000000000
2.152393796000,-0.327000000000
2.160080917000,-0.327000000000
2.167768038000,-0.336000000000
2.175455159000,-0.341000000000
2.183142280000,-0.329000000000
2.190829401000,-0.312000000000
2.198516522000,-0.300000000000
2.206203643000,-0.286000000000
2.213890828000,-0.259000000000
2.221577949000,-0.247000000000
2.229265070000,-0.274000000000
2.236952191000,-0.290000000000
2.244639312000,-0.283000000000
2.252326433000,-0.278000000000
2.260013554000,-0.283000000000
2.267700675000,-0.283000000000
2.275387796000,-0.271000000000
2.283074917000,-0.271000000000
2.290762038000,-0.315000000000
2.298449159000,-0.293000000000
2.306136280000,0.031000000000
2.313823401000,0.567000000000
2.321510522000,0.697000000000
2.329197643000,0.101000000000
2.336884764000,-0.620000000000
2.344571885000,-0.740000000000
2.352259006000,-0.485000000000
2.359946127000,-0.401000000000
2.367633248000,-0.375000000000
2.375320369000,-0.269000000000
2.383007490000,-0.242000000000
2.390694611000,-0.264000000000
2.398381732000,-0.235000000000
2.406068853000,-0.209000000000
2.413755974000,-0.209000000000
2.421443095000,-0.199000000000
2.429130216000,-0.182000000000
2.436817337000,-0.177000000000
2.444504458000,-0.163000000000
2.452191579000,-0.137000000000
2.459878700000,-0.120000000000
2.467565821000,-0.105000000000
2.475252942000,-0.079000000000
2.482940063000,-0.055000000000
2.490627184000,-0.033000000000
2.498314305000,-0.009000000000
2.506001426000,0.007000000000
2.513688547000,0.004000000000
2.521375668000,-0.007000000000
2.529062789000,-0.012000000000
2.536749910000,-0.021000000000
2.544437031000,-0.045000000000
2.552124152000,-0.069000000000
2.559811273000,-0.093000000000
2.567498394000,-0.127000000000
2.575185515000,-0.165000000000
2.582872636000,-0.197000000000
2.590559757000,-0.230000000000
2.598246878000,-0.254000000000
2.605933999000,-0.259000000000
2.613621120000,-0.259000000000
2.621308241000,-0.259000000000
2.628995362000,-0.257000000000
2.636682483000,-0.252000000000
2.644369604000,-0.247000000000
2.652056725000,-0.242000000000
2.659743846000,-0.240000000000
2.667430967000,-0.228000000000
2.675118088000,-0.216000000000
2.682805209000,-0.223000000000
2.690492330000,-0.230000000000
2.698179451000,-0.221000000000
2.705866572000,-0.221000000000
2.713553693000,-0.228000000000
2.721240814000,-0.228000000000
2.728927935000,-0.223000000000
2.736615056000,-0.226000000000
2.744302177000,-0.226000000000
2.751989298000,-0.221000000000
2.759676419000,-0.218000000000
2.767363540000,-0.218000000000
2.775050725000,-0.216000000000
2.782737846000,-0.218000000000
2.790424967000,-0.218000000000
2.798112088000,-0.216000000000
2.805799209000,-0.214000000000
2.813486330000,-0.216000000000
2.821173451000,-0.214000000000
2.828860572000,-0.194000000000
2.836547693000,-0.182000000000
2.844234814000,-0.175000000000
2.851921935000,-0.156000000000
2.859609056000,-0.141000000000
2.867296177000,-0.158000000000
2.874983298000,-0.175000000000
2.882670419000,-0.173000000000
2.890357540000,-0.170000000000
2.898044661000,-0.170000000000
2.905731782000,-0.168000000000
2.913418903000,-0.161000000000
2.921106024000,-0.170000000000
2.928793145000,-0.211000000000
2.936480266000,-0.197000000000
2.944167387000,0.096000000000
2.951854508000,0.634000000000
2.959541629000,0.824000000000
2.967228750000,0.283000000000
2.974915871000,-0.454000000000
2.982602992000,-0.634000000000
2.990290113000,-0.394000000000
2.997977234000,-0.300000000000
3.005664355000,-0.283000000000
3.013351476000,-0.170000000000
3.021038597000,-0.137000000000
3.028725718000,-0.165000000000
3.036412839000,-0.141000000000
3.044099960000,-0.110000000000
3.051787081000,-0.115000000000
3.059474202000,-0.103000000000
3.067161323000,-0.086000000000
3.074848444000,-0.079000000000
3.082535565000,-0.064000000000
3.090222686000,-0.050000000000
3.097909807000,-0.036000000000
3.105596928000,-0.012000000000
3.113284049000,0.009000000000
3.120971170000,0.031000000000
3.128658291000,0.057000000000
3.136345412000,0.081000000000
3.144032533000,0.091000000000
3.151719654000,0.093000000000
3.159406775000,0.086000000000
3.167093896000,0.074000000000
3.174781017000,0.062000000000
3.182468138000,0.045000000000
3.190155259000,0.019000000000
3.197842380000,-0.009000000000
3.205529501000,-0.045000000000
3.213216622000,-0.079000000000
3.220903743000,-0.113000000000
3.228590864000,-0.144000000000
3.236277985000,-0.163000000000
3.243965106000,-0.177000000000
3.251652227000,-0.182000000000
3.259339348000,-0.177000000000
3.267026469000,-0.170000000000
3.274713590000,-0.168000000000
3.282400711000,-0.163000000000
3.290087832000,-0.158000000000
3.297774953000,-0.153000000000
3.305462074000,-0.151000000000
3.313149195000,-0.151000000000
3.320836316000,-0.146000000000
3.328523437000,-0.146000000000
3.336210622000,-0.146000000000
3.343897743000,-0.146000000000
3.351584864000,-0.149000000000
3.359271985000,-0.156000000000
3.366959106000,-0.156000000000
3.374646227000,-0.149000000000
3.382333348000,-0.151000000000
3.390020469000,-0.153000000000
3.397707590000,-0.149000000000
3.405394711000,-0.149000000000
3.413081832000,-0.153000000000
3.420768953000,-0.151000000000
3.428456074000,-0.144000000000
3.436143195000,-0.144000000000
3.443830316000,-0.149000000000
3.451517437000,-0.153000000000
3.459204558000,-0.153000000000
3.466891679000,-0.149000000000
3.474578800000,-0.134000000000
3.482265921000,-0.120000000000
3.489953042000,-0.115000000000
3.497640163000,-0.101000000000
3.505327284000,-0.084000000000
3.513014405000,-0.098000000000
3.520701526000,-0.125000000000
3.528388647000,-0.125000000000
3.536075768000,-0.120000000000
3.543762889000,-0.125000000000
3.551450010000,-0.122000000000
3.559137131000,-0.113000000000
3.566824252000,-0.120000000000
3.574511373000,-0.156000000000
3.582198494000,-0.175000000000
3.589885615000,0.031000000000
3.597572736000,0.550000000000
3.605259857000,0.887000000000
3.612946978000,0.495000000000
3.620634099000,-0.283000000000
3.628321220000,-0.618000000000
3.636008341000,-0.411000000000
3.643695462000,-0.264000000000
3.651382583000,-0.266000000000
3.659069704000,-0.175000000000
3.666756825000,-0.110000000000
3.674443946000,-0.127000000000
3.682131067000,-0.113000000000
3.689818188000,-0.084000000000
3.697505309000,-0.086000000000
3.705192430000,-0.081000000000
3.712879551000,-0.064000000000
3.720566672000,-0.057000000000
3.728253793000,-0.045000000000
3.735940914000,-0.026000000000
3.743628035000,-0.014000000000
3.751315156000,0.004000000000
3.759002277000,0.033000000000
3.766689398000,0.052000000000
3.774376519000,0.069000000000
3.782063640000,0.098000000000
3.789750761000,0.113000000000
3.797437882000,0.113000000000
3.805125003000,0.113000000000
3.812812124000,0.103000000000
3.820499245000,0.086000000000
3.828186366000,0.069000000000
3.835873487000,0.048000000000
3.843560608000,0.021000000000
3.851247729000,-0.014000000000
3.858934850000,-0.050000000000
3.866621971000,-0.084000000000
3.874309092000,-0.125000000000
3.881996213000,-0.156000000000
3.889683334000,-0.165000000000
3.897370523000,-0.170000000000
3.905057644000,-0.175000000000
3.912744765000,-0.170000000000
3.920431886000,-0.168000000000
3.928119007000,-0.163000000000
3.935806128000,-0.156000000000
3.943493249000,-0.153000000000
3.951180370000,-0.156000000000
3.958867491000,-0.156000000000
3.966554612000,-0.151000000000
3.974241733000,-0.151000000000
3.981928854000,-0.156000000000
3.989615975000,-0.156000000000
3.997303096000,-0.153000000000
4.004990217000,-0.156000000000
4.012677338000,-0.158000000000
4.020364459000,-0.156000000000
4.028051580000,-0.158000000000
4.035738701000,-0.165000000000
4.043425822000,-0.165000000000
4.051112943000,-0.163000000000
4.058800064000,-0.165000000000
4.066487185000,-0.158000000000
4.074174306000,-0.156000000000
4.081861427000,-0.165000000000
4.089548548000,-0.168000000000
4.097235669000,-0.168000000000
4.104922790000,-0.170000000000
4.112609911000,-0.156000000000
4.120297032000,-0.141000000000
4.127984153000,-0.139000000000
4.135671274000,-0.122000000000
4.143358395000,-0.105000000000
4.151045516000,-0.122000000000
4.158732637000,-0.144000000000
4.166419758000,-0.146000000000
4.174106879000,-0.144000000000
4.181794000000,-0.146000000000
4.189481121000,-0.141000000000
4.197168242000,-0.134000000000
4.204855363000,-0.137000000000
4.212542484000,-0.158000000000
4.220229605000,-0.122000000000
4.227916726000,0.187000000000
4.235603847000,0.714000000000
4.243290968000,0.803000000000
4.250978089000,0.110000000000
4.258665210000,-0.598000000000
4.266352331000,-0.627000000000
4.274039452000,-0.377000000000
4.281726573000,-0.324000000000
4.289413694000,-0.281000000000
4.297100815000,-0.139000000000
4.304787936000,-0.096000000000
4.312475057000,-0.120000000000
4.320162178000,-0.093000000000
4.327849299000,-0.067000000000
4.335536420000,-0.072000000000
4.343223541000,-0.060000000000
4.350910662000,-0.043000000000
4.358597783000,-0.033000000000
4.366284904000,-0.016000000000
4.373972025000,-0.002000000000
4.381659146000,0.012000000000
4.389346267000,0.033000000000
4.397033388000,0.060000000000
4.404720509000,0.086000000000
4.412407630000,0.110000000000
4.420094751000,0.127000000000
4.427781872000,0.137000000000
4.435468993000,0.144000000000
4.443156114000,0.137000000000
4.450843235000,0.122000000000
4.458530420000,0.108000000000
4.466217541000,0.091000000000
4.473904662000,0.072000000000
4.481591783000,0.038000000000
4.489278904000,-0.004000000000
4.496966025000,-0.055000000000
4.504653146000,-0.101000000000
4.512340267000,-0.144000000000
4.520027388000,-0.177000000000
4.527714509000,-0.192000000000
4.535401630000,-0.192000000000
4.543088751000,-0.189000000000
4.550775872000,-0.187000000000
4.558462993000,-0.177000000000
4.566150114000,-0.165000000000
4.573837235000,-0.156000000000
4.581524356000,-0.149000000000
4.589211477000,-0.141000000000
4.596898598000,-0.141000000000
4.604585719000,-0.141000000000
4.612272840000,-0.141000000000
4.619959961000,-0.149000000000
4.627647082000,-0.151000000000
4.635334203000,-0.153000000000
4.643021324000,-0.158000000000
4.650708445000,-0.165000000000
4.658395566000,-0.168000000000
4.666082687000,-0.168000000000
4.673769808000,-0.168000000000
4.681456929000,-0.173000000000
4.689144050000,-0.180000000000
4.696831171000,-0.177000000000
4.704518292000,-0.177000000000
4.712205413000,-0.180000000000
4.719892534000,-0.173000000000
4.727579655000,-0.161000000000
4.735266776000,-0.153000000000
4.742953897000,-0.137000000000
4.750641018000,-0.117000000000
4.758328139000,-0.122000000000
4.766015260000,-0.137000000000
4.773702381000,-0.141000000000
4.781389502000,-0.141000000000
4.789076623000,-0.146000000000
4.796763744000,-0.139000000000
4.804450865000,-0.134000000000
4.812137986000,-0.141000000000
4.819825107000,-0.163000000000
4.827512228000,-0.185000000000
4.835199349000,-0.028000000000
4.842886470000,0.466000000000
4.850573591000,0.887000000000
4.858260712000,0.581000000000
4.865947833000,-0.245000000000
4.873634954000,-0.682000000000
4.881322075000,-0.492000000000
4.889009196000,-0.307000000000
4.896696317000,-0.303000000000
4.904383438000,-0.206000000000
4.912070559000,-0.110000000000
4.919757680000,-0.127000000000
4.927444801000,-0.127000000000
4.935131922000,-0.088000000000
4.942819043000,-0.084000000000
4.950506164000,-0.084000000000
4.958193285000,-0.069000000000
4.965880406000,-0.060000000000
4.973567527000,-0.048000000000
4.981254648000,-0.028000000000
4.988941769000,-0.009000000000
4.996628890000,0.007000000000
5.004316011000,0.024000000000
5.012003132000,0.043000000000
5.019690317000,0.064000000000
5.027377438000,0.091000000000
5.035064559000,0.113000000000
5.042751680000,0.120000000000
5.050438801000,0.117000000000
5.058125922000,0.110000000000
5.065813043000,0.098000000000
5.073500164000,0.084000000000
5.081187285000,0.062000000000
5.088874406000,0.031000000000
5.096561527000,-0.012000000000
5.104248648000,-0.055000000000
5.111935769000,-0.091000000000
5.119622890000,-0.129000000000
5.127310011000,-0.163000000000
5.134997132000,-0.182000000000
5.142684253000,-0.187000000000
5.150371374000,-0.187000000000
5.158058495000,-0.182000000000
5.165745616000,-0.175000000000
5.173432737000,-0.168000000000
5.181119858000,-0.158000000000
5.188806979000,-0.153000000000
5.196494100000,-0.153000000000
5.204181221000,-0.151000000000
5.211868342000,-0.146000000000
5.219555463000,-0.149000000000
5.227242584000,-0.153000000000
5.234929705000,-0.153000000000
5.242616826000,-0.153000000000
5.250303947000,-0.158000000000
5.257991068000,-0.165000000000
5.265678189000,-0.165000000000
5.273365310000,-0.165000000000
5.281052431000,-0.165000000000
5.288739552000,-0.168000000000
5.296426673000,-0.168000000000
5.304113794000,-0.170000000000
5.311800915000,-0.175000000000
5.319488036000,-0.177000000000
5.327175157000,-0.180000000000
5.334862278000,-0.180000000000
5.342549399000,-0.170000000000
5.350236520000,-0.153000000000
5.357923641000,-0.144000000000
5.365610762000,-0.129000000000
5.373297883000,-0.110000000000
5.380985004000,-0.115000000000
5.388672125000,-0.141000000000
5.396359246000,-0.151000000000
5.404046367000,-0.149000000000
5.411733488000,-0.146000000000
5.419420609000,-0.144000000000
5.427107730000,-0.139000000000
5.434794851000,-0.139000000000
5.442481972000,-0.165000000000
5.450169093000,-0.206000000000
5.457856214000,-0.086000000000
5.465543335000,0.375000000000
5.473230456000,0.841000000000
5.480917577000,0.697000000000
5.488604698000,-0.038000000000
5.496291819000,-0.574000000000
5.503978940000,-0.480000000000
5.511666061000,-0.278000000000
5.519353182000,-0.274000000000
5.527040303000,-0.214000000000
5.534727424000,-0.129000000000
5.542414545000,-0.139000000000
5.550101666000,-0.144000000000
5.557788787000,-0.110000000000
5.565475908000,-0.103000000000
5.573163029000,-0.103000000000
5.580850214000,-0.088000000000
5.588537335000,-0.081000000000
5.596224456000,-0.069000000000
5.603911577000,-0.050000000000
5.611598698000,-0.036000000000
5.619285819000,-0.024000000000
5.626972940000,-0.004000000000
5.634660061000,0.019000000000
5.642347182000,0.043000000000
5.650034303000,0.067000000000
5.657721424000,0.088000000000
5.665408545000,0.098000000000
5.673095666000,0.096000000000
5.680782787000,0.086000000000
5.688469908000,0.074000000000
5.696157029000,0.060000000000
5.703844150000,0.036000000000
5.711531271000,-0.002000000000
5.719218392000,-0.038000000000
5.726905513000,-0.067000000000
5.734592634000,-0.110000000000
5.742279755000,-0.144000000000
5.749966876000,-0.163000000000
5.757653997000,-0.182000000000
5.765341118000,-0.194000000000
5.773028239000,-0.194000000000
5.780715360000,-0.189000000000
5.788402481000,-0.187000000000
5.796089602000,-0.185000000000
5.803776723000,-0.180000000000
5.811463844000,-0.177000000000
5.819150965000,-0.175000000000
5.826838086000,-0.170000000000
5.834525207000,-0.168000000000
5.842212328000,-0.163000000000
5.849899449000,-0.161000000000
5.857586570000,-0.165000000000
5.865273691000,-0.170000000000
5.872960812000,-0.173000000000
5.880647933000,-0.170000000000
5.888335054000,-0.173000000000
5.896022175000,-0.175000000000
5.903709296000,-0.175000000000
5.911396417000,-0.175000000000
5.919083538000,-0.175000000000
5.926770659000,-0.175000000000
5.934457780000,-0.173000000000
5.942144901000,-0.170000000000
5.949832022000,-0.170000000000
5.957519143000,-0.173000000000
5.965206264000,-0.177000000000
5.972893385000,-0.185000000000
5.980580506000,-0.177000000000
5.988267627000,-0.163000000000
5.995954748000,-0.151000000000
6.003641869000,-0.144000000000
6.011328990000,-0.129000000000
6.019016111000,-0.113000000000
6.026703232000,-0.115000000000
6.034390353000,-0.137000000000
6.042077474000,-0.146000000000
6.049764595000,-0.141000000000
6.057451716000,-0.144000000000
6.065138837000,-0.144000000000
6.072825958000,-0.137000000000
6.080513079000,-0.137000000000
6.088200200000,-0.163000000000
6.095887321000,-0.206000000000
6.103574442000,-0.127000000000
6.111261563000,0.281000000000
6.118948684000,0.786000000000
6.126635805000,0.752000000000
6.134322926000,0.060000000000
6.142010111000,-0.553000000000
6.149697232000,-0.536000000000
6.157384353000,-0.310000000000
6.165071474000,-0.286000000000
6.172758595000,-0.245000000000
6.180445716000,-0.149000000000
6.188132837000,-0.141000000000
6.195819958000,-0.153000000000
6.203507079000,-0.122000000000
6.211194200000,-0.108000000000
6.218881321000,-0.110000000000
6.226568442000,-0.098000000000
6.234255563000,-0.084000000000
6.241942684000,-0.076000000000
6.249629805000,-0.062000000000
6.257316926000,-0.048000000000
6.265004047000,-0.028000000000
6.272691168000,-0.009000000000
6.280378289000,0.012000000000
6.288065410000,0.036000000000
6.295752531000,0.060000000000
6.303439652000,0.076000000000
6.311126773000,0.088000000000
6.318813894000,0.093000000000
6.326501015000,0.086000000000
6.334188136000,0.074000000000
6.341875257000,0.057000000000
6.349562378000,0.036000000000
6.357249499000,0.007000000000
6.364936620000,-0.024000000000
6.372623741000,-0.062000000000
6.380310862000,-0.098000000000
6.387997983000,-0.132000000000
6.395685104000,-0.165000000000
6.403372225000,-0.189000000000
6.411059346000,-0.199000000000
6.418746467000,-0.199000000000
6.426433588000,-0.197000000000
6.434120709000,-0.192000000000
6.441807830000,-0.187000000000
6.449494951000,-0.185000000000
6.457182072000,-0.185000000000
6.464869193000,-0.177000000000
6.472556314000,-0.168000000000
6.480243435000,-0.173000000000
6.487930556000,-0.175000000000
6.495617677000,-0.170000000000
6.503304798000,-0.168000000000
6.510991919000,-0.170000000000
6.518679040000,-0.175000000000
6.526366161000,-0.180000000000
6.534053282000,-0.177000000000
6.541740403000,-0.175000000000
6.549427524000,-0.180000000000
6.557114645000,-0.182000000000
6.564801766000,-0.185000000000
6.572488887000,-0.185000000000
6.580176008000,-0.180000000000
6.587863129000,-0.180000000000
6.595550250000,-0.185000000000
6.603237371000,-0.185000000000
6.610924492000,-0.182000000000
6.618611613000,-0.180000000000
6.626298734000,-0.177000000000
6.633985855000,-0.180000000000
6.641672976000,-0.187000000000
6.649360097000,-0.189000000000
6.657047218000,-0.187000000000
6.664734339000,-0.187000000000
6.672421460000,-0.177000000000
6.680108581000,-0.165000000000
6.687795702000,-0.158000000000
6.695482823000,-0.144000000000
6.703170008000,-0.129000000000
6.710857129000,-0.144000000000
6.718544250000,-0.168000000000
6.726231371000,-0.173000000000
6.733918492000,-0.168000000000
6.741605613000,-0.168000000000
6.749292734000,-0.165000000000
6.756979855000,-0.168000000000
6.764666976000,-0.175000000000
6.772354097000,-0.199000000000
6.780041218000,-0.221000000000
6.787728339000,-0.050000000000
6.795415460000,0.449000000000
6.803102581000,0.815000000000
6.810789702000,0.456000000000
6.818476823000,-0.322000000000
6.826163944000,-0.678000000000
6.833851065000,-0.483000000000
6.841538186000,-0.329000000000
6.849225307000,-0.331000000000
6.856912428000,-0.242000000000
6.864599549000,-0.158000000000
6.872286670000,-0.168000000000
6.879973791000,-0.165000000000
6.887660912000,-0.141000000000
6.895348033000,-0.137000000000
6.903035154000,-0.132000000000
6.910722275000,-0.117000000000
6.918409396000,-0.105000000000
6.926096517000,-0.091000000000
6.933783638000,-0.074000000000
6.941470759000,-0.062000000000
6.949157880000,-0.043000000000
6.956845001000,-0.019000000000
6.964532122000,0.000000000000
6.972219243000,0.026000000000
6.979906364000,0.050000000000
6.987593485000,0.067000000000
6.995280606000,0.072000000000
7.002967727000,0.074000000000
7.010654848000,0.069000000000
7.018341969000,0.057000000000
7.026029090000,0.040000000000
7.033716211000,0.019000000000
7.041403332000,-0.004000000000
7.049090453000,-0.038000000000
7.056777574000,-0.079000000000
7.064464695000,-0.117000000000
7.072151816000,-0.158000000000
7.079838937000,-0.197000000000
7.087526058000,-0.216000000000
7.095213179000,-0.223000000000
7.102900300000,-0.233000000000
7.110587421000,-0.235000000000
7.118274542000,-0.226000000000
7.125961663000,-0.221000000000
7.133648784000,-0.216000000000
7.141335905000,-0.209000000000
7.149023026000,-0.199000000000
7.156710147000,-0.202000000000
7.164397268000,-0.206000000000
7.172084389000,-0.202000000000
7.179771510000,-0.197000000000
7.187458631000,-0.197000000000
7.195145752000,-0.199000000000
7.202832873000,-0.204000000000
7.210519994000,-0.214000000000
7.218207115000,-0.216000000000
7.225894236000,-0.216000000000
7.233581357000,-0.218000000000
7.241268478000,-0.223000000000
7.248955599000,-0.221000000000
7.256642720000,-0.216000000000
7.264329909000,-0.214000000000
7.272016752000,-0.211000000000
7.279703595000,-0.206000000000
7.287390438000,-0.209000000000
7.295077281000,-0.216000000000
7.302764124000,-0.216000000000
7.310450967000,-0.211000000000
7.318137810000,-0.216000000000
7.325824653000,-0.221000000000
7.333511496000,-0.209000000000
7.341198339000,-0.189000000000
7.348885182000,-0.182000000000
7.356572025000,-0.163000000000
7.364258868000,-0.151000000000
7.371945711000,-0.168000000000
7.379632554000,-0.185000000000
7.387319397000,-0.182000000000
7.395006240000,-0.182000000000
7.402693083000,-0.182000000000
7.410379926000,-0.177000000000
7.418066769000,-0.173000000000
7.425753612000,-0.182000000000
7.433440455000,-0.214000000000
7.441127298000,-0.168000000000
7.448814141000,0.165000000000
7.456500984000,0.682000000000
7.464187827000,0.731000000000
7.471874670000,0.012000000000
7.479561513000,-0.680000000000
7.487248356000,-0.668000000000
7.494935199000,-0.408000000000
7.502622042000,-0.372000000000
7.510308885000,-0.329000000000
7.517995728000,-0.187000000000
7.525682571000,-0.144000000000
7.533369414000,-0.161000000000
7.541056257000,-0.137000000000
7.548743100000,-0.117000000000
7.556429943000,-0.117000000000
7.564116786000,-0.110000000000
7.571803629000,-0.101000000000
7.579490472000,-0.091000000000
7.587177315000,-0.076000000000
7.594864158000,-0.062000000000
7.602551001000,-0.043000000000
7.610237844000,-0.021000000000
7.617924687000,0.000000000000
7.625611530000,0.026000000000
7.633298373000,0.055000000000
7.640985216000,0.074000000000
7.648672059000,0.086000000000
7.656358902000,0.096000000000
7.664045745000,0.093000000000
7.671732588000,0.084000000000
7.679419431000,0.067000000000
7.687106274000,0.040000000000
7.694793117000,0.009000000000
7.702479960000,-0.021000000000
7.710166803000,-0.057000000000
7.717853646000,-0.103000000000
7.725540489000,-0.146000000000
7.733227332000,-0.189000000000
7.740914175000,-0.226000000000
7.748601018000,-0.245000000000
7.756287861000,-0.242000000000
7.763974704000,-0.238000000000
7.771661547000,-0.242000000000
7.779348390000,-0.238000000000
7.787035233000,-0.223000000000
7.794722076000,-0.209000000000
7.802408919000,-0.202000000000
7.810095762000,-0.194000000000
7.817782605000,-0.187000000000
7.825469462000,-0.189000000000
7.833156444000,-0.194000000000
7.840843426000,-0.192000000000
7.848530408000,-0.192000000000
7.856217390000,-0.199000000000
7.863904372000,-0.202000000000
7.871591354000,-0.197000000000
7.879278336000,-0.204000000000
7.886965318000,-0.209000000000
7.894652300000,-0.204000000000
7.902339282000,-0.209000000000
7.910026264000,-0.214000000000
7.917713246000,-0.206000000000
7.925400228000,-0.209000000000
7.933087210000,-0.218000000000
7.940774192000,-0.221000000000
7.948461174000,-0.221000000000
7.956148156000,-0.226000000000
7.963835138000,-0.214000000000
7.971522120000,-0.192000000000
7.979209102000,-0.187000000000
7.986896084000,-0.180000000000
7.994583066000,-0.156000000000
8.002270048000,-0.149000000000
8.009957030000,-0.170000000000
8.017644012000,-0.187000000000
8.025330994000,-0.182000000000
8.033017976000,-0.175000000000
8.040704958000,-0.177000000000
8.048391940000,-0.177000000000
8.056078922000,-0.170000000000
8.063765904000,-0.185000000000
8.071452886000,-0.230000000000
8.079139868000,-0.158000000000
8.086826850000,0.247000000000
8.094513832000,0.769000000000
8.102200814000,0.733000000000
8.109887796000,-0.002000000000
8.117574778000,-0.644000000000
8.125261760000,-0.601000000000
8.132948742000,-0.353000000000
8.140635724000,-0.331000000000
8.148322706000,-0.281000000000
8.156009688000,-0.168000000000
8.163696670000,-0.163000000000
8.171383652000,-0.180000000000
8.179070634000,-0.144000000000
8.186757616000,-0.129000000000
8.194444598000,-0.137000000000
8.202131580000,-0.122000000000
8.209818562000,-0.110000000000
8.217505544000,-0.105000000000
8.225192526000,-0.096000000000
8.232879508000,-0.076000000000
8.240566490000,-0.057000000000
8.248253472000,-0.040000000000
8.255940454000,-0.024000000000
8.263627436000,0.000000000000
8.271314418000,0.031000000000
8.279001400000,0.055000000000
8.286688382000,0.067000000000
8.294375364000,0.074000000000
8.302062346000,0.069000000000
8.309749328000,0.062000000000
8.317436310000,0.050000000000
8.325123292000,0.024000000000
8.332810274000,-0.012000000000
8.340497256000,-0.050000000000
8.348184238000,-0.088000000000
8.355871220000,-0.129000000000
8.363558202000,-0.168000000000
8.371245184000,-0.202000000000
8.378932166000,-0.223000000000
8.386619185000,-0.238000000000
8.394306306000,-0.247000000000
8.401993427000,-0.242000000000
8.409680548000,-0.230000000000
8.417367669000,-0.228000000000
8.425054790000,-0.226000000000
8.432741911000,-0.216000000000
8.440429032000,-0.209000000000
8.448116153000,-0.211000000000
8.455803274000,-0.211000000000
8.463490395000,-0.202000000000
8.471177516000,-0.202000000000
8.478864637000,-0.206000000000
8.486551758000,-0.209000000000
8.494238879000,-0.209000000000
8.501926000000,-0.209000000000
8.509613121000,-0.211000000000
8.517300242000,-0.214000000000
8.524987363000,-0.216000000000
8.532674484000,-0.214000000000
8.540361605000,-0.214000000000
8.548048726000,-0.214000000000
8.555735847000,-0.214000000000
8.563422968000,-0.214000000000
8.571110089000,-0.216000000000
8.578797210000,-0.218000000000
8.586484331000,-0.223000000000
8.594171452000,-0.230000000000
8.601858573000,-0.226000000000
8.609545694000,-0.206000000000
8.617232815000,-0.194000000000
8.624919936000,-0.189000000000
8.632607057000,-0.168000000000
8.640294178000,-0.151000000000
8.647981299000,-0.173000000000
8.655668420000,-0.199000000000
8.663355541000,-0.194000000000
8.671042662000,-0.185000000000
8.678729783000,-0.192000000000
8.686416904000,-0.194000000000
8.694104025000,-0.185000000000
8.701791146000,-0.192000000000
8.709478267000,-0.233000000000
8.717165388000,-0.250000000000
8.724852509000,-0.033000000000
8.732539630000,0.492000000000
8.740226751000,0.824000000000
8.747913872000,0.444000000000
8.755600993000,-0.324000000000
8.763288114000,-0.646000000000
8.770975235000,-0.440000000000
8.778662356000,-0.312000000000
8.786349477000,-0.315000000000
8.794036598000,-0.226000000000
8.801723719000,-0.175000000000
8.809410840000,-0.199000000000
8.817097961000,-0.182000000000
8.824785082000,-0.151000000000
8.832472203000,-0.149000000000
8.840159324000,-0.144000000000
8.847846445000,-0.127000000000
8.855533566000,-0.117000000000
8.863220687000,-0.110000000000
8.870907808000,-0.096000000000
8.878594929000,-0.079000000000
8.886282050000,-0.064000000000
8.893969171000,-0.043000000000
8.901656292000,-0.019000000000
8.909343413000,0.007000000000
8.917030534000,0.031000000000
8.924717655000,0.050000000000
8.932404776000,0.060000000000
8.940091897000,0.057000000000
8.947779082000,0.050000000000
8.955466203000,0.038000000000
8.963153324000,0.019000000000
8.970840445000,-0.004000000000
8.978527566000,-0.040000000000
8.986214687000,-0.079000000000
8.993901808000,-0.115000000000
9.001588929000,-0.156000000000
9.009276050000,-0.192000000000
9.016963171000,-0.216000000000
9.024650292000,-0.233000000000
9.032337413000,-0.245000000000
9.040024534000,-0.247000000000
9.047711655000,-0.242000000000
9.055398776000,-0.230000000000
9.063085897000,-0.226000000000
9.070773018000,-0.226000000000
9.078460139000,-0.221000000000
9.086147260000,-0.211000000000
9.093834381000,-0.209000000000
9.101521502000,-0.214000000000
9.109208623000,-0.211000000000
9.116895744000,-0.209000000000
9.124582865000,-0.211000000000
9.132269986000,-0.218000000000
9.139957107000,-0.216000000000
9.147644228000,-0.216000000000
9.155331349000,-0.218000000000
9.163018470000,-0.221000000000
9.170705591000,-0.221000000000
9.178392712000,-0.214000000000
9.186079833000,-0.214000000000
9.193766954000,-0.218000000000
9.201454075000,-0.218000000000
9.209141196000,-0.214000000000
9.216828317000,-0.216000000000
9.224515438000,-0.221000000000
9.232202559000,-0.221000000000
9.239889680000,-0.223000000000
9.247576801000,-0.228000000000
9.255263922000,-0.228000000000
9.262951043000,-0.214000000000
9.270638164000,-0.197000000000
9.278325285000,-0.194000000000
9.286012406000,-0.182000000000
9.293699527000,-0.161000000000
9.301386648000,-0.170000000000
9.309073769000,-0.194000000000
9.316760890000,-0.199000000000
9.324448011000,-0.197000000000
9.332135132000,-0.199000000000
9.339822253000,-0.194000000000
9.347509374000,-0.192000000000
9.355196495000,-0.199000000000
9.362883616000,-0.221000000000
9.370570737000,-0.235000000000
9.378257858000,-0.088000000000
9.385944979000,0.387000000000
9.393632100000,0.798000000000
9.401319221000,0.519000000000
9.409006342000,-0.254000000000
9.416693463000,-0.670000000000
9.424380584000,-0.509000000000
9.432067705000,-0.346000000000
9.439754826000,-0.351000000000
9.447441947000,-0.264000000000
9.455129068000,-0.177000000000
9.462816189000,-0.194000000000
9.470503310000,-0.192000000000
9.478190431000,-0.156000000000
9.485877552000,-0.158000000000
9.493564673000,-0.161000000000
9.501251794000,-0.134000000000
9.508938979000,-0.120000000000
9.516626100000,-0.113000000000
9.524313221000,-0.096000000000
9.532000342000,-0.079000000000
9.539687463000,-0.064000000000
9.547374584000,-0.043000000000
9.555061705000,-0.019000000000
9.562748826000,0.000000000000
9.570435947000,0.026000000000
9.578123068000,0.055000000000
9.585810189000,0.069000000000
9.593497310000,0.067000000000
9.601184431000,0.057000000000
9.608871552000,0.055000000000
9.616558673000,0.045000000000
9.624245794000,0.019000000000
9.631932915000,-0.012000000000
9.639620036000,-0.050000000000
9.647307157000,-0.096000000000
9.654994278000,-0.134000000000
9.662681399000,-0.170000000000
9.670368520000,-0.211000000000
9.678055641000,-0.240000000000
9.685742762000,-0.252000000000
9.693429883000,-0.250000000000
9.701117004000,-0.247000000000
9.708804125000,-0.250000000000
9.716491246000,-0.250000000000
9.724178367000,-0.240000000000
9.731865488000,-0.235000000000
9.739552609000,-0.235000000000
9.747239730000,-0.226000000000
9.754926851000,-0.216000000000
9.762613972000,-0.218000000000
9.770301093000,-0.218000000000
9.777988214000,-0.218000000000
9.785675335000,-0.223000000000
9.793362456000,-0.228000000000
9.801049577000,-0.233000000000
9.808736698000,-0.230000000000
9.816423819000,-0.230000000000
9.824110940000,-0.233000000000
9.831798061000,-0.230000000000
9.839485182000,-0.235000000000
9.847172303000,-0.242000000000
9.854859424000,-0.242000000000
9.862546545000,-0.226000000000
9.870233666000,-0.226000000000
9.877920787000,-0.245000000000
9.885607908000,-0.245000000000
9.893295029000,-0.238000000000
9.900982150000,-0.242000000000
9.908669271000,-0.230000000000
9.916356392000,-0.204000000000
9.924043513000,-0.194000000000
9.931730634000,-0.182000000000
9.939417755000,-0.177000000000
9.947104876000,-0.197000000000
9.954791997000,-0.211000000000
9.962479118000,-0.206000000000
9.970166239000,-0.209000000000
9.977853360000,-0.206000000000
9.985540481000,-0.192000000000
9.993227602000,-0.194000000000
10.000914723000,-0.218000000000
10.008601844000,-0.226000000000
10.016288965000,-0.113000000000
10.023976086000,0.303000000000
10.031663207000,0.757000000000
10.039350328000,0.555000000000
10.047037449000,-0.262000000000
10.054724570000,-0.759000000000
10.062411691000,-0.593000000000
10.070098876000,-0.394000000000
10.077785997000,-0.401000000000
10.085473118000,-0.298000000000
10.093160239000,-0.165000000000
10.100847360000,-0.185000000000
10.108534481000,-0.197000000000
10.116221602000,-0.149000000000
10.123908723000,-0.137000000000
10.131595844000,-0.137000000000
10.139282965000,-0.117000000000
10.146970086000,-0.115000000000
10.154657207000,-0.115000000000
10.162344328000,-0.093000000000
10.170031449000,-0.072000000000
10.177718570000,-0.050000000000
10.185405691000,-0.033000000000
10.193092812000,-0.019000000000
10.200779933000,0.014000000000
10.208467054000,0.052000000000
10.216154175000,0.064000000000
10.223841296000,0.074000000000
10.231528417000,0.088000000000
10.239215538000,0.088000000000
10.246902659000,0.072000000000
10.254589780000,0.052000000000
10.262276901000,0.033000000000
10.269964022000,0.002000000000
10.277651143000,-0.036000000000
10.285338264000,-0.079000000000
10.293025385000,-0.122000000000
10.300712506000,-0.168000000000
10.308399627000,-0.209000000000
10.316086748000,-0.238000000000
10.323773869000,-0.252000000000
10.331460990000,-0.259000000000
10.339148111000,-0.259000000000
10.346835232000,-0.247000000000
10.354522353000,-0.235000000000
10.362209474000,-0.233000000000
10.369896595000,-0.233000000000
10.377583716000,-0.221000000000
10.385270837000,-0.209000000000
10.392957958000,-0.209000000000
10.400645079000,-0.202000000000
10.408332200000,-0.194000000000
10.416019321000,-0.202000000000
10.423706442000,-0.209000000000
10.431393563000,-0.209000000000
10.439080684000,-0.206000000000
10.446767805000,-0.214000000000
10.454454926000,-0.221000000000
10.462142047000,-0.223000000000
10.469829168000,-0.218000000000
10.477516289000,-0.218000000000
10.485203410000,-0.223000000000
10.492890531000,-0.226000000000
10.500577652000,-0.226000000000
10.508264773000,-0.226000000000
10.515951894000,-0.233000000000
10.523639015000,-0.235000000000
10.531326136000,-0.218000000000
10.539013257000,-0.204000000000
10.546700378000,-0.202000000000
10.554387499000,-0.180000000000
10.562074620000,-0.163000000000
10.569761741000,-0.182000000000
10.577448862000,-0.204000000000
10.585135983000,-0.197000000000
10.592823104000,-0.197000000000
10.600510225000,-0.202000000000
10.608197346000,-0.194000000000
10.615884467000,-0.187000000000
10.623571588000,-0.197000000000
10.631258777000,-0.221000000000
10.638945898000,-0.214000000000
10.646633019000,0.024000000000
10.654320140000,0.548000000000
10.662007261000,0.812000000000
10.669694382000,0.307000000000
10.677381503000,-0.492000000000
10.685068624000,-0.723000000000
10.692755745000,-0.454000000000
10.700442866000,-0.336000000000
10.708129987000,-0.334000000000
10.715817108000,-0.216000000000
10.723504229000,-0.151000000000
10.731191350000,-0.177000000000
10.738878471000,-0.163000000000
10.746565592000,-0.134000000000
10.754252713000,-0.137000000000
10.761939834000,-0.127000000000
10.769626955000,-0.110000000000
10.777314076000,-0.108000000000
10.785001197000,-0.101000000000
10.792688318000,-0.081000000000
10.800375439000,-0.064000000000
10.808062560000,-0.048000000000
10.815749681000,-0.026000000000
10.823436802000,-0.002000000000
10.831123923000,0.016000000000
10.838811044000,0.040000000000
10.846498165000,0.064000000000
10.854185286000,0.076000000000
10.861872407000,0.072000000000
10.869559528000,0.064000000000
10.877246649000,0.060000000000
10.884933770000,0.043000000000
10.892620891000,0.016000000000
10.900308012000,-0.012000000000
10.907995133000,-0.050000000000
10.915682254000,-0.096000000000
10.923369375000,-0.137000000000
10.931056496000,-0.170000000000
10.938743617000,-0.202000000000
10.946430738000,-0.223000000000
10.954117859000,-0.228000000000
10.961804980000,-0.226000000000
10.969492101000,-0.226000000000
10.977179222000,-0.226000000000
10.984866343000,-0.216000000000
10.992553464000,-0.206000000000
11.000240585000,-0.204000000000
11.007927706000,-0.204000000000
11.015614827000,-0.202000000000
11.023301948000,-0.199000000000
11.030989069000,-0.197000000000
11.038676190000,-0.197000000000
11.046363311000,-0.202000000000
11.054050432000,-0.206000000000
11.061737553000,-0.206000000000
11.069424674000,-0.209000000000
11.077111795000,-0.211000000000
11.084798916000,-0.214000000000
11.092486037000,-0.216000000000
11.100173158000,-0.216000000000
11.107860279000,-0.214000000000
11.115547400000,-0.209000000000
11.123234521000,-0.214000000000
11.130921642000,-0.218000000000
11.138608763000,-0.226000000000
11.146295884000,-0.233000000000
11.153983005000,-0.230000000000
11.161670126000,-0.223000000000
11.169357247000,-0.209000000000
11.177044368000,-0.194000000000
11.184731489000,-0.185000000000
11.192418674000,-0.170000000000
11.200105795000,-0.161000000000
11.207792916000,-0.173000000000
11.215480037000,-0.189000000000
11.223167158000,-0.192000000000
11.230854279000,-0.192000000000
11.238541400000,-0.194000000000
11.246228521000,-0.189000000000
11.253915642000,-0.182000000000
11.261602763000,-0.192000000000
11.269289884000,-0.230000000000
11.276977005000,-0.250000000000
11.284664126000,-0.060000000000
11.292351247000,0.440000000000
11.300038368000,0.810000000000
11.307725489000,0.492000000000
11.315412610000,-0.283000000000
11.323099731000,-0.658000000000
11.330786852000,-0.456000000000
11.338473973000,-0.305000000000
11.346161094000,-0.319000000000
11.353848215000,-0.240000000000
11.361535336000,-0.177000000000
11.369222457000,-0.194000000000
11.376909578000,-0.187000000000
11.384596699000,-0.158000000000
11.392283820000,-0.153000000000
11.399970941000,-0.146000000000
11.407658062000,-0.132000000000
11.415345183000,-0.125000000000
11.423032304000,-0.115000000000
11.430719425000,-0.101000000000
11.438406546000,-0.088000000000
11.446093667000,-0.074000000000
11.453780788000,-0.052000000000
11.461467909000,-0.036000000000
11.469155030000,-0.012000000000
11.476842151000,0.016000000000
11.484529272000,0.036000000000
11.492216393000,0.045000000000
11.499903514000,0.048000000000
11.507590635000,0.038000000000
11.515277756000,0.026000000000
11.522964877000,0.016000000000
11.530651998000,-0.002000000000
11.538339119000,-0.040000000000
11.546026240000,-0.076000000000
11.553713361000,-0.105000000000
11.561400482000,-0.137000000000
11.569087603000,-0.168000000000
11.576774724000,-0.194000000000
11.584461845000,-0.218000000000
11.592148966000,-0.228000000000
11.599836087000,-0.223000000000
11.607523208000,-0.218000000000
11.615210329000,-0.221000000000
11.622897450000,-0.221000000000
11.630584571000,-0.211000000000
11.638271692000,-0.206000000000
11.645958813000,-0.204000000000
11.653645934000,-0.202000000000
11.661333055000,-0.204000000000
11.669020176000,-0.204000000000
11.676707297000,-0.199000000000
11.684394418000,-0.197000000000
11.692081539000,-0.202000000000
11.699768660000,-0.206000000000
11.707455781000,-0.204000000000
11.715142902000,-0.204000000000
11.722830023000,-0.211000000000
11.730517144000,-0.211000000000
11.738204265000,-0.209000000000
11.745891386000,-0.209000000000
11.753578571000,-0.209000000000
11.761265692000,-0.209000000000
11.768952813000,-0.209000000000
11.776639934000,-0.206000000000
11.784327055000,-0.206000000000
11.792014176000,-0.216000000000
11.799701297000,-0.223000000000
11.807388418000,-0.218000000000
11.815075539000,-0.214000000000
11.822762660000,-0.199000000000
11.830449781000,-0.187000000000
11.838136902000,-0.175000000000
11.845824023000,-0.156000000000
11.853511144000,-0.151000000000
11.861198265000,-0.175000000000
11.868885386000,-0.192000000000
11.876572507000,-0.185000000000
11.884259628000,-0.187000000000
11.891946749000,-0.189000000000
11.899633870000,-0.180000000000
11.907320991000,-0.177000000000
11.915008112000,-0.192000000000
11.922695233000,-0.226000000000
11.930382354000,-0.211000000000
11.938069475000,0.062000000000
11.945756596000,0.589000000000
11.953443717000,0.803000000000
11.961130838000,0.288000000000
11.968817959000,-0.449000000000
11.976505080000,-0.637000000000
11.984192201000,-0.404000000000
11.991879322000,-0.315000000000
11.999566443000,-0.307000000000
12.007253564000,-0.209000000000
12.014940685000,-0.173000000000
12.022627806000,-0.192000000000
12.030314927000,-0.168000000000
12.038002048000,-0.146000000000
12.045689169000,-0.149000000000
12.053376290000,-0.139000000000
12.061063411000,-0.125000000000
12.068750532000,-0.122000000000
12.076437653000,-0.117000000000
12.084124774000,-0.093000000000
12.091811895000,-0.069000000000
12.099499016000,-0.057000000000
12.107186137000,-0.045000000000
12.114873258000,-0.021000000000
12.122560379000,0.007000000000
12.130247500000,0.026000000000
12.137934621000,0.038000000000
12.145621742000,0.045000000000
12.153308863000,0.050000000000
12.160995984000,0.045000000000
12.168683105000,0.028000000000
12.176370226000,0.014000000000
12.184057347000,-0.002000000000
12.191744468000,-0.033000000000
12.199431589000,-0.067000000000
12.207118710000,-0.108000000000
12.214805831000,-0.151000000000
12.222492952000,-0.177000000000
12.230180073000,-0.204000000000
12.237867194000,-0.233000000000
12.245554315000,-0.242000000000
12.253241436000,-0.240000000000
12.260928557000,-0.238000000000
12.268615678000,-0.233000000000
12.276302799000,-0.230000000000
12.283989920000,-0.228000000000
12.291677041000,-0.221000000000
12.299364162000,-0.218000000000
12.307051283000,-0.221000000000
12.314738468000,-0.221000000000
12.322425589000,-0.221000000000
12.330112710000,-0.218000000000
12.337799831000,-0.218000000000
12.345486952000,-0.223000000000
12.353174073000,-0.223000000000
12.360861194000,-0.226000000000
12.368548315000,-0.228000000000
12.376235436000,-0.226000000000
12.383922557000,-0.226000000000
12.391609678000,-0.230000000000
12.399296799000,-0.228000000000
12.406983920000,-0.223000000000
12.414671041000,-0.223000000000
12.422358162000,-0.226000000000
12.430045283000,-0.230000000000
12.437732404000,-0.235000000000
12.445419525000,-0.238000000000
12.453106646000,-0.235000000000
12.460793767000,-0.223000000000
12.468480888000,-0.206000000000
12.476168009000,-0.202000000000
12.483855130000,-0.189000000000
12.491542251000,-0.165000000000
12.499229372000,-0.175000000000
12.506916493000,-0.206000000000
12.514603614000,-0.204000000000
12.522290735000,-0.192000000000
12.529977856000,-0.199000000000
12.537664977000,-0.199000000000
12.545352098000,-0.192000000000
12.553039219000,-0.197000000000
12.560726340000,-0.214000000000
12.568413461000,-0.209000000000
12.576100582000,-0.021000000000
12.583787703000,0.473000000000
12.591474824000,0.800000000000
12.599161945000,0.358000000000
12.606849066000,-0.447000000000
12.614536187000,-0.728000000000
12.622223308000,-0.502000000000
12.629910429000,-0.375000000000
12.637597550000,-0.370000000000
12.645284671000,-0.254000000000
12.652971792000,-0.170000000000
12.660658913000,-0.182000000000
12.668346034000,-0.175000000000
12.676033155000,-0.141000000000
12.683720276000,-0.139000000000
12.691407397000,-0.134000000000
12.699094518000,-0.120000000000
12.706781639000,-0.110000000000
12.714468760000,-0.096000000000
12.722155881000,-0.076000000000
12.729843002000,-0.067000000000
12.737530123000,-0.050000000000
12.745217244000,-0.026000000000
12.752904365000,0.000000000000
12.760591486000,0.021000000000
12.768278607000,0.040000000000
12.775965728000,0.062000000000
12.783652849000,0.074000000000
12.791339970000,0.072000000000
12.799027091000,0.069000000000
12.806714212000,0.062000000000
12.814401333000,0.050000000000
12.822088454000,0.038000000000
12.829775575000,0.012000000000
12.837462696000,-0.026000000000
12.845149817000,-0.067000000000
12.852836938000,-0.115000000000
12.860524059000,-0.168000000000
12.868211180000,-0.211000000000
12.875898365000,-0.235000000000
12.883585486000,-0.242000000000
12.891272607000,-0.250000000000
12.898959728000,-0.247000000000
12.906646849000,-0.235000000000
12.914333970000,-0.230000000000
12.922021091000,-0.226000000000
12.929708212000,-0.214000000000
12.937395333000,-0.209000000000
12.945082454000,-0.209000000000
12.952769575000,-0.209000000000
12.960456696000,-0.214000000000
12.968143817000,-0.214000000000
12.975830938000,-0.209000000000
12.983518059000,-0.214000000000
12.991205180000,-0.228000000000
12.998892301000,-0.228000000000
13.006579422000,-0.228000000000
13.014266543000,-0.233000000000
13.021953664000,-0.228000000000
13.029640785000,-0.223000000000
13.037327906000,-0.230000000000
13.045015027000,-0.238000000000
13.052702148000,-0.240000000000
13.060389269000,-0.242000000000
13.068076390000,-0.245000000000
13.075763511000,-0.242000000000
13.083450632000,-0.226000000000
13.091137753000,-0.216000000000
13.098824874000,-0.211000000000
13.106511995000,-0.187000000000
13.114199116000,-0.165000000000
13.121886237000,-0.185000000000
13.129573358000,-0.211000000000
13.137260479000,-0.209000000000
13.144947600000,-0.202000000000
13.152634721000,-0.206000000000
13.160321842000,-0.202000000000
13.168008963000,-0.192000000000
13.175696084000,-0.192000000000
13.183383205000,-0.216000000000
13.191070326000,-0.204000000000
13.198757447000,0.057000000000
13.206444568000,0.581000000000
13.214131689000,0.795000000000
13.221818810000,0.218000000000
13.229505931000,-0.579000000000
13.237193052000,-0.735000000000
13.244880173000,-0.452000000000
13.252567294000,-0.358000000000
13.260254415000,-0.351000000000
13.267941536000,-0.221000000000
13.275628657000,-0.158000000000
13.283315778000,-0.182000000000
13.291002899000,-0.165000000000
13.298690020000,-0.132000000000
13.306377141000,-0.137000000000
13.314064262000,-0.129000000000
13.321751383000,-0.110000000000
13.329438504000,-0.103000000000
13.337125625000,-0.091000000000
13.344812746000,-0.074000000000
13.352499867000,-0.060000000000
13.360186988000,-0.040000000000
13.367874109000,-0.016000000000
13.375561230000,0.002000000000
13.383248351000,0.024000000000
13.390935472000,0.052000000000
13.398622593000,0.072000000000
13.406309714000,0.076000000000
13.413996835000,0.074000000000
13.421683956000,0.072000000000
13.429371077000,0.064000000000
13.437058262000,0.055000000000
13.444745383000,0.036000000000
13.452432504000,0.002000000000
13.460119625000,-0.038000000000
13.467806746000,-0.079000000000
13.475493867000,-0.115000000000
13.483180988000,-0.161000000000
13.490868109000,-0.202000000000
13.498555230000,-0.223000000000
13.506242351000,-0.230000000000
13.513929472000,-0.235000000000
13.521616593000,-0.230000000000
13.529303714000,-0.218000000000
13.536990835000,-0.206000000000
13.544677956000,-0.204000000000
13.552365077000,-0.204000000000
13.560052198000,-0.197000000000
13.567739319000,-0.194000000000
13.575426440000,-0.192000000000
13.583113561000,-0.189000000000
13.590800682000,-0.192000000000
13.598487803000,-0.199000000000
13.606174924000,-0.204000000000
13.613862045000,-0.204000000000
13.621549166000,-0.206000000000
13.629236287000,-0.209000000000
13.636923408000,-0.214000000000
13.644610529000,-0.218000000000
13.652297650000,-0.214000000000
13.659984771000,-0.214000000000
13.667671892000,-0.218000000000
13.675359013000,-0.223000000000
13.683046134000,-0.228000000000
13.690733255000,-0.228000000000
13.698420376000,-0.221000000000
13.706107497000,-0.206000000000
13.713794618000,-0.202000000000
13.721481739000,-0.185000000000
13.729168860000,-0.161000000000
13.736855981000,-0.161000000000
13.744543102000,-0.182000000000
13.752230223000,-0.194000000000
13.759917344000,-0.192000000000
13.767604465000,-0.192000000000
13.775291586000,-0.185000000000
13.782978707000,-0.180000000000
13.790665828000,-0.185000000000
13.798352949000,-0.202000000000
13.806040070000,-0.235000000000
13.813727191000,-0.153000000000
13.821414312000,0.254000000000
13.829101433000,0.757000000000
13.836788554000,0.704000000000
13.844475675000,-0.024000000000
13.852162796000,-0.639000000000
13.859849917000,-0.572000000000
13.867537038000,-0.329000000000
13.875224159000,-0.322000000000
13.882911280000,-0.278000000000
13.890598401000,-0.170000000000
13.898285522000,-0.168000000000
13.905972643000,-0.180000000000
13.913659764000,-0.144000000000
13.921346885000,-0.132000000000
13.929034006000,-0.134000000000
13.936721127000,-0.117000000000
13.944408248000,-0.105000000000
13.952095369000,-0.103000000000
13.959782490000,-0.086000000000
13.967469611000,-0.069000000000
13.975156732000,-0.060000000000
13.982843853000,-0.043000000000
13.990530974000,-0.014000000000
13.998218163000,0.007000000000
14.005905284000,0.031000000000
14.013592405000,0.055000000000
14.021279526000,0.069000000000
14.028966647000,0.074000000000
14.036653768000,0.074000000000
14.044340889000,0.069000000000
14.052028010000,0.062000000000
14.059715131000,0.043000000000
14.067402252000,0.016000000000
14.075089373000,-0.014000000000
14.082776494000,-0.050000000000
14.090463615000,-0.086000000000
14.098150736000,-0.122000000000
14.105837857000,-0.153000000000
14.113524978000,-0.177000000000
14.121212099000,-0.192000000000
14.128899220000,-0.197000000000
14.136586341000,-0.192000000000
14.144273462000,-0.187000000000
14.151960583000,-0.182000000000
14.159647704000,-0.175000000000
14.167334825000,-0.170000000000
14.175021946000,-0.170000000000
14.182709067000,-0.165000000000
14.190396188000,-0.161000000000
14.198083309000,-0.161000000000
14.205770430000,-0.163000000000
14.213457551000,-0.165000000000
14.221144672000,-0.165000000000
14.228831793000,-0.163000000000
14.236518914000,-0.165000000000
14.244206035000,-0.168000000000
14.251893156000,-0.170000000000
14.259580277000,-0.168000000000
14.267267398000,-0.168000000000
14.274954519000,-0.170000000000
14.282641640000,-0.168000000000
14.290328761000,-0.168000000000
14.298015882000,-0.175000000000
14.305703003000,-0.182000000000
14.313390124000,-0.182000000000
14.321077245000,-0.177000000000
14.328764366000,-0.163000000000
14.336451487000,-0.149000000000
14.344138608000,-0.141000000000
14.351825729000,-0.125000000000
14.359512850000,-0.105000000000
14.367199971000,-0.115000000000
14.374887092000,-0.137000000000
14.382574213000,-0.139000000000
14.390261334000,-0.137000000000
14.397948455000,-0.137000000000
14.405635576000,-0.129000000000
14.413322697000,-0.127000000000
14.421009818000,-0.132000000000
14.428696939000,-0.158000000000
14.436384060000,-0.194000000000
14.444071181000,-0.076000000000
14.451758302000,0.370000000000
14.459445423000,0.839000000000
14.467132544000,0.711000000000
14.474819665000,-0.026000000000
14.482506786000,-0.581000000000
14.490193907000,-0.490000000000
14.497881028000,-0.271000000000
14.505568149000,-0.264000000000
14.513255270000,-0.216000000000
14.520942391000,-0.134000000000
14.528629512000,-0.139000000000
14.536316633000,-0.144000000000
14.544003754000,-0.113000000000
14.551690875000,-0.105000000000
14.559378060000,-0.110000000000
14.567065181000,-0.098000000000
14.574752302000,-0.088000000000
14.582439423000,-0.084000000000
14.590126544000,-0.074000000000
14.597813665000,-0.060000000000
14.605500786000,-0.045000000000
14.613187907000,-0.031000000000
14.620875028000,-0.012000000000
14.628562149000,0.004000000000
14.636249270000,0.026000000000
14.643936391000,0.043000000000
14.651623512000,0.052000000000
14.659310633000,0.055000000000
14.666997754000,0.045000000000
14.674684875000,0.031000000000
14.682371996000,0.016000000000
14.690059117000,-0.007000000000
14.697746238000,-0.038000000000
14.705433359000,-0.074000000000
14.713120480000,-0.113000000000
14.720807601000,-0.153000000000
14.728494722000,-0.197000000000
14.736181843000,-0.238000000000
14.743868964000,-0.266000000000
14.751556085000,-0.283000000000
14.759243206000,-0.293000000000
14.766930327000,-0.293000000000
14.774617448000,-0.295000000000
14.782304569000,-0.303000000000
14.789991690000,-0.303000000000
14.797678811000,-0.300000000000
14.805365932000,-0.303000000000
14.813053053000,-0.307000000000
14.820740174000,-0.312000000000
14.828427295000,-0.317000000000
14.836114416000,-0.324000000000
14.843801537000,-0.331000000000
14.851488658000,-0.336000000000
14.859175779000,-0.343000000000
14.866862900000,-0.351000000000
14.874550021000,-0.355000000000
14.882237142000,-0.360000000000
14.889924263000,-0.365000000000
14.897611384000,-0.375000000000
14.905298505000,-0.379000000000
14.912985626000,-0.379000000000
14.920672747000,-0.384000000000
14.928359868000,-0.389000000000
14.936046989000,-0.396000000000
14.943734110000,-0.401000000000
14.951421231000,-0.406000000000
14.959108352000,-0.411000000000
14.966795473000,-0.401000000000
14.974482594000,-0.387000000000
14.982169715000,-0.379000000000
14.989856836000,-0.372000000000
14.997543957000,-0.355000000000
15.005231078000,-0.360000000000
15.012918199000,-0.387000000000
15.020605320000,-0.396000000000
15.028292441000,-0.391000000000
15.035979562000,-0.394000000000
15.043666683000,-0.396000000000
15.051353804000,-0.391000000000
15.059040925000,-0.387000000000
15.066728046000,-0.401000000000
15.074415167000,-0.444000000000
15.082102288000,-0.389000000000
15.089789409000,-0.012000000000
15.097476530000,0.509000000000
15.105163651000,0.536000000000
15.112850772000,-0.134000000000
15.120537957000,-0.786000000000
15.128224939000,-0.800000000000
15.135911921000,-0.565000000000
15.143598903000,-0.536000000000
15.151285885000,-0.505000000000
15.158972867000,-0.394000000000
15.166659849000,-0.382000000000
15.174346831000,-0.404000000000
15.182033813000,-0.372000000000
15.189720795000,-0.351000000000
15.197407777000,-0.351000000000
15.205094759000,-0.339000000000
15.212781741000,-0.327000000000
15.220468723000,-0.317000000000
15.228155705000,-0.305000000000
15.235842687000,-0.290000000000
15.243529669000,-0.274000000000
15.251216651000,-0.252000000000
15.258903633000,-0.230000000000
15.266590615000,-0.206000000000
15.274277597000,-0.175000000000
15.281964579000,-0.144000000000
15.289651561000,-0.132000000000
15.297338543000,-0.134000000000
15.305025525000,-0.132000000000
15.312712507000,-0.137000000000
15.320399489000,-0.146000000000
15.328086471000,-0.156000000000
15.335773453000,-0.177000000000
15.343460435000,-0.206000000000
15.351147417000,-0.235000000000
15.358834399000,-0.271000000000
15.366521381000,-0.312000000000
15.374208363000,-0.348000000000
15.381895345000,-0.377000000000
15.389582327000,-0.389000000000
15.397269309000,-0.394000000000
15.404956291000,-0.391000000000
15.412643273000,-0.384000000000
15.420330255000,-0.375000000000
15.428017237000,-0.367000000000
15.435704219000,-0.365000000000
15.443391201000,-0.360000000000
15.451078183000,-0.351000000000
15.458765165000,-0.351000000000
15.466452147000,-0.351000000000
15.474139129000,-0.346000000000
15.481826111000,-0.341000000000
15.489513093000,-0.336000000000
15.497200075000,-0.334000000000
15.504887057000,-0.339000000000
15.512574039000,-0.343000000000
15.520261021000,-0.343000000000
15.527948003000,-0.336000000000
15.535634985000,-0.329000000000
15.543321967000,-0.331000000000
15.551008949000,-0.331000000000
15.558695931000,-0.327000000000
15.566382913000,-0.324000000000
15.574069895000,-0.327000000000
15.581756877000,-0.329000000000
15.589443859000,-0.331000000000
15.597130841000,-0.322000000000
15.604817823000,-0.303000000000
15.612504805000,-0.293000000000
15.620191787000,-0.276000000000
15.627878769000,-0.252000000000
15.635565751000,-0.250000000000
15.643252733000,-0.269000000000
15.650939715000,-0.274000000000
15.658626697000,-0.271000000000
15.666313679000,-0.269000000000
15.674000661000,-0.259000000000
15.681687684000,-0.252000000000
15.689374527000,-0.250000000000
15.697061370000,-0.257000000000
15.704748213000,-0.266000000000
15.712435056000,-0.151000000000
15.720121899000,0.281000000000
15.727808742000,0.733000000000
15.735495585000,0.512000000000
15.743182428000,-0.307000000000
15.750869271000,-0.791000000000
15.758556114000,-0.618000000000
15.766242957000,-0.418000000000
15.773929800000,-0.420000000000
15.781616643000,-0.322000000000
15.789303486000,-0.187000000000
15.796990329000,-0.187000000000
15.804677172000,-0.204000000000
15.812364015000,-0.165000000000
15.820050858000,-0.139000000000
15.827737701000,-0.139000000000
15.835424544000,-0.127000000000
15.843111387000,-0.110000000000
15.850798230000,-0.101000000000
15.858485073000,-0.084000000000
15.866171916000,-0.055000000000
15.873858759000,-0.038000000000
15.881545602000,-0.024000000000
15.889232445000,0.000000000000
15.896919288000,0.021000000000
15.904606131000,0.045000000000
15.912292974000,0.072000000000
15.919979817000,0.091000000000
15.927666660000,0.098000000000
15.935353503000,0.093000000000
15.943040346000,0.088000000000
15.950727189000,0.079000000000
15.958414032000,0.062000000000
15.966100875000,0.040000000000
15.973787718000,0.012000000000
15.981474561000,-0.026000000000
15.989161404000,-0.076000000000
15.996848247000,-0.117000000000
16.004535090000,-0.151000000000
16.012221933000,-0.185000000000
16.019908776000,-0.202000000000
16.027595619000,-0.206000000000
16.035282462000,-0.209000000000
16.042969305000,-0.209000000000
16.050656148000,-0.192000000000
16.058342991000,-0.177000000000
16.066029834000,-0.170000000000
16.073716677000,-0.161000000000
16.081403520000,-0.146000000000
16.089090363000,-0.146000000000
16.096777206000,-0.153000000000
16.104464049000,-0.149000000000
16.112150892000,-0.149000000000
16.119837735000,-0.156000000000
16.127524578000,-0.158000000000
16.135211421000,-0.161000000000
16.142898264000,-0.163000000000
16.150585107000,-0.165000000000
16.158271950000,-0.170000000000
16.165958793000,-0.170000000000
16.173645636000,-0.168000000000
16.181332479000,-0.168000000000
16.189019322000,-0.173000000000
16.196706165000,-0.180000000000
16.204393008000,-0.177000000000
16.212079851000,-0.163000000000
16.219766694000,-0.151000000000
16.227453537000,-0.149000000000
16.235140380000,-0.137000000000
16.242827233000,-0.115000000000
16.250514354000,-0.110000000000
16.258201475000,-0.129000000000
16.265888596000,-0.139000000000
16.273575717000,-0.134000000000
16.281262838000,-0.134000000000
16.288949959000,-0.134000000000
16.296637080000,-0.127000000000
16.304324201000,-0.122000000000
16.312011322000,-0.144000000000
16.319698443000,-0.156000000000
16.327385564000,0.004000000000
16.335072685000,0.476000000000
16.342759806000,0.872000000000
16.350446927000,0.550000000000
16.358134048000,-0.274000000000
16.365821169000,-0.661000000000
16.373508290000,-0.437000000000
16.381195411000,-0.274000000000
16.388882532000,-0.290000000000
16.396569653000,-0.185000000000
16.404256774000,-0.084000000000
16.411943895000,-0.105000000000
16.419631016000,-0.103000000000
16.427318137000,-0.062000000000
16.435005258000,-0.057000000000
16.442692379000,-0.060000000000
16.450379500000,-0.036000000000
16.458066621000,-0.019000000000
16.465753742000,-0.016000000000
16.473440863000,-0.007000000000
16.481127984000,0.012000000000
16.488815105000,0.031000000000
16.496502226000,0.050000000000
16.504189347000,0.072000000000
16.511876468000,0.096000000000
16.519563589000,0.122000000000
16.527250710000,0.144000000000
16.534937831000,0.156000000000
16.542624952000,0.161000000000
16.550312073000,0.168000000000
16.557999194000,0.158000000000
16.565686315000,0.134000000000
16.573373436000,0.117000000000
16.581060557000,0.096000000000
16.588747678000,0.057000000000
16.596434799000,0.019000000000
16.604121920000,-0.019000000000
16.611809041000,-0.060000000000
16.619496162000,-0.098000000000
16.627183283000,-0.127000000000
16.634870404000,-0.139000000000
16.642557525000,-0.146000000000
16.650244646000,-0.153000000000
16.657931767000,-0.146000000000
16.665618888000,-0.139000000000
16.673306009000,-0.132000000000
16.680993130000,-0.122000000000
16.688680251000,-0.115000000000
16.696367372000,-0.108000000000
16.704054493000,-0.105000000000
16.711741614000,-0.113000000000
16.719428735000,-0.113000000000
16.727115856000,-0.105000000000
16.734802977000,-0.108000000000
16.742490098000,-0.117000000000
16.750177219000,-0.122000000000
16.757864340000,-0.125000000000
16.765551461000,-0.125000000000
16.773238582000,-0.127000000000
16.780925703000,-0.129000000000
16.788612824000,-0.129000000000
16.796299945000,-0.132000000000
16.803987130000,-0.137000000000
16.811674251000,-0.141000000000
16.819361372000,-0.144000000000
16.827048493000,-0.144000000000
16.834735614000,-0.137000000000
16.842422735000,-0.122000000000
16.850109856000,-0.120000000000
16.857796977000,-0.108000000000
16.865484098000,-0.084000000000
16.873171219000,-0.081000000000
16.880858340000,-0.101000000000
16.888545461000,-0.113000000000
16.896232582000,-0.113000000000
16.903919703000,-0.117000000000
16.911606824000,-0.115000000000
16.919293945000,-0.108000000000
16.926981066000,-0.108000000000
16.934668187000,-0.125000000000
16.942355308000,-0.161000000000
16.950042429000,-0.096000000000
16.957729550000,0.295000000000
16.965416671000,0.820000000000
16.973103792000,0.839000000000
16.980790913000,0.153000000000
16.988478034000,-0.507000000000
16.996165155000,-0.500000000000
17.003852276000,-0.257000000000
17.011539397000,-0.242000000000
17.019226518000,-0.209000000000
17.026913639000,-0.108000000000
17.034600760000,-0.108000000000
17.042287881000,-0.122000000000
17.049975002000,-0.084000000000
17.057662123000,-0.072000000000
17.065349244000,-0.076000000000
17.073036365000,-0.062000000000
17.080723486000,-0.045000000000
17.088410607000,-0.043000000000
17.096097728000,-0.036000000000
17.103784849000,-0.021000000000
17.111471970000,-0.009000000000
17.119159091000,0.009000000000
17.126846212000,0.033000000000
17.134533333000,0.055000000000
17.142220454000,0.072000000000
17.149907575000,0.093000000000
17.157594696000,0.115000000000
17.165281817000,0.125000000000
17.172968938000,0.120000000000
17.180656059000,0.110000000000
17.188343180000,0.103000000000
17.196030301000,0.088000000000
17.203717422000,0.060000000000
17.211404543000,0.028000000000
17.219091664000,-0.002000000000
17.226778785000,-0.038000000000
17.234465906000,-0.074000000000
17.242153027000,-0.105000000000
17.249840148000,-0.132000000000
17.257527269000,-0.146000000000
17.265214390000,-0.151000000000
17.272901511000,-0.151000000000
17.280588632000,-0.149000000000
17.288275753000,-0.144000000000
17.295962874000,-0.139000000000
17.303649995000,-0.137000000000
17.311337116000,-0.134000000000
17.319024237000,-0.129000000000
17.326711358000,-0.129000000000
17.334398479000,-0.129000000000
17.342085600000,-0.127000000000
17.349772721000,-0.129000000000
17.357459842000,-0.132000000000
17.365147031000,-0.134000000000
17.372834152000,-0.134000000000
17.380521273000,-0.129000000000
17.388208394000,-0.132000000000
17.395895515000,-0.137000000000
17.403582636000,-0.141000000000
17.411269757000,-0.137000000000
17.418956878000,-0.137000000000
17.426643999000,-0.139000000000
17.434331120000,-0.139000000000
17.442018241000,-0.141000000000
17.449705362000,-0.146000000000
17.457392483000,-0.153000000000
17.465079604000,-0.151000000000
17.472766725000,-0.137000000000
17.480453846000,-0.122000000000
17.488140967000,-0.115000000000
17.495828088000,-0.101000000000
17.503515209000,-0.081000000000
17.511202330000,-0.084000000000
17.518889451000,-0.110000000000
17.526576572000,-0.125000000000
17.534263693000,-0.122000000000
17.541950814000,-0.120000000000
17.549637935000,-0.117000000000
17.557325056000,-0.115000000000
17.565012177000,-0.117000000000
17.572699298000,-0.127000000000
17.580386419000,-0.170000000000
17.588073540000,-0.165000000000
17.595760661000,0.129000000000
17.603447782000,0.680000000000
17.611134903000,0.896000000000
17.618822024000,0.389000000000
17.626509145000,-0.346000000000
17.634196266000,-0.548000000000
17.641883387000,-0.322000000000
17.649570508000,-0.240000000000
17.657257629000,-0.242000000000
17.664944750000,-0.156000000000
17.672631871000,-0.129000000000
17.680318992000,-0.151000000000
17.688006113000,-0.127000000000
17.695693234000,-0.105000000000
17.703380355000,-0.110000000000
17.711067476000,-0.101000000000
17.718754597000,-0.084000000000
17.726441718000,-0.079000000000
17.734128839000,-0.069000000000
17.741815960000,-0.052000000000
17.749503081000,-0.040000000000
17.757190202000,-0.026000000000
17.764877323000,-0.004000000000
17.772564444000,0.019000000000
17.780251565000,0.038000000000
17.787938686000,0.060000000000
17.795625807000,0.076000000000
17.803312928000,0.084000000000
17.811000049000,0.084000000000
17.818687170000,0.081000000000
17.826374291000,0.072000000000
17.834061412000,0.055000000000
17.841748533000,0.038000000000
17.849435654000,0.009000000000
17.857122775000,-0.026000000000
17.864809896000,-0.062000000000
17.872497017000,-0.093000000000
17.880184138000,-0.127000000000
17.887871259000,-0.156000000000
17.895558380000,-0.173000000000
17.903245501000,-0.177000000000
17.910932622000,-0.180000000000
17.918619743000,-0.182000000000
17.926306928000,-0.177000000000
17.933994049000,-0.173000000000
17.941681170000,-0.170000000000
17.949368291000,-0.165000000000
17.957055412000,-0.158000000000
17.964742533000,-0.156000000000
17.972429654000,-0.158000000000
17.980116775000,-0.158000000000
17.987803896000,-0.153000000000
17.995491017000,-0.158000000000
18.003178138000,-0.161000000000
18.010865259000,-0.161000000000
18.018552380000,-0.163000000000
18.026239501000,-0.163000000000
18.033926622000,-0.161000000000
18.041613743000,-0.161000000000
18.049300864000,-0.163000000000
18.056987985000,-0.165000000000
18.064675106000,-0.165000000000
18.072362227000,-0.168000000000
18.080049348000,-0.165000000000
18.087736469000,-0.161000000000
18.095423590000,-0.158000000000
18.103110711000,-0.165000000000
18.110797832000,-0.173000000000
18.118484953000,-0.173000000000
18.126172074000,-0.177000000000
18.133859195000,-0.177000000000
18.141546316000,-0.158000000000
18.149233437000,-0.144000000000
18.156920558000,-0.139000000000
18.164607679000,-0.122000000000
18.172294800000,-0.110000000000
18.179981921000,-0.127000000000
18.187669042000,-0.146000000000
18.195356163000,-0.149000000000
18.203043284000,-0.149000000000
18.210730405000,-0.149000000000
18.218417526000,-0.146000000000
18.226104647000,-0.146000000000
18.233791768000,-0.151000000000
18.241478889000,-0.175000000000
18.249166010000,-0.209000000000
18.256853131000,-0.072000000000
18.264540252000,0.416000000000
18.272227373000,0.851000000000
18.279914494000,0.598000000000
18.287601615000,-0.165000000000
18.295288736000,-0.601000000000
18.302975857000,-0.452000000000
18.310662978000,-0.293000000000
18.318350099000,-0.315000000000
18.326037220000,-0.245000000000
18.333724341000,-0.156000000000
18.341411462000,-0.170000000000
18.349098583000,-0.173000000000
18.356785704000,-0.139000000000
18.364472825000,-0.129000000000
18.372159946000,-0.132000000000
18.379847067000,-0.120000000000
18.387534188000,-0.103000000000
18.395221309000,-0.093000000000
18.402908430000,-0.081000000000
18.410595551000,-0.069000000000
18.418282672000,-0.052000000000
18.425969793000,-0.033000000000
18.433656914000,-0.009000000000
18.441344035000,0.014000000000
18.449031156000,0.033000000000
18.456718277000,0.050000000000
18.464405398000,0.069000000000
18.472092519000,0.081000000000
18.479779640000,0.072000000000
18.487466825000,0.060000000000
18.495153807000,0.055000000000
18.502840789000,0.045000000000
18.510527771000,0.024000000000
18.518214753000,-0.007000000000
18.525901735000,-0.045000000000
18.533588717000,-0.086000000000
18.541275699000,-0.122000000000
18.548962681000,-0.161000000000
18.556649663000,-0.194000000000
18.564336645000,-0.209000000000
18.572023627000,-0.214000000000
18.579710609000,-0.218000000000
18.587397591000,-0.218000000000
18.595084573000,-0.209000000000
18.602771555000,-0.204000000000
18.610458537000,-0.204000000000
18.618145519000,-0.202000000000
18.625832501000,-0.194000000000
18.633519483000,-0.197000000000
18.641206465000,-0.199000000000
18.648893447000,-0.194000000000
18.656580429000,-0.187000000000
18.664267411000,-0.194000000000
18.671954393000,-0.206000000000
18.679641375000,-0.206000000000
18.687328357000,-0.204000000000
18.695015339000,-0.206000000000
18.702702321000,-0.211000000000
18.710389303000,-0.209000000000
18.718076285000,-0.206000000000
18.725763267000,-0.211000000000
18.733450249000,-0.214000000000
18.741137231000,-0.214000000000
18.748824213000,-0.218000000000
18.756511195000,-0.214000000000
18.764198177000,-0.214000000000
18.771885159000,-0.223000000000
18.779572141000,-0.218000000000
18.787259123000,-0.197000000000
18.794946105000,-0.187000000000
18.802633087000,-0.175000000000
18.810320069000,-0.153000000000
18.818007051000,-0.161000000000
18.825694033000,-0.182000000000
18.833381015000,-0.189000000000
18.841067997000,-0.189000000000
18.848754979000,-0.187000000000
18.856441961000,-0.182000000000
18.864128943000,-0.177000000000
18.871815925000,-0.185000000000
18.879502907000,-0.209000000000
18.887189889000,-0.192000000000
18.894876871000,0.055000000000
18.902563853000,0.584000000000
18.910250835000,0.817000000000
18.917937817000,0.262000000000
18.925624799000,-0.519000000000
18.933311781000,-0.694000000000
18.940998763000,-0.442000000000
18.948685745000,-0.360000000000
18.956372727000,-0.355000000000
18.964059709000,-0.221000000000
18.971746691000,-0.153000000000
18.979433673000,-0.182000000000
18.987120655000,-0.168000000000
18.994807637000,-0.129000000000
19.002494619000,-0.132000000000
19.010181601000,-0.129000000000
19.017868583000,-0.108000000000
19.025555565000,-0.096000000000
19.033242547000,-0.086000000000
19.040929529000,-0.069000000000
19.048616552000,-0.057000000000
19.056303395000,-0.043000000000
19.063990238000,-0.019000000000
19.071677081000,0.007000000000
19.079363924000,0.028000000000
19.087050767000,0.045000000000
19.094737610000,0.072000000000
19.102424453000,0.091000000000
19.110111296000,0.081000000000
19.117798139000,0.079000000000
19.125484982000,0.081000000000
19.133171825000,0.060000000000
19.140858668000,0.036000000000
19.148545511000,0.007000000000
19.156232354000,-0.028000000000
19.163919197000,-0.062000000000
19.171606040000,-0.103000000000
19.179292883000,-0.156000000000
19.186979726000,-0.194000000000
19.194666569000,-0.218000000000
19.202353412000,-0.235000000000
19.210040255000,-0.238000000000
19.217727098000,-0.233000000000
19.225413941000,-0.228000000000
19.233100784000,-0.218000000000
19.240787627000,-0.214000000000
19.248474470000,-0.204000000000
19.256161313000,-0.194000000000
19.263848156000,-0.194000000000
19.271534999000,-0.194000000000
19.279221842000,-0.189000000000
19.286908685000,-0.189000000000
19.294595528000,-0.192000000000
19.302282371000,-0.192000000000
19.309969214000,-0.197000000000
19.317656057000,-0.209000000000
19.325342900000,-0.209000000000
19.333029743000,-0.204000000000
19.340716586000,-0.206000000000
19.348403429000,-0.209000000000
19.356090272000,-0.211000000000
19.363777115000,-0.211000000000
19.371463958000,-0.214000000000
19.379150801000,-0.216000000000
19.386837644000,-0.216000000000
19.394524487000,-0.211000000000
19.402211330000,-0.199000000000
19.409898173000,-0.189000000000
19.417585016000,-0.175000000000
19.425271859000,-0.151000000000
19.432958702000,-0.146000000000
19.440645545000,-0.165000000000
19.448332388000,-0.175000000000
19.456019231000,-0.170000000000
19.463706074000,-0.173000000000
19.471392917000,-0.175000000000
19.479079760000,-0.165000000000
19.486766603000,-0.165000000000
19.494453446000,-0.180000000000
19.502140289000,-0.204000000000
19.509827132000,-0.141000000000
19.517513975000,0.216000000000
19.525200818000,0.738000000000
19.532887661000,0.769000000000
19.540574504000,0.060000000000
19.548261347000,-0.622000000000
19.555948190000,-0.618000000000
19.563635033000,-0.367000000000
19.571321876000,-0.339000000000
19.579008719000,-0.290000000000
19.586695562000,-0.163000000000
19.594382405000,-0.144000000000
19.602069248000,-0.165000000000
19.609756101000,-0.132000000000
19.617443222000,-0.110000000000
19.625130343000,-0.113000000000
19.632817464000,-0.105000000000
19.640504585000,-0.096000000000
19.648191706000,-0.086000000000
19.655878827000,-0.074000000000
19.663565948000,-0.060000000000
19.671253069000,-0.048000000000
19.678940190000,-0.031000000000
19.686627311000,-0.012000000000
19.694314432000,0.009000000000
19.702001553000,0.036000000000
19.709688674000,0.057000000000
19.717375795000,0.076000000000
19.725062916000,0.088000000000
19.732750037000,0.088000000000
19.740437158000,0.081000000000
19.748124279000,0.076000000000
19.755811400000,0.064000000000
19.763498521000,0.040000000000
19.771185642000,0.012000000000
19.778872763000,-0.016000000000
19.786559884000,-0.060000000000
19.794247005000,-0.108000000000
19.801934126000,-0.146000000000
19.809621247000,-0.175000000000
19.817308368000,-0.199000000000
19.824995489000,-0.209000000000
19.832682610000,-0.209000000000
19.840369731000,-0.209000000000
19.848056852000,-0.204000000000
19.855743973000,-0.194000000000
19.863431094000,-0.187000000000
19.871118215000,-0.182000000000
19.878805336000,-0.180000000000
19.886492457000,-0.177000000000
19.894179578000,-0.173000000000
19.901866699000,-0.173000000000
19.909553820000,-0.173000000000
19.917240941000,-0.173000000000
19.924928062000,-0.175000000000
19.932615183000,-0.180000000000
19.940302304000,-0.185000000000
19.947989425000,-0.185000000000
19.955676546000,-0.185000000000
19.963363667000,-0.189000000000
19.971050788000,-0.189000000000
19.978737909000,-0.187000000000
19.986425030000,-0.194000000000
19.994112151000,-0.202000000000
20.001799272000,-0.204000000000
20.009486393000,-0.204000000000
20.017173514000,-0.194000000000
20.024860635000,-0.180000000000
20.032547756000,-0.170000000000
20.040234877000,-0.158000000000
20.047921998000,-0.141000000000
20.055609119000,-0.141000000000
20.063296240000,-0.158000000000
20.070983361000,-0.168000000000
20.078670482000,-0.165000000000
20.086357603000,-0.163000000000
20.094044724000,-0.161000000000
20.101731845000,-0.161000000000
20.109418966000,-0.163000000000
20.117106087000,-0.175000000000
20.124793208000,-0.211000000000
20.132480329000,-0.175000000000
20.140167450000,0.170000000000
20.147854571000,0.716000000000
20.155541692000,0.856000000000
20.163228813000,0.271000000000
20.170915998000,-0.454000000000
20.178603119000,-0.574000000000
20.186290240000,-0.324000000000
20.193977361000,-0.271000000000
20.201664482000,-0.269000000000
20.209351603000,-0.175000000000
20.217038724000,-0.153000000000
20.224725845000,-0.173000000000
20.232412966000,-0.141000000000
20.240100087000,-0.117000000000
20.247787208000,-0.120000000000
20.255474329000,-0.110000000000
20.263161450000,-0.098000000000
20.270848571000,-0.093000000000
20.278535692000,-0.081000000000
20.286222813000,-0.062000000000
20.293909934000,-0.048000000000
20.301597055000,-0.031000000000
20.309284176000,-0.014000000000
20.316971297000,0.007000000000
20.324658418000,0.028000000000
20.332345539000,0.057000000000
20.340032660000,0.079000000000
20.347719781000,0.084000000000
20.355406902000,0.084000000000
20.363094023000,0.084000000000
20.370781144000,0.076000000000
20.378468265000,0.057000000000
20.386155386000,0.036000000000
20.393842507000,0.009000000000
20.401529628000,-0.024000000000
20.409216749000,-0.055000000000
20.416903870000,-0.088000000000
20.424590991000,-0.122000000000
20.432278112000,-0.146000000000
20.439965233000,-0.161000000000
20.447652354000,-0.165000000000
20.455339475000,-0.165000000000
20.463026596000,-0.163000000000
20.470713717000,-0.158000000000
20.478400838000,-0.153000000000
20.486087959000,-0.149000000000
20.493775080000,-0.146000000000
20.501462201000,-0.141000000000
20.509149322000,-0.137000000000
20.516836443000,-0.137000000000
20.524523564000,-0.137000000000
20.532210685000,-0.137000000000
20.539897806000,-0.137000000000
20.547584927000,-0.137000000000
20.555272048000,-0.139000000000
20.562959169000,-0.139000000000
20.570646290000,-0.137000000000
20.578333411000,-0.137000000000
20.586020532000,-0.137000000000
20.593707653000,-0.137000000000
20.601394774000,-0.137000000000
20.609081895000,-0.137000000000
20.616769016000,-0.137000000000
20.624456137000,-0.144000000000
20.632143258000,-0.151000000000
20.639830379000,-0.151000000000
20.647517500000,-0.139000000000
20.655204621000,-0.125000000000
20.662891742000,-0.117000000000
20.670578863000,-0.103000000000
20.678265984000,-0.081000000000
20.685953105000,-0.081000000000
20.693640226000,-0.105000000000
20.701327347000,-0.115000000000
20.709014468000,-0.115000000000
20.716701589000,-0.117000000000
20.724388710000,-0.117000000000
20.732075899000,-0.110000000000
20.739763020000,-0.108000000000
20.747450141000,-0.117000000000
20.755137262000,-0.158000000000
20.762824383000,-0.141000000000
20.770511504000,0.163000000000
20.778198625000,0.716000000000
20.785885746000,0.923000000000
20.793572867000,0.391000000000
20.801259988000,-0.360000000000
20.808947109000,-0.550000000000
20.816634230000,-0.307000000000
20.824321351000,-0.230000000000
20.832008472000,-0.242000000000
20.839695593000,-0.144000000000
20.847382714000,-0.108000000000
20.855069835000,-0.129000000000
20.862756956000,-0.108000000000
20.870444077000,-0.081000000000
20.878131198000,-0.084000000000
20.885818319000,-0.076000000000
20.893505440000,-0.064000000000
20.901192561000,-0.057000000000
20.908879682000,-0.048000000000
20.916566803000,-0.036000000000
20.924253924000,-0.024000000000
20.931941045000,-0.009000000000
20.939628166000,0.009000000000
20.947315287000,0.028000000000
20.955002408000,0.055000000000
20.962689529000,0.076000000000
20.970376650000,0.091000000000
20.978063771000,0.101000000000
20.985750892000,0.098000000000
20.993438013000,0.091000000000
21.001125134000,0.086000000000
21.008812255000,0.074000000000
21.016499376000,0.052000000000
21.024186497000,0.021000000000
21.031873618000,-0.012000000000
21.039560739000,-0.043000000000
21.047247860000,-0.081000000000
21.054934981000,-0.120000000000
21.062622102000,-0.146000000000
21.070309223000,-0.168000000000
21.077996344000,-0.185000000000
21.085683465000,-0.187000000000
21.093370586000,-0.182000000000
21.101057707000,-0.185000000000
21.108744828000,-0.182000000000
21.116431949000,-0.175000000000
21.124119070000,-0.170000000000
21.131806191000,-0.175000000000
21.139493312000,-0.177000000000
21.147180433000,-0.173000000000
21.154867554000,-0.173000000000
21.162554675000,-0.175000000000
21.170241796000,-0.180000000000
21.177928917000,-0.182000000000
21.185616038000,-0.182000000000
21.193303159000,-0.187000000000
21.200990280000,-0.189000000000
21.208677401000,-0.187000000000
21.216364522000,-0.192000000000
21.224051643000,-0.197000000000
21.231738764000,-0.197000000000
21.239425885000,-0.199000000000
21.247113006000,-0.202000000000
21.254800127000,-0.206000000000
21.262487248000,-0.214000000000
21.270174369000,-0.214000000000
21.277861490000,-0.206000000000
21.285548611000,-0.199000000000
21.293235796000,-0.192000000000
21.300922708000,-0.182000000000
21.308609620000,-0.168000000000
21.316296532000,-0.158000000000
21.323983444000,-0.177000000000
21.331670356000,-0.199000000000
21.339357268000,-0.202000000000
21.347044180000,-0.204000000000
21.354731092000,-0.204000000000
21.362418004000,-0.192000000000
21.370104916000,-0.187000000000
21.377791828000,-0.204000000000
21.385478740000,-0.230000000000
21.393165652000,-0.211000000000
21.400852564000,0.064000000000
21.408539476000,0.606000000000
21.416226388000,0.788000000000
21.423913300000,0.180000000000
21.431600212000,-0.572000000000
21.439287124000,-0.699000000000
21.446974036000,-0.456000000000
21.454660948000,-0.387000000000
21.462347860000,-0.372000000000
21.470034772000,-0.250000000000
21.477721684000,-0.197000000000
21.485408596000,-0.221000000000
21.493095508000,-0.204000000000
21.500782420000,-0.175000000000
21.508469332000,-0.170000000000
21.516156244000,-0.163000000000
21.523843156000,-0.149000000000
21.531530068000,-0.144000000000
21.539216980000,-0.137000000000
21.546903892000,-0.125000000000
21.554590804000,-0.108000000000
21.562277716000,-0.088000000000
21.569964628000,-0.067000000000
21.577651540000,-0.043000000000
21.585338452000,-0.028000000000
21.593025364000,-0.002000000000
21.600712276000,0.024000000000
21.608399188000,0.026000000000
21.616086100000,0.019000000000
21.623773012000,0.019000000000
21.631459924000,0.016000000000
21.639146836000,0.009000000000
21.646833748000,-0.004000000000
21.654520660000,-0.036000000000
21.662207572000,-0.069000000000
21.669894484000,-0.105000000000
21.677581396000,-0.151000000000
21.685268308000,-0.204000000000
21.692955220000,-0.245000000000
21.700642132000,-0.269000000000
21.708329044000,-0.278000000000
21.716015956000,-0.286000000000
21.723702868000,-0.286000000000
21.731389780000,-0.274000000000
21.739076692000,-0.266000000000
21.746763604000,-0.262000000000
21.754450516000,-0.252000000000
21.762137428000,-0.247000000000
21.769824340000,-0.247000000000
21.777511252000,-0.240000000000
21.785198164000,-0.238000000000
21.792885076000,-0.245000000000
21.800571988000,-0.245000000000
21.808258900000,-0.247000000000
21.815945812000,-0.252000000000
21.823632724000,-0.254000000000
21.831319636000,-0.259000000000
21.839006548000,-0.266000000000
21.846693460000,-0.264000000000
21.854380436000,-0.257000000000
21.862067348000,-0.262000000000
21.869754260000,-0.274000000000
21.877441172000,-0.271000000000
21.885128084000,-0.266000000000
21.892814996000,-0.266000000000
21.900501908000,-0.257000000000
21.908188820000,-0.247000000000
21.915875732000,-0.235000000000
21.923562644000,-0.216000000000
21.931249556000,-0.202000000000
21.938936468000,-0.218000000000
21.946623380000,-0.233000000000
21.954310292000,-0.226000000000
21.961997204000,-0.221000000000
21.969684116000,-0.223000000000
21.977371028000,-0.218000000000
21.985057940000,-0.214000000000
21.992744852000,-0.221000000000
22.000431764000,-0.245000000000
22.008118676000,-0.194000000000
22.015805588000,0.146000000000
22.023492500000,0.682000000000
22.031179412000,0.733000000000
22.038866324000,0.016000000000
22.046553236000,-0.680000000000
22.054240148000,-0.678000000000
22.061927060000,-0.420000000000
22.069613972000,-0.389000000000
22.077300884000,-0.341000000000
22.084987796000,-0.199000000000
22.092674708000,-0.170000000000
22.100361620000,-0.192000000000
22.108048532000,-0.158000000000
22.115735444000,-0.137000000000
22.123422356000,-0.144000000000
22.131109268000,-0.134000000000
22.138796180000,-0.113000000000
22.146483092000,-0.103000000000
22.154170004000,-0.091000000000
22.161856916000,-0.072000000000
22.169543828000,-0.050000000000
22.177230740000,-0.040000000000
22.184917652000,-0.026000000000
22.192604564000,0.000000000000
22.200291476000,0.026000000000
22.207978388000,0.043000000000
22.215665300000,0.060000000000
22.223352212000,0.069000000000
22.231039124000,0.067000000000
22.238726036000,0.064000000000
22.246412948000,0.062000000000
22.254099860000,0.048000000000
22.261786772000,0.028000000000
22.269473684000,0.004000000000
22.277160596000,-0.028000000000
22.284847508000,-0.064000000000
22.292534420000,-0.108000000000
22.300221332000,-0.151000000000
22.307908244000,-0.185000000000
22.315595156000,-0.206000000000
22.323282068000,-0.216000000000
22.330968980000,-0.214000000000
22.338655892000,-0.209000000000
22.346342804000,-0.206000000000
22.354029716000,-0.199000000000
22.361716628000,-0.187000000000
22.369403540000,-0.180000000000
22.377090452000,-0.175000000000
22.384777364000,-0.175000000000
22.392464276000,-0.170000000000
22.400151188000,-0.168000000000
22.407838100000,-0.170000000000
22.415525072000,-0.173000000000
22.423212193000,-0.175000000000
22.430899314000,-0.177000000000
22.438586435000,-0.180000000000
22.446273556000,-0.182000000000
22.453960677000,-0.185000000000
22.461647798000,-0.185000000000
22.469334919000,-0.182000000000
22.477022040000,-0.185000000000
22.484709161000,-0.192000000000
22.492396282000,-0.199000000000
22.500083403000,-0.199000000000
22.507770524000,-0.187000000000
22.515457645000,-0.177000000000
22.523144766000,-0.170000000000
22.530831887000,-0.161000000000
22.538519008000,-0.141000000000
22.546206129000,-0.122000000000
22.553893250000,-0.134000000000
22.561580371000,-0.153000000000
22.569267492000,-0.153000000000
22.576954613000,-0.151000000000
22.584641734000,-0.153000000000
22.592328855000,-0.151000000000
22.600015976000,-0.144000000000
22.607703097000,-0.146000000000
22.615390218000,-0.170000000000
22.623077339000,-0.206000000000
22.630764460000,-0.074000000000
22.638451581000,0.399000000000
22.646138702000,0.858000000000
22.653825823000,0.694000000000
22.661512944000,-0.060000000000
22.669200065000,-0.584000000000
22.676887186000,-0.459000000000
22.684574307000,-0.254000000000
22.692261428000,-0.271000000000
22.699948549000,-0.218000000000
22.707635670000,-0.132000000000
22.715322791000,-0.146000000000
22.723009912000,-0.151000000000
22.730697033000,-0.115000000000
22.738384154000,-0.108000000000
22.746071275000,-0.110000000000
22.753758396000,-0.091000000000
22.761445517000,-0.081000000000
22.769132638000,-0.079000000000
22.776819759000,-0.062000000000
22.784506880000,-0.043000000000
22.792194001000,-0.036000000000
22.799881122000,-0.021000000000
22.807568243000,0.002000000000
22.815255364000,0.021000000000
22.822942485000,0.038000000000
22.830629606000,0.062000000000
22.838316727000,0.079000000000
22.846003848000,0.079000000000
22.853690969000,0.074000000000
22.861378090000,0.072000000000
22.869065211000,0.060000000000
22.876752332000,0.045000000000
22.884439453000,0.026000000000
22.892126574000,0.000000000000
22.899813695000,-0.036000000000
22.907500816000,-0.069000000000
22.915187937000,-0.101000000000
22.922875058000,-0.129000000000
22.930562179000,-0.149000000000
22.938249300000,-0.163000000000
22.945936421000,-0.168000000000
22.953623542000,-0.165000000000
22.961310663000,-0.163000000000
22.968997784000,-0.158000000000
22.976684969000,-0.153000000000
22.984372090000,-0.149000000000
22.992059211000,-0.149000000000
22.999746332000,-0.146000000000
23.007433453000,-0.144000000000
23.015120574000,-0.146000000000
23.022807695000,-0.146000000000
23.030494816000,-0.146000000000
23.038181937000,-0.146000000000
23.045869058000,-0.151000000000
23.053556179000,-0.153000000000
23.061243300000,-0.153000000000
23.068930421000,-0.156000000000
23.076617542000,-0.158000000000
23.084304663000,-0.161000000000
23.091991784000,-0.158000000000
23.099678905000,-0.161000000000
23.107366026000,-0.168000000000
23.115053147000,-0.175000000000
23.122740268000,-0.175000000000
23.130427389000,-0.173000000000
23.138114510000,-0.168000000000
23.145801631000,-0.151000000000
23.153488752000,-0.141000000000
23.161175873000,-0.134000000000
23.168862994000,-0.115000000000
23.176550115000,-0.110000000000
23.184237236000,-0.137000000000
23.191924357000,-0.149000000000
23.199611478000,-0.144000000000
23.207298599000,-0.144000000000
23.214985720000,-0.144000000000
23.222672841000,-0.137000000000
23.230359962000,-0.137000000000
23.238047083000,-0.151000000000
23.245734204000,-0.192000000000
23.253421325000,-0.173000000000
23.261108446000,0.151000000000
23.268795567000,0.707000000000
23.276482688000,0.880000000000
23.284169809000,0.322000000000
23.291856930000,-0.411000000000
23.299544051000,-0.572000000000
23.307231172000,-0.331000000000
23.314918293000,-0.259000000000
23.322605414000,-0.262000000000
23.330292535000,-0.165000000000
23.337979656000,-0.137000000000
23.345666777000,-0.158000000000
23.353353898000,-0.134000000000
23.361041019000,-0.113000000000
23.368728140000,-0.115000000000
23.376415261000,-0.108000000000
23.384102382000,-0.091000000000
23.391789503000,-0.084000000000
23.399476624000,-0.076000000000
23.407163745000,-0.062000000000
23.414850866000,-0.045000000000
23.422537987000,-0.028000000000
23.430225108000,-0.009000000000
23.437912229000,0.009000000000
23.445599350000,0.028000000000
23.453286471000,0.052000000000
23.460973592000,0.069000000000
23.468660713000,0.076000000000
23.476347834000,0.079000000000
23.484034955000,0.079000000000
23.491722076000,0.072000000000
23.499409197000,0.057000000000
23.507096318000,0.036000000000
23.514783439000,0.014000000000
23.522470560000,-0.016000000000
23.530157681000,-0.060000000000
23.537844866000,-0.101000000000
23.545531987000,-0.129000000000
23.553219108000,-0.158000000000
23.560906229000,-0.180000000000
23.568593350000,-0.187000000000
23.576280471000,-0.192000000000
23.583967592000,-0.197000000000
23.591654713000,-0.189000000000
23.599341834000,-0.182000000000
23.607028955000,-0.185000000000
23.614716076000,-0.185000000000
23.622403197000,-0.173000000000
23.630090318000,-0.168000000000
23.637777439000,-0.173000000000
23.645464560000,-0.177000000000
23.653151681000,-0.177000000000
23.660838802000,-0.177000000000
23.668525923000,-0.180000000000
23.676213044000,-0.180000000000
23.683900165000,-0.182000000000
23.691587286000,-0.185000000000
23.699274407000,-0.185000000000
23.706961528000,-0.187000000000
23.714648649000,-0.189000000000
23.722335770000,-0.187000000000
23.730022891000,-0.192000000000
23.737710012000,-0.202000000000
23.745397133000,-0.199000000000
23.753084254000,-0.197000000000
23.760771375000,-0.199000000000
23.768458496000,-0.199000000000
23.776145617000,-0.185000000000
23.783832738000,-0.173000000000
23.791519859000,-0.158000000000
23.799206980000,-0.139000000000
23.806894101000,-0.137000000000
23.814581222000,-0.158000000000
23.822268343000,-0.173000000000
23.829955464000,-0.168000000000
23.837642585000,-0.168000000000
23.845329706000,-0.170000000000
23.853016827000,-0.161000000000
23.860703948000,-0.163000000000
23.868391069000,-0.173000000000
23.876078190000,-0.189000000000
23.883765311000,-0.129000000000
23.891452432000,0.242000000000
23.899139553000,0.769000000000
23.906826674000,0.731000000000
23.914513795000,-0.028000000000
23.922200916000,-0.651000000000
23.929888037000,-0.591000000000
23.937575158000,-0.365000000000
23.945262279000,-0.351000000000
23.952949400000,-0.288000000000
23.960636521000,-0.158000000000
23.968323642000,-0.141000000000
23.976010763000,-0.156000000000
23.983697884000,-0.122000000000
23.991385005000,-0.110000000000
23.999072126000,-0.117000000000
24.006759247000,-0.098000000000
24.014446368000,-0.079000000000
24.022133489000,-0.074000000000
24.029820610000,-0.067000000000
24.037507731000,-0.050000000000
24.045194852000,-0.038000000000
24.052881973000,-0.024000000000
24.060569094000,0.004000000000
24.068256215000,0.031000000000
24.075943336000,0.045000000000
24.083630457000,0.067000000000
24.091317578000,0.084000000000
24.099004767000,0.093000000000
24.106691888000,0.091000000000
24.114379009000,0.091000000000
24.122066130000,0.091000000000
24.129753251000,0.081000000000
24.137440372000,0.060000000000
24.145127493000,0.033000000000
24.152814614000,-0.004000000000
24.160501735000,-0.045000000000
24.168188856000,-0.084000000000
24.175875977000,-0.132000000000
24.183563098000,-0.177000000000
24.191250219000,-0.197000000000
24.198937340000,-0.204000000000
24.206624461000,-0.209000000000
24.214311582000,-0.209000000000
24.221998703000,-0.204000000000
24.229685824000,-0.197000000000
24.237372945000,-0.187000000000
24.245060066000,-0.185000000000
24.252747187000,-0.182000000000
24.260434308000,-0.175000000000
24.268121429000,-0.175000000000
24.275808550000,-0.177000000000
24.283495671000,-0.173000000000
24.291182792000,-0.177000000000
24.298869913000,-0.189000000000
24.306557034000,-0.192000000000
24.314244155000,-0.185000000000
24.321931276000,-0.187000000000
24.329618397000,-0.197000000000
24.337305518000,-0.199000000000
24.344992639000,-0.199000000000
24.352679760000,-0.206000000000
24.360366881000,-0.209000000000
24.368054002000,-0.209000000000
24.375741123000,-0.209000000000
24.383428244000,-0.197000000000
24.391115365000,-0.189000000000
24.398802486000,-0.185000000000
24.406489607000,-0.170000000000
24.414176728000,-0.149000000000
24.421863849000,-0.151000000000
24.429550970000,-0.173000000000
24.437238091000,-0.182000000000
24.444925212000,-0.177000000000
24.452612333000,-0.175000000000
24.460299454000,-0.173000000000
24.467986575000,-0.170000000000
24.475673696000,-0.173000000000
24.483360817000,-0.185000000000
24.491047938000,-0.189000000000
24.498735059000,-0.007000000000
24.506422180000,0.497000000000
24.514109301000,0.853000000000
24.521796422000,0.440000000000
24.529483543000,-0.391000000000
24.537170664000,-0.711000000000
24.544857785000,-0.471000000000
24.552544906000,-0.339000000000
24.560232027000,-0.348000000000
24.567919148000,-0.221000000000
24.575606269000,-0.129000000000
24.583293390000,-0.156000000000
24.590980511000,-0.146000000000
24.598667632000,-0.105000000000
24.606354753000,-0.103000000000
24.614041874000,-0.101000000000
24.621728995000,-0.081000000000
24.629416116000,-0.072000000000
24.637103237000,-0.064000000000
24.644790358000,-0.050000000000
24.652477479000,-0.038000000000
24.660164664000,-0.019000000000
24.667851785000,0.002000000000
24.675538906000,0.016000000000
24.683226027000,0.036000000000
24.690913148000,0.064000000000
24.698600269000,0.086000000000
24.706287390000,0.093000000000
24.713974511000,0.096000000000
24.721661632000,0.093000000000
24.729348753000,0.088000000000
24.737035874000,0.081000000000
24.744722995000,0.069000000000
24.752410116000,0.048000000000
24.760097237000,0.019000000000
24.767784358000,-0.021000000000
24.775471479000,-0.064000000000
24.783158600000,-0.105000000000
24.790845721000,-0.144000000000
24.798532842000,-0.177000000000
24.806219963000,-0.194000000000
24.813907084000,-0.197000000000
24.821594205000,-0.192000000000
24.829281326000,-0.189000000000
24.836968447000,-0.185000000000
24.844655568000,-0.175000000000
24.852342689000,-0.170000000000
24.860029810000,-0.170000000000
24.867716931000,-0.165000000000
24.875404052000,-0.158000000000
24.883091173000,-0.161000000000
24.890778294000,-0.165000000000
24.898465415000,-0.165000000000
24.906152536000,-0.165000000000
24.913839657000,-0.173000000000
24.921526778000,-0.170000000000
24.929213899000,-0.170000000000
24.936901020000,-0.180000000000
24.944588141000,-0.185000000000
24.952275262000,-0.182000000000
24.959962383000,-0.182000000000
24.967649504000,-0.185000000000
24.975336625000,-0.192000000000
24.983023746000,-0.197000000000
24.990710867000,-0.197000000000
24.998397988000,-0.189000000000
25.006085109000,-0.180000000000
25.013772230000,-0.173000000000
25.021459351000,-0.153000000000
25.029146472000,-0.134000000000
25.036833593000,-0.137000000000
25.044520714000,-0.161000000000
25.052207835000,-0.170000000000
25.059894956000,-0.163000000000
25.067582077000,-0.165000000000
25.075269198000,-0.163000000000
25.082956319000,-0.153000000000
25.090643440000,-0.151000000000
25.098330561000,-0.168000000000
25.106017682000,-0.206000000000
25.113704803000,-0.158000000000
25.121391924000,0.189000000000
25.129079045000,0.716000000000
25.136766166000,0.808000000000
25.144453287000,0.185000000000
25.152140408000,-0.517000000000
25.159827529000,-0.581000000000
25.167514650000,-0.327000000000
25.175201771000,-0.290000000000
25.182888892000,-0.274000000000
25.190576013000,-0.163000000000
25.198263134000,-0.151000000000
25.205950255000,-0.175000000000
25.213637376000,-0.139000000000
25.221324561000,-0.117000000000
25.229011543000,-0.127000000000
25.236698525000,-0.117000000000
25.244385507000,-0.101000000000
25.252072489000,-0.093000000000
25.259759471000,-0.086000000000
25.267446453000,-0.074000000000
25.275133435000,-0.060000000000
25.282820417000,-0.045000000000
25.290507399000,-0.026000000000
25.298194381000,-0.004000000000
25.305881363000,0.019000000000
25.313568345000,0.036000000000
25.321255327000,0.048000000000
25.328942309000,0.060000000000
25.336629291000,0.064000000000
25.344316273000,0.062000000000
25.352003255000,0.057000000000
25.359690237000,0.048000000000
25.367377219000,0.028000000000
25.375064201000,-0.002000000000
25.382751183000,-0.033000000000
25.390438165000,-0.064000000000
25.398125147000,-0.096000000000
25.405812129000,-0.129000000000
25.413499111000,-0.163000000000
25.421186093000,-0.182000000000
25.428873075000,-0.189000000000
25.436560057000,-0.187000000000
25.444247039000,-0.185000000000
25.451934021000,-0.185000000000
25.459621003000,-0.180000000000
25.467307985000,-0.173000000000
25.474994967000,-0.170000000000
25.482681949000,-0.168000000000
25.490368931000,-0.165000000000
25.498055913000,-0.165000000000
25.505742895000,-0.163000000000
25.513429877000,-0.161000000000
25.521116859000,-0.161000000000
25.528803841000,-0.168000000000
25.536490823000,-0.175000000000
25.544177805000,-0.170000000000
25.551864787000,-0.170000000000
25.559551769000,-0.175000000000
25.567238751000,-0.175000000000
25.574925733000,-0.175000000000
25.582612715000,-0.182000000000
25.590299697000,-0.189000000000
25.597986679000,-0.189000000000
25.605673661000,-0.192000000000
25.613360643000,-0.189000000000
25.621047625000,-0.170000000000
25.628734607000,-0.158000000000
25.636421589000,-0.153000000000
25.644108571000,-0.132000000000
25.651795553000,-0.125000000000
25.659482535000,-0.146000000000
25.667169517000,-0.158000000000
25.674856499000,-0.158000000000
25.682543481000,-0.158000000000
25.690230463000,-0.156000000000
25.697917445000,-0.149000000000
25.705604427000,-0.149000000000
25.713291409000,-0.161000000000
25.720978391000,-0.194000000000
25.728665373000,-0.197000000000
25.736352355000,0.040000000000
25.744039337000,0.572000000000
25.751726319000,0.882000000000
25.759413301000,0.473000000000
25.767100283000,-0.293000000000
25.774787265000,-0.591000000000
25.782474288000,-0.384000000000
25.790161479000,-0.266000000000
25.797848670000,-0.276000000000
25.805535861000,-0.192000000000
25.813223052000,-0.141000000000
25.820910243000,-0.163000000000
25.828597434000,-0.146000000000
25.836284625000,-0.120000000000
25.843971816000,-0.117000000000
25.851659007000,-0.113000000000
25.859346198000,-0.101000000000
25.867033389000,-0.091000000000
25.874720580000,-0.076000000000
25.882407771000,-0.067000000000
25.890094962000,-0.060000000000
25.897782153000,-0.040000000000
25.905469344000,-0.019000000000
25.913156535000,-0.002000000000
25.920843726000,0.019000000000
25.928530917000,0.043000000000
25.936218108000,0.060000000000
25.943905299000,0.067000000000
25.951592490000,0.072000000000
25.959279681000,0.072000000000
25.966966872000,0.062000000000
25.974654063000,0.050000000000
25.982341254000,0.033000000000
25.990028445000,0.009000000000
25.997715636000,-0.016000000000
26.005402827000,-0.050000000000
26.013090018000,-0.086000000000
26.020777209000,-0.115000000000
26.028464400000,-0.146000000000
26.036151591000,-0.170000000000
26.043838782000,-0.182000000000
26.051525973000,-0.182000000000
26.059213164000,-0.182000000000
26.066900355000,-0.182000000000
26.074587546000,-0.177000000000
26.082274737000,-0.175000000000
26.089961928000,-0.173000000000
26.097649119000,-0.168000000000
26.105336310000,-0.168000000000
26.113023501000,-0.168000000000
26.120710692000,-0.163000000000
26.128397883000,-0.163000000000
26.136085074000,-0.168000000000
26.143772265000,-0.175000000000
26.151459456000,-0.170000000000
26.159146647000,-0.165000000000
26.166833838000,-0.165000000000
26.174521029000,-0.168000000000
26.182208220000,-0.165000000000
26.189895411000,-0.173000000000
26.197582602000,-0.177000000000
26.205269793000,-0.173000000000
26.212956984000,-0.182000000000
26.220644175000,-0.194000000000
26.228331366000,-0.194000000000
26.236018557000,-0.192000000000
26.243705748000,-0.192000000000
26.251392939000,-0.177000000000
26.259080130000,-0.161000000000
26.266767321000,-0.151000000000
26.274454512000,-0.137000000000
26.282141703000,-0.127000000000
26.289828894000,-0.144000000000
26.297516085000,-0.161000000000
26.305203276000,-0.158000000000
26.312890467000,-0.158000000000
26.320577658000,-0.158000000000
26.328264849000,-0.151000000000
26.335952040000,-0.146000000000
26.343639272000,-0.158000000000
26.351326045000,-0.187000000000
26.359012818000,-0.189000000000
26.366699591000,0.031000000000
26.374386364000,0.545000000000
26.382073137000,0.841000000000
26.389759910000,0.411000000000
26.397446683000,-0.339000000000
26.405133456000,-0.608000000000
26.412820229000,-0.399000000000
26.420507002000,-0.293000000000
26.428193775000,-0.298000000000
26.435880548000,-0.197000000000
26.443567321000,-0.137000000000
26.451254094000,-0.161000000000
26.458940867000,-0.149000000000
26.466627640000,-0.117000000000
26.474314413000,-0.117000000000
26.482001186000,-0.113000000000
26.489687959000,-0.093000000000
26.497374732000,-0.086000000000
26.505061505000,-0.079000000000
26.512748278000,-0.064000000000
26.520435051000,-0.052000000000
26.528121824000,-0.043000000000
26.535808597000,-0.024000000000
26.543495370000,-0.007000000000
26.551182143000,0.009000000000
26.558868916000,0.031000000000
26.566555689000,0.050000000000
26.574242462000,0.057000000000
26.581929235000,0.060000000000
26.589616008000,0.060000000000
26.597302781000,0.052000000000
26.604989554000,0.040000000000
26.612676327000,0.026000000000
26.620363100000,0.007000000000
26.628049873000,-0.016000000000
26.635736646000,-0.050000000000
26.643423419000,-0.091000000000
26.651110192000,-0.137000000000
26.658796965000,-0.175000000000
26.666483738000,-0.197000000000
26.674170511000,-0.214000000000
26.681857284000,-0.226000000000
26.689544057000,-0.228000000000
26.697230830000,-0.218000000000
26.704917603000,-0.216000000000
26.712604376000,-0.218000000000
26.720291149000,-0.218000000000
26.727977922000,-0.214000000000
26.735664695000,-0.214000000000
26.743351468000,-0.216000000000
26.751038241000,-0.218000000000
26.758725014000,-0.218000000000
26.766411787000,-0.221000000000
26.774098560000,-0.226000000000
26.781785333000,-0.226000000000
26.789472106000,-0.226000000000
26.797158879000,-0.233000000000
26.804845652000,-0.238000000000
26.812532425000,-0.240000000000
26.820219198000,-0.245000000000
26.827905971000,-0.245000000000
26.835592744000,-0.247000000000
26.843279517000,-0.250000000000
26.850966290000,-0.250000000000
26.858653063000,-0.252000000000
26.866339836000,-0.259000000000
26.874026609000,-0.257000000000
26.881713382000,-0.245000000000
26.889400155000,-0.238000000000
26.897086928000,-0.233000000000
26.904773734000,-0.216000000000
26.912460855000,-0.197000000000
26.920147976000,-0.204000000000
26.927835097000,-0.230000000000
26.935522218000,-0.238000000000
26.943209339000,-0.230000000000
26.950896460000,-0.230000000000
26.958583581000,-0.226000000000
26.966270702000,-0.218000000000
26.973957823000,-0.226000000000
26.981644944000,-0.240000000000
26.989332065000,-0.252000000000
26.997019186000,-0.132000000000
27.004706307000,0.300000000000
27.012393428000,0.731000000000
27.020080549000,0.492000000000
27.027767670000,-0.283000000000
27.035454791000,-0.723000000000
27.043141912000,-0.567000000000
27.050829033000,-0.394000000000
27.058516154000,-0.404000000000
27.066203275000,-0.317000000000
27.073890396000,-0.204000000000
27.081577517000,-0.214000000000
27.089264638000,-0.226000000000
27.096951759000,-0.185000000000
27.104638880000,-0.168000000000
27.112326001000,-0.170000000000
27.120013122000,-0.156000000000
27.127700243000,-0.141000000000
27.135387364000,-0.141000000000
27.143074485000,-0.132000000000
27.150761606000,-0.105000000000
27.158448727000,-0.081000000000
27.166135848000,-0.062000000000
27.173822969000,-0.052000000000
27.181510090000,-0.033000000000
27.189197211000,-0.002000000000
27.196884332000,0.012000000000
27.204571453000,0.016000000000
27.212258574000,0.028000000000
27.219945695000,0.033000000000
27.227632816000,0.031000000000
27.235319937000,0.026000000000
27.243007058000,0.024000000000
27.250694179000,0.007000000000
27.258381300000,-0.021000000000
27.266068421000,-0.057000000000
27.273755542000,-0.098000000000
27.281442663000,-0.139000000000
27.289129784000,-0.185000000000
27.296816905000,-0.226000000000
27.304504026000,-0.245000000000
27.312191147000,-0.252000000000
27.319878268000,-0.257000000000
27.327565389000,-0.254000000000
27.335252510000,-0.245000000000
27.342939631000,-0.240000000000
27.350626752000,-0.233000000000
27.358313873000,-0.226000000000
27.366000994000,-0.226000000000
27.373688115000,-0.223000000000
27.381375236000,-0.216000000000
27.389062357000,-0.209000000000
27.396749478000,-0.211000000000
27.404436599000,-0.223000000000
27.412123720000,-0.226000000000
27.419810841000,-0.221000000000
27.427497962000,-0.223000000000
27.435185083000,-0.233000000000
27.442872204000,-0.235000000000
27.450559325000,-0.233000000000
27.458246446000,-0.238000000000
27.465933635000,-0.242000000000
27.473620478000,-0.245000000000
27.481307321000,-0.242000000000
27.488994164000,-0.233000000000
27.496681007000,-0.218000000000
27.504367850000,-0.214000000000
27.512054693000,-0.202000000000
27.519741536000,-0.182000000000
27.527428379000,-0.180000000000
27.535115222000,-0.197000000000
27.542802065000,-0.206000000000
27.550488908000,-0.204000000000
27.558175751000,-0.202000000000
27.565862594000,-0.197000000000
27.573549437000,-0.192000000000
27.581236280000,-0.194000000000
27.588923123000,-0.209000000000
27.596609966000,-0.226000000000
27.604296809000,-0.101000000000
27.611983652000,0.353000000000
27.619670495000,0.793000000000
27.627357338000,0.538000000000
27.635044181000,-0.266000000000
27.642731024000,-0.702000000000
27.650417867000,-0.521000000000
27.658104710000,-0.346000000000
27.665791553000,-0.358000000000
27.673478396000,-0.266000000000
27.681165239000,-0.161000000000
27.688852082000,-0.168000000000
27.696538925000,-0.170000000000
27.704225768000,-0.132000000000
27.711912611000,-0.120000000000
27.719599454000,-0.120000000000
27.727286297000,-0.105000000000
27.734973140000,-0.091000000000
27.742659983000,-0.076000000000
27.750346826000,-0.064000000000
27.758033669000,-0.055000000000
27.765720512000,-0.040000000000
27.773407355000,-0.014000000000
27.781094198000,0.007000000000
27.788781041000,0.026000000000
27.796467884000,0.050000000000
27.804154727000,0.072000000000
27.811841570000,0.079000000000
27.819528413000,0.086000000000
27.827215256000,0.091000000000
27.834902099000,0.088000000000
27.842588942000,0.081000000000
27.850275785000,0.072000000000
27.857962628000,0.055000000000
27.865649471000,0.028000000000
27.873336314000,-0.007000000000
27.881023157000,-0.052000000000
27.888710000000,-0.096000000000
27.896396843000,-0.137000000000
27.904083686000,-0.170000000000
27.911770529000,-0.187000000000
27.919457372000,-0.197000000000
27.927144215000,-0.197000000000
27.934831058000,-0.192000000000
27.942517901000,-0.187000000000
27.950204744000,-0.182000000000
27.957891587000,-0.175000000000
27.965578430000,-0.170000000000
27.973265273000,-0.165000000000
27.980952116000,-0.161000000000
27.988638959000,-0.161000000000
27.996325802000,-0.158000000000
28.004012645000,-0.156000000000
28.011699488000,-0.163000000000
28.019386331000,-0.165000000000
28.027073188000,-0.165000000000
28.034760379000,-0.175000000000
28.042447570000,-0.180000000000
28.050134761000,-0.180000000000
28.057821952000,-0.177000000000
28.065509143000,-0.182000000000
28.073196334000,-0.192000000000
28.080883525000,-0.194000000000
28.088570716000,-0.192000000000
28.096257907000,-0.185000000000
28.103945098000,-0.173000000000
28.111632289000,-0.161000000000
28.119319480000,-0.149000000000
28.127006671000,-0.132000000000
28.134693862000,-0.132000000000
28.142381053000,-0.151000000000
28.150068244000,-0.161000000000
28.157755435000,-0.158000000000
28.165442626000,-0.158000000000
28.173129817000,-0.161000000000
28.180817008000,-0.161000000000
28.188504199000,-0.158000000000
28.196191390000,-0.168000000000
28.203878581000,-0.204000000000
28.211565772000,-0.115000000000
28.219252963000,0.305000000000
28.226940154000,0.803000000000
28.234627345000,0.743000000000
28.242314536000,0.033000000000
28.250001727000,-0.555000000000
28.257688918000,-0.500000000000
28.265376109000,-0.286000000000
28.273063300000,-0.278000000000
28.280750491000,-0.238000000000
28.288437682000,-0.151000000000
28.296124873000,-0.153000000000
28.303812064000,-0.156000000000
28.311499255000,-0.127000000000
28.319186446000,-0.115000000000
28.326873637000,-0.110000000000
28.334560828000,-0.103000000000
28.342248019000,-0.093000000000
28.349935210000,-0.086000000000
28.357622401000,-0.076000000000
28.365309592000,-0.060000000000
28.372996783000,-0.043000000000
28.380683974000,-0.033000000000
28.388371165000,-0.019000000000
28.396058356000,0.004000000000
28.403745547000,0.028000000000
28.411432738000,0.045000000000
28.419119929000,0.057000000000
28.426807120000,0.069000000000
28.434494311000,0.074000000000
28.442181502000,0.069000000000
28.449868693000,0.057000000000
28.457555884000,0.045000000000
28.465243075000,0.033000000000
28.472930266000,0.002000000000
28.480617457000,-0.038000000000
28.488304648000,-0.064000000000
28.495991839000,-0.093000000000
28.503679030000,-0.132000000000
28.511366221000,-0.158000000000
28.519053412000,-0.168000000000
28.526740603000,-0.170000000000
28.534427794000,-0.175000000000
28.542114985000,-0.180000000000
28.549802176000,-0.180000000000
28.557489367000,-0.175000000000
28.565176558000,-0.170000000000
28.572863749000,-0.168000000000
28.580550940000,-0.163000000000
28.588238172000,-0.161000000000
28.595925084000,-0.161000000000
28.603611996000,-0.158000000000
28.611298908000,-0.158000000000
28.618985820000,-0.165000000000
28.626672732000,-0.170000000000
28.634359644000,-0.168000000000
28.642046556000,-0.168000000000
28.649733468000,-0.170000000000
28.657420380000,-0.170000000000
28.665107292000,-0.170000000000
28.672794204000,-0.177000000000
28.680481116000,-0.185000000000
28.688168028000,-0.192000000000
28.695854940000,-0.194000000000
28.703541852000,-0.182000000000
28.711228764000,-0.165000000000
28.718915676000,-0.158000000000
28.726602588000,-0.146000000000
28.734289500000,-0.125000000000
28.741976412000,-0.122000000000
28.749663324000,-0.144000000000
28.757350236000,-0.156000000000
28.765037148000,-0.156000000000
28.772724060000,-0.158000000000
28.780410972000,-0.156000000000
28.788097884000,-0.151000000000
28.795784796000,-0.153000000000
28.803471708000,-0.168000000000
28.811158620000,-0.204000000000
28.818845532000,-0.182000000000
28.826532444000,0.132000000000
28.834219356000,0.680000000000
28.841906268000,0.853000000000
28.849593180000,0.300000000000
28.857280092000,-0.413000000000
28.864967004000,-0.565000000000
28.872653916000,-0.346000000000
28.880340828000,-0.281000000000
28.888027740000,-0.271000000000
28.895714652000,-0.177000000000
28.903401564000,-0.153000000000
28.911088476000,-0.173000000000
28.918775388000,-0.146000000000
28.926462300000,-0.125000000000
28.934149212000,-0.127000000000
28.941836124000,-0.115000000000
28.949523036000,-0.101000000000
28.957209948000,-0.096000000000
28.964896860000,-0.086000000000
28.972583772000,-0.072000000000
28.980270684000,-0.057000000000
28.987957596000,-0.043000000000
28.995644508000,-0.026000000000
29.003331420000,-0.002000000000
29.011018332000,0.016000000000
29.018705244000,0.036000000000
29.026392156000,0.052000000000
29.034079068000,0.062000000000
29.041765980000,0.062000000000
29.049452892000,0.060000000000
29.057139804000,0.052000000000
29.064826716000,0.038000000000
29.072513628000,0.021000000000
29.080200540000,0.002000000000
29.087887452000,-0.026000000000
29.095574364000,-0.060000000000
29.103261276000,-0.096000000000
29.110948188000,-0.127000000000
29.118635100000,-0.156000000000
29.126322012000,-0.180000000000
29.134008924000,-0.189000000000
29.141695836000,-0.192000000000
29.149382808000,-0.189000000000
29.157069929000,-0.187000000000
29.164757050000,-0.185000000000
29.172444171000,-0.180000000000
29.180131292000,-0.177000000000
29.187818413000,-0.170000000000
29.195505534000,-0.168000000000
29.203192655000,-0.173000000000
29.210879776000,-0.170000000000
29.218566897000,-0.165000000000
29.226254018000,-0.173000000000
29.233941139000,-0.182000000000
29.241628260000,-0.177000000000
29.249315381000,-0.177000000000
29.257002502000,-0.180000000000
29.264689623000,-0.185000000000
29.272376744000,-0.182000000000
