time,LSB
0.000000000000,-0.017000000000
0.007687539000,-0.017000000000
0.015375078000,-0.002000000000
0.023062617000,-0.002000000000
0.030750156000,-0.009000000000
0.038437695000,-0.009000000000
0.046125234000,-0.017000000000
0.053812773000,-0.022000000000
0.061500312000,-0.014000000000
0.069187851000,-0.014000000000
0.076875390000,-0.019000000000
0.084562929000,-0.007000000000
0.092250468000,0.012000000000
0.099938007000,0.022000000000
0.107625546000,0.032000000000
0.115313085000,0.027000000000
0.123000624000,0.004000000000
0.130688163000,0.002000000000
0.138375702000,0.004000000000
0.146063241000,-0.007000000000
0.153750780000,-0.002000000000
0.161438319000,0.017000000000
0.169125858000,0.004000000000
0.176813397000,-0.024000000000
0.184500936000,-0.036000000000
0.192188475000,-0.009000000000
0.199876014000,0.216000000000
0.207563553000,0.665000000000
0.215251092000,0.828000000000
0.222938631000,0.350000000000
0.230626170000,-0.231000000000
0.238313709000,-0.315000000000
0.246001248000,-0.157000000000
0.253688855000,-0.138000000000
0.261376812000,-0.110000000000
0.269064769000,-0.019000000000
0.276752726000,-0.012000000000
0.284440683000,-0.036000000000
0.292128640000,-0.009000000000
0.299816597000,0.009000000000
0.307504554000,0.002000000000
0.315192511000,0.004000000000
0.322880468000,0.014000000000
0.330568425000,0.017000000000
0.338256382000,0.022000000000
0.345944339000,0.022000000000
0.353632296000,0.019000000000
0.361320253000,0.034000000000
0.369008210000,0.041000000000
0.376696167000,0.039000000000
0.384384124000,0.049000000000
0.392072081000,0.056000000000
0.399760038000,0.054000000000
0.407447995000,0.064000000000
0.415135952000,0.078000000000
0.422823909000,0.083000000000
0.430511866000,0.093000000000
0.438199823000,0.110000000000
0.445887780000,0.123000000000
0.453575737000,0.130000000000
0.461263694000,0.130000000000
0.468951651000,0.133000000000
0.476639608000,0.143000000000
0.484327565000,0.133000000000
0.492015522000,0.108000000000
0.499703479000,0.081000000000
0.507391436000,0.054000000000
0.515079393000,0.014000000000
0.522767350000,-0.022000000000
0.530455307000,-0.049000000000
0.538143264000,-0.071000000000
0.545831221000,-0.088000000000
0.553519178000,-0.098000000000
0.561207135000,-0.101000000000
0.568895092000,-0.091000000000
0.576583049000,-0.091000000000
0.584271006000,-0.091000000000
0.591958963000,-0.086000000000
0.599646920000,-0.083000000000
0.607334877000,-0.081000000000
0.615022834000,-0.073000000000
0.622710791000,-0.073000000000
0.630398748000,-0.078000000000
0.638086705000,-0.076000000000
0.645774662000,-0.061000000000
0.653462619000,-0.059000000000
0.661150576000,-0.069000000000
0.668838533000,-0.076000000000
0.676526490000,-0.081000000000
0.684214447000,-0.078000000000
0.691902404000,-0.076000000000
0.699590361000,-0.076000000000
0.707278318000,-0.078000000000
0.714966275000,-0.073000000000
0.722654232000,-0.069000000000
0.730342189000,-0.073000000000
0.738030146000,-0.081000000000
0.745718103000,-0.081000000000
0.753406060000,-0.083000000000
0.761094017000,-0.081000000000
0.768781974000,-0.073000000000
0.776469931000,-0.071000000000
0.784157888000,-0.073000000000
0.791845845000,-0.073000000000
0.799533802000,-0.069000000000
0.807221759000,-0.071000000000
0.814909788000,-0.076000000000
0.822597676000,-0.078000000000
0.830285564000,-0.073000000000
0.837973452000,-0.069000000000
0.845661340000,-0.071000000000
0.853349228000,-0.076000000000
0.861037116000,-0.069000000000
0.868725004000,-0.056000000000
0.876412892000,-0.066000000000
0.884100780000,-0.081000000000
0.891788668000,-0.081000000000
0.899476556000,-0.078000000000
0.907164444000,-0.078000000000
0.914852332000,-0.076000000000
0.922540220000,-0.071000000000
0.930228108000,-0.076000000000
0.937915996000,-0.073000000000
0.945603884000,-0.061000000000
0.953291772000,-0.059000000000
0.960979660000,-0.069000000000
0.968667548000,-0.073000000000
0.976355436000,-0.078000000000
0.984043324000,-0.083000000000
0.991731212000,-0.091000000000
0.999419100000,-0.083000000000
1.007106988000,-0.066000000000
1.014794876000,-0.059000000000
1.022482764000,-0.049000000000
1.030170652000,-0.027000000000
1.037858540000,-0.039000000000
1.045546428000,-0.071000000000
1.053234316000,-0.073000000000
1.060922204000,-0.069000000000
1.068610092000,-0.076000000000
1.076297980000,-0.076000000000
1.083985868000,-0.069000000000
1.091673756000,-0.064000000000
1.099361644000,-0.081000000000
1.107049532000,-0.110000000000
1.114737420000,-0.069000000000
1.122425308000,0.221000000000
1.130113196000,0.668000000000
1.137801084000,0.739000000000
1.145488972000,0.204000000000
1.153176860000,-0.323000000000
1.160864748000,-0.337000000000
1.168552636000,-0.199000000000
1.176240524000,-0.204000000000
1.183928412000,-0.170000000000
1.191616300000,-0.098000000000
1.199304188000,-0.106000000000
1.206992076000,-0.106000000000
1.214679964000,-0.076000000000
1.222367852000,-0.076000000000
1.230055740000,-0.078000000000
1.237743628000,-0.073000000000
1.245431516000,-0.073000000000
1.253119404000,-0.061000000000
1.260807292000,-0.046000000000
1.268495180000,-0.051000000000
1.276183068000,-0.064000000000
1.283870956000,-0.054000000000
1.291558844000,-0.041000000000
1.299246732000,-0.039000000000
1.306934620000,-0.029000000000
1.314622508000,-0.014000000000
1.322310396000,-0.014000000000
1.329998284000,-0.014000000000
1.337686172000,0.007000000000
1.345374060000,0.024000000000
1.353061948000,0.032000000000
1.360749836000,0.039000000000
1.368437724000,0.051000000000
1.376125638000,0.054000000000
1.383813247000,0.054000000000
1.391500856000,0.069000000000
1.399188465000,0.076000000000
1.406876074000,0.066000000000
1.414563683000,0.051000000000
1.422251292000,0.022000000000
1.429938901000,-0.024000000000
1.437626510000,-0.064000000000
1.445314119000,-0.096000000000
1.453001728000,-0.118000000000
1.460689337000,-0.133000000000
1.468376946000,-0.143000000000
1.476064555000,-0.152000000000
1.483752164000,-0.157000000000
1.491439773000,-0.155000000000
1.499127382000,-0.150000000000
1.506814991000,-0.147000000000
1.514502600000,-0.145000000000
1.522190209000,-0.143000000000
1.529877818000,-0.138000000000
1.537565427000,-0.133000000000
1.545253036000,-0.125000000000
1.552940645000,-0.120000000000
1.560628254000,-0.128000000000
1.568315863000,-0.123000000000
1.576003472000,-0.113000000000
1.583691081000,-0.113000000000
1.591378690000,-0.115000000000
1.599066299000,-0.123000000000
1.606753908000,-0.133000000000
1.614441517000,-0.128000000000
1.622129126000,-0.118000000000
1.629816735000,-0.115000000000
1.637504344000,-0.113000000000
1.645191953000,-0.108000000000
1.652879562000,-0.113000000000
1.660567171000,-0.120000000000
1.668254780000,-0.123000000000
1.675942389000,-0.123000000000
1.683629998000,-0.120000000000
1.691317607000,-0.110000000000
1.699005216000,-0.103000000000
1.706692825000,-0.096000000000
1.714380434000,-0.101000000000
1.722068043000,-0.113000000000
1.729755652000,-0.106000000000
1.737443261000,-0.093000000000
1.745130870000,-0.098000000000
1.752818479000,-0.103000000000
1.760506088000,-0.096000000000
1.768193697000,-0.093000000000
1.775881306000,-0.096000000000
1.783568915000,-0.091000000000
1.791256524000,-0.083000000000
1.798944133000,-0.083000000000
1.806631742000,-0.091000000000
1.814319351000,-0.093000000000
1.822006960000,-0.083000000000
1.829694569000,-0.076000000000
1.837382178000,-0.076000000000
1.845069787000,-0.083000000000
1.852757396000,-0.086000000000
1.860445005000,-0.088000000000
1.868132614000,-0.098000000000
1.875820223000,-0.098000000000
1.883507832000,-0.083000000000
1.891195441000,-0.071000000000
1.898883050000,-0.061000000000
1.906570659000,-0.049000000000
1.914258268000,-0.036000000000
1.921945877000,-0.046000000000
1.929633486000,-0.076000000000
1.937321136000,-0.093000000000
1.945008745000,-0.088000000000
1.952696354000,-0.073000000000
1.960383963000,-0.069000000000
1.968071572000,-0.073000000000
1.975759181000,-0.073000000000
1.983446790000,-0.078000000000
1.991134399000,-0.088000000000
1.998822008000,0.009000000000
2.006509617000,0.357000000000
2.014197226000,0.712000000000
2.021884835000,0.515000000000
2.029572444000,-0.143000000000
2.037260053000,-0.478000000000
2.044947662000,-0.315000000000
2.052635271000,-0.204000000000
2.060322880000,-0.224000000000
2.068010489000,-0.138000000000
2.075698098000,-0.056000000000
2.083385707000,-0.073000000000
2.091073316000,-0.076000000000
2.098760925000,-0.051000000000
2.106448534000,-0.049000000000
2.114136143000,-0.049000000000
2.121823752000,-0.039000000000
2.129511361000,-0.032000000000
2.137198970000,-0.029000000000
2.144886579000,-0.027000000000
2.152574188000,-0.019000000000
2.160261797000,-0.004000000000
2.167949406000,0.000000000000
2.175637015000,-0.002000000000
2.183324624000,0.012000000000
2.191012233000,0.024000000000
2.198699842000,0.024000000000
2.206387451000,0.034000000000
2.214075060000,0.059000000000
2.221762669000,0.073000000000
2.229450278000,0.081000000000
2.237137887000,0.091000000000
2.244825496000,0.106000000000
2.252513105000,0.120000000000
2.260200714000,0.125000000000
2.267888323000,0.128000000000
2.275575932000,0.135000000000
2.283263541000,0.125000000000
2.290951150000,0.096000000000
2.298638759000,0.066000000000
2.306326368000,0.039000000000
2.314013977000,0.000000000000
2.321701586000,-0.051000000000
2.329389195000,-0.091000000000
2.337076804000,-0.110000000000
2.344764413000,-0.123000000000
2.352452022000,-0.138000000000
2.360139631000,-0.150000000000
2.367827240000,-0.145000000000
2.375514849000,-0.133000000000
2.383202458000,-0.138000000000
2.390890067000,-0.140000000000
2.398577676000,-0.128000000000
2.406265285000,-0.118000000000
2.413952894000,-0.115000000000
2.421640503000,-0.110000000000
2.429328112000,-0.108000000000
2.437015721000,-0.108000000000
2.444703330000,-0.098000000000
2.452390939000,-0.091000000000
2.460078548000,-0.091000000000
2.467766157000,-0.091000000000
2.475453766000,-0.091000000000
2.483141375000,-0.091000000000
2.490828984000,-0.088000000000
2.498516642000,-0.091000000000
2.506204530000,-0.091000000000
2.513892418000,-0.096000000000
2.521580306000,-0.096000000000
2.529268194000,-0.093000000000
2.536956082000,-0.098000000000
2.544643970000,-0.108000000000
2.552331858000,-0.101000000000
2.560019746000,-0.091000000000
2.567707634000,-0.096000000000
2.575395522000,-0.098000000000
2.583083410000,-0.096000000000
2.590771298000,-0.096000000000
2.598459186000,-0.093000000000
2.606147074000,-0.086000000000
2.613834962000,-0.086000000000
2.621522850000,-0.088000000000
2.629210738000,-0.086000000000
2.636898626000,-0.086000000000
2.644586514000,-0.086000000000
2.652274402000,-0.088000000000
2.659962290000,-0.083000000000
2.667650178000,-0.076000000000
2.675338066000,-0.073000000000
2.683025954000,-0.078000000000
2.690713842000,-0.081000000000
2.698401730000,-0.083000000000
2.706089618000,-0.091000000000
2.713777506000,-0.086000000000
2.721465394000,-0.076000000000
2.729153282000,-0.073000000000
2.736841170000,-0.066000000000
2.744529058000,-0.044000000000
2.752216946000,-0.029000000000
2.759904834000,-0.041000000000
2.767592722000,-0.054000000000
2.775280610000,-0.054000000000
2.782968498000,-0.059000000000
2.790656386000,-0.076000000000
2.798344274000,-0.078000000000
2.806032162000,-0.061000000000
2.813720050000,-0.059000000000
2.821407938000,-0.073000000000
2.829095826000,-0.091000000000
2.836783714000,-0.083000000000
2.844471602000,0.093000000000
2.852159490000,0.522000000000
2.859847378000,0.784000000000
2.867535266000,0.406000000000
2.875223154000,-0.234000000000
2.882911042000,-0.404000000000
2.890598930000,-0.221000000000
2.898286818000,-0.184000000000
2.905974706000,-0.194000000000
2.913662594000,-0.108000000000
2.921350482000,-0.083000000000
2.929038370000,-0.106000000000
2.936726258000,-0.073000000000
2.944414146000,-0.049000000000
2.952102034000,-0.061000000000
2.959789922000,-0.056000000000
2.967477810000,-0.044000000000
2.975165698000,-0.049000000000
2.982853586000,-0.046000000000
2.990541474000,-0.039000000000
2.998229362000,-0.032000000000
3.005917250000,-0.022000000000
3.013605138000,-0.019000000000
3.021293026000,-0.022000000000
3.028980914000,-0.014000000000
3.036668802000,-0.009000000000
3.044356690000,-0.007000000000
3.052044578000,0.007000000000
3.059732488000,0.024000000000
3.067420236000,0.034000000000
3.075107984000,0.044000000000
3.082795732000,0.056000000000
3.090483480000,0.076000000000
3.098171228000,0.088000000000
3.105858976000,0.091000000000
3.113546724000,0.091000000000
3.121234472000,0.096000000000
3.128922220000,0.093000000000
3.136609968000,0.078000000000
3.144297716000,0.044000000000
3.151985464000,0.002000000000
3.159673212000,-0.032000000000
3.167360960000,-0.064000000000
3.175048708000,-0.096000000000
3.182736456000,-0.118000000000
3.190424204000,-0.128000000000
3.198111952000,-0.140000000000
3.205799700000,-0.147000000000
3.213487448000,-0.143000000000
3.221175196000,-0.135000000000
3.228862944000,-0.135000000000
3.236550692000,-0.135000000000
3.244238440000,-0.123000000000
3.251926188000,-0.113000000000
3.259613936000,-0.115000000000
3.267301684000,-0.113000000000
3.274989432000,-0.103000000000
3.282677180000,-0.103000000000
3.290364928000,-0.108000000000
3.298052676000,-0.108000000000
3.305740424000,-0.101000000000
3.313428172000,-0.098000000000
3.321115920000,-0.101000000000
3.328803668000,-0.101000000000
3.336491416000,-0.098000000000
3.344179164000,-0.106000000000
3.351866912000,-0.108000000000
3.359554660000,-0.103000000000
3.367242408000,-0.101000000000
3.374930156000,-0.101000000000
3.382617904000,-0.106000000000
3.390305652000,-0.108000000000
3.397993400000,-0.103000000000
3.405681148000,-0.101000000000
3.413368896000,-0.108000000000
3.421056644000,-0.110000000000
3.428744392000,-0.098000000000
3.436432140000,-0.096000000000
3.444119888000,-0.101000000000
3.451807636000,-0.098000000000
3.459495384000,-0.093000000000
3.467183132000,-0.096000000000
3.474870880000,-0.096000000000
3.482558628000,-0.091000000000
3.490246376000,-0.091000000000
3.497934124000,-0.096000000000
3.505621872000,-0.091000000000
3.513309620000,-0.083000000000
3.520997368000,-0.086000000000
3.528685116000,-0.091000000000
3.536372864000,-0.091000000000
3.544060612000,-0.098000000000
3.551748360000,-0.101000000000
3.559436108000,-0.103000000000
3.567123856000,-0.098000000000
3.574811604000,-0.088000000000
3.582499352000,-0.078000000000
3.590187100000,-0.071000000000
3.597874848000,-0.059000000000
3.605562596000,-0.044000000000
3.613250344000,-0.049000000000
3.620938164000,-0.071000000000
3.628625773000,-0.078000000000
3.636313382000,-0.073000000000
3.644000991000,-0.078000000000
3.651688600000,-0.083000000000
3.659376209000,-0.078000000000
3.667063818000,-0.073000000000
3.674751427000,-0.081000000000
3.682439036000,-0.110000000000
3.690126645000,-0.098000000000
3.697814254000,0.130000000000
3.705501863000,0.581000000000
3.713189472000,0.771000000000
3.720877081000,0.325000000000
3.728564690000,-0.268000000000
3.736252299000,-0.369000000000
3.743939908000,-0.207000000000
3.751627517000,-0.197000000000
3.759315126000,-0.189000000000
3.767002735000,-0.103000000000
3.774690344000,-0.088000000000
3.782377953000,-0.113000000000
3.790065562000,-0.096000000000
3.797753171000,-0.076000000000
3.805440780000,-0.076000000000
3.813128389000,-0.066000000000
3.820815998000,-0.051000000000
3.828503607000,-0.051000000000
3.836191216000,-0.054000000000
3.843878825000,-0.046000000000
3.851566434000,-0.039000000000
3.859254043000,-0.036000000000
3.866941652000,-0.034000000000
3.874629261000,-0.024000000000
3.882316870000,-0.014000000000
3.890004479000,-0.004000000000
3.897692088000,0.004000000000
3.905379697000,0.009000000000
3.913067306000,0.027000000000
3.920754915000,0.049000000000
3.928442524000,0.051000000000
3.936130133000,0.056000000000
3.943817742000,0.073000000000
3.951505351000,0.091000000000
3.959192960000,0.091000000000
3.966880569000,0.093000000000
3.974568178000,0.096000000000
3.982255787000,0.086000000000
3.989943396000,0.071000000000
3.997631005000,0.046000000000
4.005318614000,0.007000000000
4.013006223000,-0.034000000000
4.020693832000,-0.069000000000
4.028381441000,-0.096000000000
4.036069050000,-0.120000000000
4.043756659000,-0.138000000000
4.051444268000,-0.140000000000
4.059131877000,-0.133000000000
4.066819486000,-0.128000000000
4.074507095000,-0.130000000000
4.082194704000,-0.130000000000
4.089882313000,-0.118000000000
4.097569922000,-0.110000000000
4.105257531000,-0.110000000000
4.112945140000,-0.101000000000
4.120632749000,-0.093000000000
4.128320358000,-0.096000000000
4.136007967000,-0.096000000000
4.143695576000,-0.091000000000
4.151383185000,-0.091000000000
4.159070794000,-0.088000000000
4.166758403000,-0.081000000000
4.174446012000,-0.083000000000
4.182133666000,-0.086000000000
4.189821345000,-0.083000000000
4.197509024000,-0.073000000000
4.205196703000,-0.071000000000
4.212884382000,-0.076000000000
4.220572061000,-0.073000000000
4.228259740000,-0.069000000000
4.235947419000,-0.071000000000
4.243635098000,-0.078000000000
4.251322777000,-0.073000000000
4.259010456000,-0.069000000000
4.266698135000,-0.069000000000
4.274385814000,-0.059000000000
4.282073493000,-0.054000000000
4.289761172000,-0.059000000000
4.297448851000,-0.059000000000
4.305136530000,-0.051000000000
4.312824209000,-0.041000000000
4.320511888000,-0.046000000000
4.328199567000,-0.056000000000
4.335887246000,-0.046000000000
4.343574925000,-0.027000000000
4.351262604000,-0.027000000000
4.358950283000,-0.034000000000
4.366637962000,-0.022000000000
4.374325641000,-0.012000000000
4.382013320000,-0.024000000000
4.389700999000,-0.027000000000
4.397388678000,-0.022000000000
4.405076357000,-0.017000000000
4.412764036000,-0.012000000000
4.420451715000,-0.009000000000
4.428139394000,-0.012000000000
4.435827073000,-0.007000000000
4.443514752000,-0.007000000000
4.451202431000,-0.009000000000
4.458890110000,-0.007000000000
4.466577789000,-0.009000000000
4.474265468000,-0.009000000000
4.481953147000,0.009000000000
4.489640826000,0.022000000000
4.497328505000,0.029000000000
4.505016184000,0.039000000000
4.512703863000,0.029000000000
4.520391542000,0.012000000000
4.528079221000,0.012000000000
4.535766900000,0.017000000000
4.543454579000,0.012000000000
4.551142258000,0.002000000000
4.558829937000,0.012000000000
4.566517616000,0.027000000000
4.574205295000,0.004000000000
4.581892974000,-0.019000000000
4.589580653000,0.133000000000
4.597268332000,0.549000000000
4.604956011000,0.845000000000
4.612643690000,0.510000000000
4.620331369000,-0.162000000000
4.628019048000,-0.401000000000
4.635706727000,-0.204000000000
4.643394406000,-0.118000000000
4.651082085000,-0.130000000000
4.658769764000,-0.034000000000
4.666457443000,0.027000000000
4.674145122000,0.002000000000
4.681832801000,0.014000000000
4.689520480000,0.044000000000
4.697208159000,0.039000000000
4.704895838000,0.039000000000
4.712583517000,0.056000000000
4.720271196000,0.061000000000
4.727958875000,0.061000000000
4.735646554000,0.064000000000
4.743334251000,0.071000000000
4.751021790000,0.081000000000
4.758709329000,0.083000000000
4.766396868000,0.086000000000
4.774084407000,0.091000000000
4.781771946000,0.098000000000
4.789459485000,0.113000000000
4.797147024000,0.128000000000
4.804834563000,0.135000000000
4.812522102000,0.147000000000
4.820209641000,0.162000000000
4.827897180000,0.177000000000
4.835584719000,0.192000000000
4.843272258000,0.199000000000
4.850959797000,0.202000000000
4.858647336000,0.204000000000
4.866334875000,0.202000000000
4.874022414000,0.182000000000
4.881709953000,0.160000000000
4.889397492000,0.143000000000
4.897085031000,0.115000000000
4.904772570000,0.064000000000
4.912460109000,0.012000000000
4.920147648000,-0.017000000000
4.927835187000,-0.044000000000
4.935522726000,-0.073000000000
4.943210265000,-0.083000000000
4.950897804000,-0.078000000000
4.958585343000,-0.081000000000
4.966272882000,-0.083000000000
4.973960421000,-0.078000000000
4.981647960000,-0.076000000000
4.989335499000,-0.076000000000
4.997023038000,-0.066000000000
5.004710577000,-0.051000000000
5.012398116000,-0.051000000000
5.020085655000,-0.049000000000
5.027773194000,-0.041000000000
5.035460733000,-0.044000000000
5.043148272000,-0.051000000000
5.050835811000,-0.044000000000
5.058523350000,-0.034000000000
5.066210889000,-0.032000000000
5.073898428000,-0.041000000000
5.081585967000,-0.051000000000
5.089273506000,-0.051000000000
5.096961045000,-0.056000000000
5.104648584000,-0.061000000000
5.112336123000,-0.054000000000
5.120023662000,-0.051000000000
5.127711201000,-0.056000000000
5.135398740000,-0.054000000000
5.143086279000,-0.051000000000
5.150773818000,-0.061000000000
5.158461357000,-0.066000000000
5.166148896000,-0.066000000000
5.173836435000,-0.064000000000
5.181523974000,-0.064000000000
5.189211513000,-0.066000000000
5.196899052000,-0.064000000000
5.204586591000,-0.064000000000
5.212274130000,-0.059000000000
5.219961669000,-0.051000000000
5.227649208000,-0.059000000000
5.235336747000,-0.069000000000
5.243024286000,-0.064000000000
5.250711825000,-0.059000000000
5.258399364000,-0.061000000000
5.266086903000,-0.056000000000
5.273774442000,-0.056000000000
5.281461981000,-0.051000000000
5.289149520000,-0.054000000000
5.296837059000,-0.066000000000
5.304524666000,-0.071000000000
5.312212624000,-0.069000000000
5.319900582000,-0.071000000000
5.327588540000,-0.073000000000
5.335276498000,-0.066000000000
5.342964456000,-0.061000000000
5.350652414000,-0.059000000000
5.358340372000,-0.046000000000
5.366028330000,-0.029000000000
5.373716288000,-0.019000000000
5.381404246000,-0.039000000000
5.389092204000,-0.066000000000
5.396780162000,-0.064000000000
5.404468120000,-0.056000000000
5.412156078000,-0.064000000000
5.419844036000,-0.064000000000
5.427531994000,-0.059000000000
5.435219952000,-0.061000000000
5.442907910000,-0.071000000000
5.450595868000,-0.093000000000
5.458283826000,-0.076000000000
5.465971784000,0.189000000000
5.473659742000,0.668000000000
5.481347700000,0.798000000000
5.489035658000,0.271000000000
5.496723616000,-0.308000000000
5.504411574000,-0.352000000000
5.512099532000,-0.184000000000
5.519787490000,-0.189000000000
5.527475448000,-0.180000000000
5.535163406000,-0.098000000000
5.542851364000,-0.093000000000
5.550539322000,-0.108000000000
5.558227280000,-0.076000000000
5.565915238000,-0.061000000000
5.573603196000,-0.069000000000
5.581291154000,-0.059000000000
5.588979112000,-0.054000000000
5.596667070000,-0.061000000000
5.604355028000,-0.059000000000
5.612042986000,-0.051000000000
5.619730944000,-0.049000000000
5.627418902000,-0.039000000000
5.635106860000,-0.029000000000
5.642794818000,-0.032000000000
5.650482776000,-0.032000000000
5.658170734000,-0.017000000000
5.665858692000,-0.002000000000
5.673546650000,-0.004000000000
5.681234608000,0.004000000000
5.688922566000,0.022000000000
5.696610524000,0.032000000000
5.704298482000,0.039000000000
5.711986440000,0.051000000000
5.719674398000,0.064000000000
5.727362356000,0.076000000000
5.735050314000,0.081000000000
5.742738272000,0.076000000000
5.750426230000,0.073000000000
5.758114188000,0.061000000000
5.765802146000,0.029000000000
5.773490104000,0.000000000000
5.781178062000,-0.036000000000
5.788866020000,-0.083000000000
5.796553978000,-0.113000000000
5.804241936000,-0.120000000000
5.811929894000,-0.133000000000
5.819617852000,-0.150000000000
5.827305810000,-0.155000000000
5.834993768000,-0.150000000000
5.842681726000,-0.143000000000
5.850369684000,-0.140000000000
5.858057642000,-0.135000000000
5.865745603000,-0.128000000000
5.873433142000,-0.123000000000
5.881120681000,-0.130000000000
5.888808220000,-0.130000000000
5.896495759000,-0.123000000000
5.904183298000,-0.113000000000
5.911870837000,-0.110000000000
5.919558376000,-0.118000000000
5.927245915000,-0.128000000000
5.934933454000,-0.128000000000
5.942620993000,-0.120000000000
5.950308532000,-0.123000000000
5.957996071000,-0.130000000000
5.965683610000,-0.130000000000
5.973371149000,-0.123000000000
5.981058688000,-0.125000000000
5.988746227000,-0.130000000000
5.996433766000,-0.125000000000
6.004121305000,-0.123000000000
6.011808844000,-0.128000000000
6.019496383000,-0.130000000000
6.027183922000,-0.125000000000
6.034871461000,-0.125000000000
6.042559000000,-0.130000000000
6.050246539000,-0.128000000000
6.057934078000,-0.118000000000
6.065621617000,-0.118000000000
6.073309156000,-0.125000000000
6.080996695000,-0.123000000000
6.088684234000,-0.113000000000
6.096371773000,-0.113000000000
6.104059312000,-0.113000000000
6.111746851000,-0.110000000000
6.119434390000,-0.110000000000
6.127121929000,-0.110000000000
6.134809468000,-0.108000000000
6.142497007000,-0.103000000000
6.150184546000,-0.096000000000
6.157872085000,-0.103000000000
6.165559624000,-0.110000000000
6.173247163000,-0.103000000000
6.180934702000,-0.103000000000
6.188622241000,-0.103000000000
6.196309780000,-0.101000000000
6.203997319000,-0.108000000000
6.211684858000,-0.120000000000
6.219372397000,-0.113000000000
6.227059936000,-0.103000000000
6.234747475000,-0.103000000000
6.242435014000,-0.098000000000
6.250122553000,-0.086000000000
6.257810092000,-0.076000000000
6.265497631000,-0.069000000000
6.273185170000,-0.071000000000
6.280872709000,-0.086000000000
6.288560248000,-0.101000000000
6.296247787000,-0.101000000000
6.303935326000,-0.093000000000
6.311622865000,-0.093000000000
6.319310404000,-0.096000000000
6.326997943000,-0.096000000000
6.334685482000,-0.098000000000
6.342373021000,-0.125000000000
6.350060560000,-0.098000000000
6.357748099000,0.172000000000
6.365435638000,0.628000000000
6.373123177000,0.742000000000
6.380810716000,0.229000000000
6.388498255000,-0.335000000000
6.396185794000,-0.379000000000
6.403873333000,-0.209000000000
6.411560872000,-0.212000000000
6.419248411000,-0.209000000000
6.426936018000,-0.130000000000
6.434623766000,-0.113000000000
6.442311514000,-0.123000000000
6.449999262000,-0.110000000000
6.457687010000,-0.106000000000
6.465374758000,-0.103000000000
6.473062506000,-0.088000000000
6.480750254000,-0.083000000000
6.488438002000,-0.083000000000
6.496125750000,-0.069000000000
6.503813498000,-0.059000000000
6.511501246000,-0.066000000000
6.519188994000,-0.066000000000
6.526876742000,-0.051000000000
6.534564490000,-0.049000000000
6.542252238000,-0.041000000000
6.549939986000,-0.022000000000
6.557627734000,-0.014000000000
6.565315482000,-0.019000000000
6.573003230000,-0.002000000000
6.580690978000,0.024000000000
6.588378726000,0.032000000000
6.596066474000,0.036000000000
6.603754222000,0.056000000000
6.611441970000,0.073000000000
6.619129718000,0.078000000000
6.626817466000,0.078000000000
6.634505214000,0.073000000000
6.642192962000,0.069000000000
6.649880710000,0.059000000000
6.657568458000,0.027000000000
6.665256206000,-0.017000000000
6.672943954000,-0.054000000000
6.680631702000,-0.093000000000
6.688319450000,-0.120000000000
6.696007198000,-0.135000000000
6.703694946000,-0.155000000000
6.711382694000,-0.172000000000
6.719070442000,-0.165000000000
6.726758190000,-0.150000000000
6.734445938000,-0.147000000000
6.742133686000,-0.145000000000
6.749821434000,-0.143000000000
6.757509182000,-0.140000000000
6.765196930000,-0.135000000000
6.772884678000,-0.128000000000
6.780572426000,-0.128000000000
6.788260174000,-0.130000000000
6.795947922000,-0.125000000000
6.803635670000,-0.113000000000
6.811323418000,-0.110000000000
6.819011166000,-0.120000000000
6.826698914000,-0.120000000000
6.834386662000,-0.110000000000
6.842074410000,-0.106000000000
6.849762158000,-0.108000000000
6.857449906000,-0.120000000000
6.865137654000,-0.123000000000
6.872825402000,-0.101000000000
6.880513150000,-0.096000000000
6.888200898000,-0.120000000000
6.895888646000,-0.133000000000
6.903576394000,-0.120000000000
6.911264142000,-0.106000000000
6.918951890000,-0.098000000000
6.926639638000,-0.106000000000
6.934327386000,-0.110000000000
6.942015134000,-0.103000000000
6.949702882000,-0.103000000000
6.957390630000,-0.110000000000
6.965078378000,-0.115000000000
6.972766126000,-0.108000000000
6.980453874000,-0.098000000000
6.988141694000,-0.096000000000
6.995829442000,-0.103000000000
7.003517190000,-0.098000000000
7.011204938000,-0.081000000000
7.018892686000,-0.073000000000
7.026580434000,-0.086000000000
7.034268182000,-0.098000000000
7.041955930000,-0.098000000000
7.049643678000,-0.096000000000
7.057331426000,-0.096000000000
7.065019174000,-0.091000000000
7.072706922000,-0.078000000000
7.080394670000,-0.078000000000
7.088082418000,-0.083000000000
7.095770166000,-0.076000000000
7.103457914000,-0.064000000000
7.111145662000,-0.051000000000
7.118833410000,-0.049000000000
7.126521158000,-0.061000000000
7.134208906000,-0.076000000000
7.141896654000,-0.081000000000
7.149584402000,-0.081000000000
7.157272150000,-0.069000000000
7.164959898000,-0.064000000000
7.172647646000,-0.078000000000
7.180335394000,-0.101000000000
7.188023142000,-0.106000000000
7.195710890000,-0.046000000000
7.203398638000,0.229000000000
7.211086386000,0.655000000000
7.218774134000,0.687000000000
7.226461882000,0.081000000000
7.234149630000,-0.461000000000
7.241837378000,-0.414000000000
7.249525126000,-0.226000000000
7.257212874000,-0.239000000000
7.264900622000,-0.197000000000
7.272588370000,-0.076000000000
7.280276118000,-0.071000000000
7.287963866000,-0.091000000000
7.295651614000,-0.061000000000
7.303339362000,-0.051000000000
7.311027110000,-0.059000000000
7.318714858000,-0.041000000000
7.326402606000,-0.034000000000
7.334090354000,-0.036000000000
7.341778102000,-0.029000000000
7.349465850000,-0.022000000000
7.357153598000,-0.022000000000
7.364841346000,-0.019000000000
7.372529094000,-0.004000000000
7.380216842000,0.014000000000
7.387904590000,0.012000000000
7.395592338000,0.007000000000
7.403280086000,0.022000000000
7.410967834000,0.039000000000
7.418655582000,0.054000000000
7.426343330000,0.069000000000
7.434031078000,0.083000000000
7.441718826000,0.096000000000
7.449406574000,0.110000000000
7.457094322000,0.118000000000
7.464782070000,0.115000000000
7.472469818000,0.118000000000
7.480157566000,0.125000000000
7.487845314000,0.113000000000
7.495533062000,0.083000000000
7.503220810000,0.039000000000
7.510908558000,-0.009000000000
7.518596306000,-0.049000000000
7.526284054000,-0.081000000000
7.533971802000,-0.110000000000
7.541659550000,-0.138000000000
7.549347366000,-0.155000000000
7.557034836000,-0.162000000000
7.564722306000,-0.165000000000
7.572409776000,-0.167000000000
7.580097246000,-0.167000000000
7.587784716000,-0.152000000000
7.595472186000,-0.140000000000
7.603159656000,-0.133000000000
7.610847126000,-0.125000000000
7.618534596000,-0.118000000000
7.626222066000,-0.113000000000
7.633909536000,-0.108000000000
7.641597006000,-0.108000000000
7.649284476000,-0.110000000000
7.656971946000,-0.106000000000
7.664659416000,-0.103000000000
7.672346886000,-0.108000000000
7.680034356000,-0.106000000000
7.687721826000,-0.101000000000
7.695409296000,-0.108000000000
7.703096766000,-0.113000000000
7.710784236000,-0.108000000000
7.718471706000,-0.106000000000
7.726159176000,-0.110000000000
7.733846646000,-0.110000000000
7.741534116000,-0.103000000000
7.749221586000,-0.108000000000
7.756909056000,-0.120000000000
7.764596526000,-0.113000000000
7.772283996000,-0.101000000000
7.779971466000,-0.106000000000
7.787658936000,-0.113000000000
7.795346406000,-0.106000000000
7.803033876000,-0.096000000000
7.810721346000,-0.098000000000
7.818408816000,-0.106000000000
7.826096286000,-0.106000000000
7.833783756000,-0.098000000000
7.841471226000,-0.096000000000
7.849158696000,-0.098000000000
7.856846166000,-0.093000000000
7.864533636000,-0.081000000000
7.872221106000,-0.081000000000
7.879908576000,-0.093000000000
7.887596046000,-0.096000000000
7.895283516000,-0.081000000000
7.902970986000,-0.076000000000
7.910658456000,-0.088000000000
7.918345926000,-0.091000000000
7.926033396000,-0.081000000000
7.933720866000,-0.083000000000
7.941408336000,-0.096000000000
7.949095806000,-0.096000000000
7.956783276000,-0.083000000000
7.964470746000,-0.073000000000
7.972158216000,-0.076000000000
7.979845686000,-0.061000000000
7.987533156000,-0.041000000000
7.995220626000,-0.046000000000
8.002908096000,-0.066000000000
8.010595566000,-0.073000000000
8.018283036000,-0.076000000000
8.025970506000,-0.073000000000
8.033657976000,-0.071000000000
8.041345446000,-0.071000000000
8.049032916000,-0.073000000000
8.056720386000,-0.081000000000
8.064407856000,-0.113000000000
8.072095326000,-0.093000000000
8.079782796000,0.177000000000
8.087470266000,0.650000000000
8.095157736000,0.798000000000
8.102845206000,0.300000000000
8.110532698000,-0.288000000000
8.118220307000,-0.352000000000
8.125907916000,-0.184000000000
8.133595525000,-0.192000000000
8.141283134000,-0.187000000000
8.148970743000,-0.101000000000
8.156658352000,-0.091000000000
8.164345961000,-0.108000000000
8.172033570000,-0.078000000000
8.179721179000,-0.069000000000
8.187408788000,-0.086000000000
8.195096397000,-0.078000000000
8.202784006000,-0.059000000000
8.210471615000,-0.061000000000
8.218159224000,-0.064000000000
8.225846833000,-0.051000000000
8.233534442000,-0.041000000000
8.241222051000,-0.041000000000
8.248909660000,-0.044000000000
8.256597269000,-0.041000000000
8.264284878000,-0.029000000000
8.271972487000,-0.019000000000
8.279660096000,-0.017000000000
8.287347705000,-0.004000000000
8.295035314000,0.014000000000
8.302722923000,0.024000000000
8.310410532000,0.032000000000
8.318098141000,0.039000000000
8.325785750000,0.054000000000
8.333473359000,0.066000000000
8.341160968000,0.076000000000
8.348848577000,0.086000000000
8.356536186000,0.086000000000
8.364223795000,0.078000000000
8.371911404000,0.071000000000
8.379599013000,0.044000000000
8.387286622000,0.004000000000
8.394974231000,-0.029000000000
8.402661840000,-0.054000000000
8.410349449000,-0.088000000000
8.418037058000,-0.118000000000
8.425724667000,-0.130000000000
8.433412276000,-0.135000000000
8.441099885000,-0.140000000000
8.448787494000,-0.138000000000
8.456475103000,-0.133000000000
8.464162712000,-0.130000000000
8.471850321000,-0.123000000000
8.479537930000,-0.118000000000
8.487225539000,-0.113000000000
8.494913148000,-0.108000000000
8.502600757000,-0.106000000000
8.510288366000,-0.110000000000
8.517975975000,-0.113000000000
8.525663584000,-0.113000000000
8.533351193000,-0.108000000000
8.541038802000,-0.101000000000
8.548726411000,-0.101000000000
8.556414020000,-0.103000000000
8.564101629000,-0.106000000000
8.571789238000,-0.113000000000
8.579476847000,-0.108000000000
8.587164456000,-0.098000000000
8.594852065000,-0.106000000000
8.602539674000,-0.115000000000
8.610227283000,-0.110000000000
8.617914892000,-0.108000000000
8.625602501000,-0.110000000000
8.633290110000,-0.108000000000
8.640977719000,-0.110000000000
8.648665328000,-0.108000000000
8.656352937000,-0.096000000000
8.664040546000,-0.091000000000
8.671728196000,-0.103000000000
8.679415805000,-0.103000000000
8.687103414000,-0.101000000000
8.694791023000,-0.101000000000
8.702478632000,-0.093000000000
8.710166241000,-0.093000000000
8.717853850000,-0.096000000000
8.725541459000,-0.088000000000
8.733229068000,-0.083000000000
8.740916677000,-0.093000000000
8.748604286000,-0.091000000000
8.756291895000,-0.081000000000
8.763979504000,-0.078000000000
8.771667113000,-0.083000000000
8.779354722000,-0.086000000000
8.787042331000,-0.078000000000
8.794729940000,-0.078000000000
8.802417549000,-0.093000000000
8.810105158000,-0.096000000000
8.817792767000,-0.091000000000
8.825480376000,-0.088000000000
8.833167985000,-0.076000000000
8.840855594000,-0.069000000000
8.848543203000,-0.071000000000
8.856230812000,-0.066000000000
8.863918421000,-0.051000000000
8.871606030000,-0.049000000000
8.879293639000,-0.059000000000
8.886981248000,-0.064000000000
8.894668857000,-0.069000000000
8.902356466000,-0.073000000000
8.910044075000,-0.071000000000
8.917731684000,-0.066000000000
8.925419293000,-0.071000000000
8.933106902000,-0.086000000000
8.940794511000,-0.106000000000
8.948482120000,-0.091000000000
8.956169729000,0.118000000000
8.963857338000,0.557000000000
8.971544947000,0.769000000000
8.979232556000,0.335000000000
8.986920165000,-0.288000000000
8.994607774000,-0.414000000000
9.002295383000,-0.224000000000
9.009982992000,-0.189000000000
9.017670601000,-0.194000000000
9.025358210000,-0.106000000000
9.033045819000,-0.078000000000
9.040733428000,-0.101000000000
9.048421037000,-0.076000000000
9.056108646000,-0.059000000000
9.063796255000,-0.069000000000
9.071483864000,-0.056000000000
9.079171473000,-0.034000000000
9.086859082000,-0.036000000000
9.094546691000,-0.041000000000
9.102234300000,-0.032000000000
9.109921909000,-0.032000000000
9.117609518000,-0.029000000000
9.125297127000,-0.014000000000
9.132984736000,-0.007000000000
9.140672345000,0.004000000000
9.148359954000,0.022000000000
9.156047563000,0.032000000000
9.163735172000,0.032000000000
9.171422781000,0.041000000000
9.179110390000,0.064000000000
9.186797999000,0.083000000000
9.194485608000,0.091000000000
9.202173217000,0.101000000000
9.209860826000,0.125000000000
9.217548435000,0.138000000000
9.225236044000,0.128000000000
9.232923702000,0.128000000000
9.240611311000,0.125000000000
9.248298920000,0.108000000000
9.255986529000,0.081000000000
9.263674138000,0.039000000000
9.271361747000,-0.002000000000
9.279049356000,-0.029000000000
9.286736965000,-0.069000000000
9.294424574000,-0.110000000000
9.302112183000,-0.120000000000
9.309799792000,-0.115000000000
9.317487401000,-0.113000000000
9.325175010000,-0.120000000000
9.332862619000,-0.123000000000
9.340550228000,-0.120000000000
9.348237837000,-0.120000000000
9.355925446000,-0.113000000000
9.363613055000,-0.093000000000
9.371300664000,-0.081000000000
9.378988273000,-0.083000000000
9.386675882000,-0.078000000000
9.394363491000,-0.073000000000
9.402051100000,-0.083000000000
9.409738709000,-0.081000000000
9.417426318000,-0.061000000000
9.425113927000,-0.064000000000
9.432801536000,-0.076000000000
9.440489145000,-0.073000000000
9.448176754000,-0.064000000000
9.455864363000,-0.059000000000
9.463551972000,-0.061000000000
9.471239581000,-0.069000000000
9.478927190000,-0.078000000000
9.486614799000,-0.064000000000
9.494302408000,-0.049000000000
9.501990017000,-0.054000000000
9.509677626000,-0.061000000000
9.517365235000,-0.061000000000
9.525052844000,-0.054000000000
9.532740453000,-0.046000000000
9.540428062000,-0.054000000000
9.548115671000,-0.059000000000
9.555803280000,-0.041000000000
9.563490889000,-0.029000000000
9.571178498000,-0.029000000000
9.578866107000,-0.022000000000
9.586553716000,-0.022000000000
9.594241325000,-0.032000000000
9.601928934000,-0.024000000000
9.609616543000,-0.019000000000
9.617304152000,-0.019000000000
9.624991761000,-0.019000000000
9.632679370000,-0.022000000000
9.640366979000,-0.014000000000
9.648054588000,0.007000000000
9.655742197000,0.012000000000
9.663429806000,0.014000000000
9.671117415000,0.034000000000
9.678805024000,0.034000000000
9.686492633000,0.022000000000
9.694180242000,0.022000000000
9.701867851000,0.014000000000
9.709555460000,0.000000000000
9.717243069000,0.007000000000
9.724930678000,0.019000000000
9.732618287000,0.012000000000
9.740305896000,0.000000000000
9.747993505000,-0.004000000000
9.755681114000,0.049000000000
9.763368723000,0.335000000000
9.771056332000,0.779000000000
9.778743941000,0.769000000000
9.786431550000,0.106000000000
9.794119204000,-0.414000000000
9.801806813000,-0.323000000000
9.809494422000,-0.150000000000
9.817182031000,-0.172000000000
9.824869640000,-0.103000000000
9.832557249000,0.019000000000
9.840244858000,0.024000000000
9.847932467000,0.009000000000
9.855620076000,0.044000000000
9.863307685000,0.049000000000
9.870995294000,0.036000000000
9.878682903000,0.049000000000
9.886370512000,0.054000000000
9.894058121000,0.049000000000
9.901745730000,0.056000000000
9.909433339000,0.069000000000
9.917120948000,0.073000000000
9.924808557000,0.073000000000
9.932496166000,0.081000000000
9.940183775000,0.086000000000
9.947871384000,0.083000000000
9.955558993000,0.096000000000
9.963246602000,0.110000000000
9.970934211000,0.115000000000
9.978621820000,0.130000000000
9.986309429000,0.157000000000
9.993997038000,0.172000000000
10.001684647000,0.180000000000
10.009372256000,0.187000000000
10.017059865000,0.194000000000
10.024747474000,0.194000000000
10.032435083000,0.189000000000
10.040122692000,0.194000000000
10.047810301000,0.192000000000
10.055497910000,0.162000000000
10.063185519000,0.120000000000
10.070873128000,0.076000000000
10.078560737000,0.032000000000
10.086248346000,-0.014000000000
10.093935955000,-0.049000000000
10.101623564000,-0.061000000000
10.109311173000,-0.071000000000
10.116998782000,-0.086000000000
10.124686391000,-0.093000000000
10.132374000000,-0.083000000000
10.140061609000,-0.073000000000
10.147749218000,-0.078000000000
10.155436827000,-0.086000000000
10.163124436000,-0.081000000000
10.170812045000,-0.076000000000
10.178499654000,-0.071000000000
10.186187263000,-0.066000000000
10.193874872000,-0.056000000000
10.201562481000,-0.056000000000
10.209250090000,-0.059000000000
10.216937699000,-0.056000000000
10.224625308000,-0.051000000000
10.232312917000,-0.051000000000
10.240000526000,-0.059000000000
10.247688135000,-0.061000000000
10.255375744000,-0.061000000000
10.263063353000,-0.069000000000
10.270750962000,-0.076000000000
10.278438571000,-0.076000000000
10.286126180000,-0.069000000000
10.293813789000,-0.071000000000
10.301501398000,-0.076000000000
10.309189007000,-0.071000000000
10.316876616000,-0.069000000000
10.324564225000,-0.081000000000
10.332251834000,-0.083000000000
10.339939443000,-0.073000000000
10.347627052000,-0.069000000000
10.355314706000,-0.073000000000
10.363002454000,-0.076000000000
10.370690202000,-0.071000000000
10.378377950000,-0.064000000000
10.386065698000,-0.059000000000
10.393753446000,-0.064000000000
10.401441194000,-0.073000000000
10.409128942000,-0.078000000000
10.416816690000,-0.073000000000
10.424504438000,-0.064000000000
10.432192186000,-0.066000000000
10.439879934000,-0.078000000000
10.447567682000,-0.081000000000
10.455255430000,-0.076000000000
10.462943178000,-0.083000000000
10.470630926000,-0.093000000000
10.478318674000,-0.086000000000
10.486006422000,-0.064000000000
10.493694170000,-0.054000000000
10.501381918000,-0.056000000000
10.509069666000,-0.049000000000
10.516757414000,-0.036000000000
10.524445162000,-0.049000000000
10.532132910000,-0.071000000000
10.539820658000,-0.078000000000
10.547508406000,-0.076000000000
10.555196154000,-0.078000000000
10.562883902000,-0.078000000000
10.570571650000,-0.076000000000
10.578259398000,-0.081000000000
10.585947146000,-0.110000000000
10.593634894000,-0.088000000000
10.601322642000,0.189000000000
10.609010390000,0.670000000000
10.616698138000,0.811000000000
10.624385886000,0.288000000000
10.632073634000,-0.303000000000
10.639761382000,-0.342000000000
10.647449130000,-0.182000000000
10.655136878000,-0.212000000000
10.662824626000,-0.197000000000
10.670512374000,-0.106000000000
10.678200122000,-0.103000000000
10.685887870000,-0.118000000000
10.693575618000,-0.096000000000
10.701263366000,-0.086000000000
10.708951114000,-0.083000000000
10.716638862000,-0.078000000000
10.724326610000,-0.076000000000
10.732014358000,-0.073000000000
10.739702106000,-0.069000000000
10.747389854000,-0.061000000000
10.755077602000,-0.056000000000
10.762765350000,-0.056000000000
10.770453098000,-0.051000000000
10.778140846000,-0.044000000000
10.785828594000,-0.041000000000
10.793516342000,-0.041000000000
10.801204090000,-0.032000000000
10.808891838000,-0.019000000000
10.816579586000,-0.012000000000
10.824267334000,0.000000000000
10.831955082000,0.019000000000
10.839642830000,0.029000000000
10.847330578000,0.036000000000
10.855018326000,0.049000000000
10.862706074000,0.054000000000
10.870393822000,0.054000000000
10.878081570000,0.061000000000
10.885769318000,0.066000000000
10.893457066000,0.051000000000
10.901144814000,0.017000000000
10.908832562000,-0.019000000000
10.916520378000,-0.054000000000
10.924207917000,-0.088000000000
10.931895456000,-0.120000000000
10.939582995000,-0.138000000000
10.947270534000,-0.150000000000
10.954958073000,-0.160000000000
10.962645612000,-0.157000000000
10.970333151000,-0.155000000000
10.978020690000,-0.155000000000
10.985708229000,-0.150000000000
10.993395768000,-0.147000000000
11.001083307000,-0.143000000000
11.008770846000,-0.138000000000
11.016458385000,-0.140000000000
11.024145924000,-0.143000000000
11.031833463000,-0.145000000000
11.039521002000,-0.138000000000
11.047208541000,-0.130000000000
11.054896080000,-0.135000000000
11.062583619000,-0.140000000000
11.070271158000,-0.133000000000
11.077958697000,-0.125000000000
11.085646236000,-0.125000000000
11.093333775000,-0.125000000000
11.101021314000,-0.128000000000
11.108708853000,-0.135000000000
11.116396392000,-0.138000000000
11.124083931000,-0.140000000000
11.131771470000,-0.135000000000
11.139459009000,-0.125000000000
11.147146548000,-0.125000000000
11.154834087000,-0.130000000000
11.162521626000,-0.138000000000
11.170209165000,-0.135000000000
11.177896704000,-0.133000000000
11.185584243000,-0.130000000000
11.193271782000,-0.133000000000
11.200959321000,-0.130000000000
11.208646860000,-0.123000000000
11.216334399000,-0.120000000000
11.224021938000,-0.125000000000
11.231709477000,-0.125000000000
11.239397016000,-0.118000000000
11.247084555000,-0.118000000000
11.254772094000,-0.118000000000
11.262459633000,-0.108000000000
11.270147172000,-0.110000000000
11.277834711000,-0.133000000000
11.285522250000,-0.138000000000
11.293209789000,-0.133000000000
11.300897328000,-0.135000000000
11.308584867000,-0.125000000000
11.316272406000,-0.110000000000
11.323959945000,-0.113000000000
11.331647484000,-0.110000000000
11.339335023000,-0.088000000000
11.347022562000,-0.073000000000
11.354710101000,-0.091000000000
11.362397640000,-0.113000000000
11.370085179000,-0.110000000000
11.377772718000,-0.113000000000
11.385460257000,-0.118000000000
11.393147796000,-0.110000000000
11.400835335000,-0.103000000000
11.408522874000,-0.108000000000
11.416210413000,-0.120000000000
11.423897952000,-0.150000000000
11.431585491000,-0.108000000000
11.439273030000,0.197000000000
11.446960569000,0.650000000000
11.454648108000,0.663000000000
11.462335647000,0.046000000000
11.470023186000,-0.483000000000
11.477710793000,-0.433000000000
11.485398332000,-0.256000000000
11.493085871000,-0.263000000000
11.500773410000,-0.221000000000
11.508460949000,-0.130000000000
11.516148488000,-0.133000000000
11.523836027000,-0.143000000000
11.531523566000,-0.103000000000
11.539211105000,-0.088000000000
11.546898644000,-0.103000000000
11.554586183000,-0.096000000000
11.562273722000,-0.086000000000
11.569961261000,-0.081000000000
11.577648800000,-0.076000000000
11.585336339000,-0.069000000000
11.593023878000,-0.061000000000
11.600711417000,-0.054000000000
11.608398956000,-0.046000000000
11.616086495000,-0.034000000000
11.623774034000,-0.027000000000
11.631461573000,-0.022000000000
11.639149112000,-0.012000000000
11.646836651000,0.007000000000
11.654524190000,0.032000000000
11.662211729000,0.044000000000
11.669899268000,0.051000000000
11.677586807000,0.059000000000
11.685274346000,0.083000000000
11.692961885000,0.106000000000
11.700649424000,0.098000000000
11.708336963000,0.086000000000
11.716024502000,0.093000000000
11.723712041000,0.093000000000
11.731399580000,0.064000000000
11.739087119000,0.024000000000
11.746774658000,-0.017000000000
11.754462197000,-0.064000000000
11.762149736000,-0.108000000000
11.769837275000,-0.130000000000
11.777524814000,-0.145000000000
11.785212353000,-0.165000000000
11.792899892000,-0.172000000000
11.800587431000,-0.167000000000
11.808274970000,-0.170000000000
11.815962509000,-0.175000000000
11.823650048000,-0.167000000000
11.831337587000,-0.155000000000
11.839025126000,-0.152000000000
11.846712665000,-0.155000000000
11.854400204000,-0.150000000000
11.862087743000,-0.138000000000
11.869775282000,-0.130000000000
11.877462821000,-0.133000000000
11.885150360000,-0.133000000000
11.892837899000,-0.128000000000
11.900525438000,-0.120000000000
11.908212977000,-0.113000000000
11.915900516000,-0.113000000000
11.923588055000,-0.125000000000
11.931275594000,-0.130000000000
11.938963133000,-0.128000000000
11.946650672000,-0.135000000000
11.954338211000,-0.143000000000
11.962025750000,-0.138000000000
11.969713289000,-0.135000000000
11.977400828000,-0.128000000000
11.985088367000,-0.125000000000
11.992775906000,-0.135000000000
12.000463445000,-0.140000000000
12.008150984000,-0.130000000000
12.015838523000,-0.125000000000
12.023526062000,-0.130000000000
12.031213601000,-0.135000000000
12.038901208000,-0.133000000000
12.046588817000,-0.120000000000
12.054276426000,-0.110000000000
12.061964035000,-0.113000000000
12.069651644000,-0.123000000000
12.077339253000,-0.125000000000
12.085026862000,-0.120000000000
12.092714471000,-0.125000000000
12.100402080000,-0.125000000000
12.108089689000,-0.118000000000
12.115777298000,-0.108000000000
12.123464907000,-0.093000000000
12.131152516000,-0.078000000000
12.138840125000,-0.071000000000
12.146527734000,-0.071000000000
12.154215343000,-0.088000000000
12.161902952000,-0.101000000000
12.169590561000,-0.098000000000
12.177278170000,-0.101000000000
12.184965779000,-0.108000000000
12.192653388000,-0.098000000000
12.200340997000,-0.086000000000
12.208028606000,-0.093000000000
12.215716215000,-0.120000000000
12.223403824000,-0.135000000000
12.231091433000,0.036000000000
12.238779042000,0.483000000000
12.246466651000,0.786000000000
12.254154260000,0.433000000000
12.261841869000,-0.229000000000
12.269529478000,-0.438000000000
12.277217087000,-0.258000000000
12.284904696000,-0.214000000000
12.292592305000,-0.231000000000
12.300279914000,-0.138000000000
12.307967523000,-0.093000000000
12.315655132000,-0.118000000000
12.323342741000,-0.106000000000
12.331030350000,-0.078000000000
12.338717959000,-0.081000000000
12.346405568000,-0.081000000000
12.354093177000,-0.073000000000
12.361780786000,-0.071000000000
12.369468395000,-0.069000000000
12.377156004000,-0.059000000000
12.384843613000,-0.051000000000
12.392531222000,-0.049000000000
12.400218831000,-0.036000000000
12.407906440000,-0.034000000000
12.415594049000,-0.039000000000
12.423281658000,-0.032000000000
12.430969267000,-0.009000000000
12.438656876000,-0.002000000000
12.446344485000,-0.004000000000
12.454032094000,0.014000000000
12.461719703000,0.036000000000
12.469407312000,0.044000000000
12.477094921000,0.054000000000
12.484782530000,0.069000000000
12.492470139000,0.081000000000
12.500157748000,0.088000000000
12.507845357000,0.091000000000
12.515532966000,0.078000000000
12.523220575000,0.066000000000
12.530908184000,0.044000000000
12.538595793000,0.002000000000
12.546283402000,-0.036000000000
12.553971011000,-0.066000000000
12.561658620000,-0.096000000000
12.569346229000,-0.123000000000
12.577033838000,-0.133000000000
12.584721447000,-0.135000000000
12.592409056000,-0.143000000000
12.600096714000,-0.150000000000
12.607784602000,-0.147000000000
12.615472490000,-0.140000000000
12.623160378000,-0.133000000000
12.630848266000,-0.125000000000
12.638536154000,-0.123000000000
12.646224042000,-0.118000000000
12.653911930000,-0.113000000000
12.661599818000,-0.110000000000
12.669287706000,-0.115000000000
12.676975594000,-0.115000000000
12.684663482000,-0.115000000000
12.692351370000,-0.120000000000
12.700039258000,-0.118000000000
12.707727146000,-0.106000000000
12.715415034000,-0.103000000000
12.723102922000,-0.106000000000
12.730790810000,-0.110000000000
12.738478698000,-0.113000000000
12.746166586000,-0.113000000000
12.753854474000,-0.113000000000
12.761542362000,-0.106000000000
12.769230250000,-0.098000000000
12.776918138000,-0.098000000000
12.784606026000,-0.098000000000
12.792293914000,-0.096000000000
12.799981802000,-0.098000000000
12.807669690000,-0.103000000000
12.815357578000,-0.103000000000
12.823045466000,-0.093000000000
12.830733354000,-0.091000000000
12.838421242000,-0.091000000000
12.846109130000,-0.081000000000
12.853797018000,-0.076000000000
12.861484906000,-0.083000000000
12.869172794000,-0.086000000000
12.876860682000,-0.078000000000
12.884548570000,-0.078000000000
12.892236458000,-0.083000000000
12.899924346000,-0.081000000000
12.907612234000,-0.076000000000
12.915300122000,-0.078000000000
12.922988010000,-0.088000000000
12.930675898000,-0.088000000000
12.938363786000,-0.071000000000
12.946051674000,-0.059000000000
12.953739562000,-0.056000000000
12.961427450000,-0.056000000000
12.969115338000,-0.044000000000
12.976803226000,-0.041000000000
12.984491114000,-0.056000000000
12.992179002000,-0.066000000000
12.999866890000,-0.064000000000
13.007554778000,-0.066000000000
13.015242666000,-0.064000000000
13.022930554000,-0.056000000000
13.030618442000,-0.056000000000
13.038306330000,-0.069000000000
13.045994218000,-0.096000000000
13.053682106000,-0.044000000000
13.061369994000,0.268000000000
13.069057882000,0.712000000000
13.076745770000,0.717000000000
13.084433658000,0.110000000000
13.092121546000,-0.384000000000
13.099809434000,-0.315000000000
13.107497322000,-0.172000000000
13.115185210000,-0.212000000000
13.122873098000,-0.170000000000
13.130560986000,-0.078000000000
13.138248874000,-0.083000000000
13.145936762000,-0.078000000000
13.153624650000,-0.046000000000
13.161312560000,-0.056000000000
13.169000099000,-0.064000000000
13.176687638000,-0.044000000000
13.184375177000,-0.044000000000
13.192062716000,-0.039000000000
13.199750255000,-0.019000000000
13.207437794000,-0.029000000000
13.215125333000,-0.036000000000
13.222812872000,-0.019000000000
13.230500411000,-0.009000000000
13.238187950000,-0.002000000000
13.245875489000,0.000000000000
13.253563028000,0.007000000000
13.261250567000,0.022000000000
13.268938106000,0.032000000000
13.276625645000,0.044000000000
13.284313184000,0.064000000000
13.292000723000,0.091000000000
13.299688262000,0.101000000000
13.307375801000,0.101000000000
13.315063340000,0.110000000000
13.322750879000,0.123000000000
13.330438418000,0.128000000000
13.338125957000,0.125000000000
13.345813496000,0.108000000000
13.353501035000,0.081000000000
13.361188574000,0.051000000000
13.368876113000,0.019000000000
13.376563652000,-0.027000000000
13.384251191000,-0.071000000000
13.391938730000,-0.093000000000
13.399626269000,-0.110000000000
13.407313808000,-0.130000000000
13.415001347000,-0.135000000000
13.422688886000,-0.138000000000
13.430376425000,-0.138000000000
13.438063964000,-0.128000000000
13.445751503000,-0.125000000000
13.453439042000,-0.120000000000
13.461126581000,-0.108000000000
13.468814120000,-0.108000000000
13.476501659000,-0.113000000000
13.484189198000,-0.103000000000
13.491876737000,-0.096000000000
13.499564276000,-0.096000000000
13.507251815000,-0.096000000000
13.514939354000,-0.088000000000
13.522626893000,-0.083000000000
13.530314432000,-0.088000000000
13.538001971000,-0.098000000000
13.545689510000,-0.098000000000
13.553377049000,-0.091000000000
13.561064588000,-0.081000000000
13.568752127000,-0.086000000000
13.576439666000,-0.106000000000
13.584127205000,-0.106000000000
13.591814744000,-0.091000000000
13.599502283000,-0.093000000000
13.607189822000,-0.101000000000
13.614877361000,-0.093000000000
13.622564900000,-0.088000000000
13.630252439000,-0.088000000000
13.637939978000,-0.086000000000
13.645627517000,-0.086000000000
13.653315056000,-0.086000000000
13.661002595000,-0.088000000000
13.668690134000,-0.088000000000
13.676377673000,-0.078000000000
13.684065212000,-0.073000000000
13.691752751000,-0.073000000000
13.699440290000,-0.088000000000
13.707127829000,-0.101000000000
13.714815368000,-0.091000000000
13.722502975000,-0.071000000000
13.730190514000,-0.061000000000
13.737878053000,-0.056000000000
13.745565592000,-0.054000000000
13.753253131000,-0.041000000000
13.760940670000,-0.032000000000
13.768628209000,-0.054000000000
13.776315748000,-0.076000000000
13.784003287000,-0.076000000000
13.791690826000,-0.066000000000
13.799378365000,-0.064000000000
13.807065904000,-0.071000000000
13.814753443000,-0.073000000000
13.822440982000,-0.069000000000
13.830128521000,-0.078000000000
13.837816060000,-0.049000000000
13.845503599000,0.202000000000
13.853191138000,0.650000000000
13.860878677000,0.732000000000
13.868566216000,0.120000000000
13.876253755000,-0.473000000000
13.883941294000,-0.443000000000
13.891628833000,-0.236000000000
13.899316372000,-0.231000000000
13.907003911000,-0.187000000000
13.914691450000,-0.071000000000
13.922378989000,-0.054000000000
13.930066528000,-0.061000000000
13.937754067000,-0.032000000000
13.945441606000,-0.029000000000
13.953129145000,-0.041000000000
13.960816684000,-0.024000000000
13.968504223000,-0.014000000000
13.976191762000,-0.014000000000
13.983879301000,-0.007000000000
13.991566840000,-0.002000000000
13.999254379000,-0.002000000000
14.006941918000,0.004000000000
14.014629457000,0.009000000000
14.022316996000,0.012000000000
14.030004535000,0.019000000000
14.037692074000,0.034000000000
14.045379613000,0.046000000000
14.053067152000,0.061000000000
14.060754691000,0.071000000000
14.068442230000,0.078000000000
14.076129769000,0.098000000000
14.083817308000,0.115000000000
14.091504847000,0.120000000000
14.099192386000,0.123000000000
14.106879925000,0.133000000000
14.114567464000,0.140000000000
14.122255003000,0.140000000000
14.129942542000,0.123000000000
14.137630081000,0.096000000000
14.145317620000,0.061000000000
14.153005159000,0.019000000000
14.160692698000,-0.027000000000
14.168380237000,-0.069000000000
14.176067776000,-0.103000000000
14.183755315000,-0.125000000000
14.191442854000,-0.135000000000
14.199130393000,-0.135000000000
14.206817932000,-0.135000000000
14.214505471000,-0.140000000000
14.222193010000,-0.143000000000
14.229880549000,-0.138000000000
14.237568088000,-0.128000000000
14.245255627000,-0.120000000000
14.252943166000,-0.123000000000
14.260630705000,-0.115000000000
14.268318244000,-0.098000000000
14.276005783000,-0.091000000000
14.283693390000,-0.098000000000
14.291380929000,-0.096000000000
14.299068468000,-0.086000000000
14.306756007000,-0.086000000000
14.314443546000,-0.096000000000
14.322131085000,-0.101000000000
14.329818624000,-0.101000000000
14.337506163000,-0.098000000000
14.345193702000,-0.098000000000
14.352881241000,-0.101000000000
14.360568780000,-0.101000000000
14.368256319000,-0.091000000000
14.375943858000,-0.091000000000
14.383631397000,-0.101000000000
14.391318936000,-0.098000000000
14.399006475000,-0.088000000000
14.406694014000,-0.088000000000
14.414381553000,-0.093000000000
14.422069092000,-0.088000000000
14.429756631000,-0.078000000000
14.437444170000,-0.073000000000
14.445131709000,-0.076000000000
14.452819248000,-0.078000000000
14.460506787000,-0.076000000000
14.468194326000,-0.069000000000
14.475881865000,-0.069000000000
14.483569404000,-0.066000000000
14.491256943000,-0.064000000000
14.498944482000,-0.061000000000
14.506632021000,-0.054000000000
14.514319560000,-0.051000000000
14.522007099000,-0.054000000000
14.529694638000,-0.049000000000
14.537382177000,-0.039000000000
14.545069716000,-0.041000000000
14.552757255000,-0.054000000000
14.560444794000,-0.056000000000
14.568132333000,-0.046000000000
14.575819872000,-0.049000000000
14.583507411000,-0.056000000000
14.591194950000,-0.041000000000
14.598882489000,-0.022000000000
14.606570028000,-0.012000000000
14.614257567000,0.002000000000
14.621945106000,0.012000000000
14.629632645000,-0.004000000000
14.637320184000,-0.019000000000
14.645007723000,-0.017000000000
14.652695262000,-0.014000000000
14.660382801000,-0.012000000000
14.668070340000,-0.002000000000
14.675757879000,-0.002000000000
14.683445418000,-0.017000000000
14.691132957000,-0.029000000000
14.698820496000,-0.044000000000
14.706508035000,0.024000000000
14.714195574000,0.372000000000
14.721883113000,0.828000000000
14.729570652000,0.808000000000
14.737258191000,0.197000000000
14.744945730000,-0.273000000000
14.752633269000,-0.207000000000
14.760320808000,-0.088000000000
14.768008347000,-0.130000000000
14.775695886000,-0.081000000000
14.783383425000,-0.002000000000
14.791070964000,-0.014000000000
14.798758503000,-0.017000000000
14.806446042000,0.007000000000
14.814133581000,0.004000000000
14.821821120000,0.004000000000
14.829508659000,0.022000000000
14.837196198000,0.032000000000
14.844883805000,0.032000000000
14.852571344000,0.032000000000
14.860258883000,0.039000000000
14.867946422000,0.046000000000
14.875633961000,0.046000000000
14.883321500000,0.051000000000
14.891009039000,0.054000000000
14.898696578000,0.059000000000
14.906384117000,0.071000000000
14.914071656000,0.083000000000
14.921759195000,0.091000000000
14.929446734000,0.098000000000
14.937134273000,0.108000000000
14.944821812000,0.120000000000
14.952509351000,0.135000000000
14.960196890000,0.150000000000
14.967884429000,0.157000000000
14.975571968000,0.165000000000
14.983259507000,0.170000000000
14.990947046000,0.167000000000
14.998634585000,0.162000000000
15.006322124000,0.155000000000
15.014009663000,0.130000000000
15.021697202000,0.093000000000
15.029384741000,0.054000000000
15.037072280000,0.022000000000
15.044759819000,-0.002000000000
15.052447358000,-0.022000000000
15.060134897000,-0.036000000000
15.067822436000,-0.041000000000
15.075509975000,-0.041000000000
15.083197514000,-0.041000000000
15.090885053000,-0.044000000000
15.098572592000,-0.044000000000
15.106260131000,-0.034000000000
15.113947670000,-0.029000000000
15.121635209000,-0.029000000000
15.129322748000,-0.017000000000
15.137010287000,-0.014000000000
15.144697826000,-0.027000000000
15.152385365000,-0.022000000000
15.160072904000,-0.004000000000
15.167760443000,-0.004000000000
15.175447982000,-0.017000000000
15.183135521000,-0.024000000000
15.190823060000,-0.027000000000
15.198510599000,-0.024000000000
15.206198138000,-0.017000000000
15.213885677000,-0.014000000000
15.221573216000,-0.022000000000
15.229260755000,-0.027000000000
15.236948294000,-0.022000000000
15.244635833000,-0.022000000000
15.252323372000,-0.024000000000
15.260010911000,-0.027000000000
15.267698450000,-0.022000000000
15.275385989000,-0.019000000000
15.283073528000,-0.027000000000
15.290761067000,-0.029000000000
15.298448606000,-0.024000000000
15.306136145000,-0.022000000000
15.313823684000,-0.024000000000
15.321511223000,-0.027000000000
15.329198762000,-0.024000000000
15.336886301000,-0.019000000000
15.344573840000,-0.017000000000
15.352261379000,-0.017000000000
15.359948918000,-0.019000000000
15.367636457000,-0.027000000000
15.375323996000,-0.032000000000
15.383011535000,-0.024000000000
15.390699074000,-0.012000000000
15.398386613000,-0.012000000000
15.406074220000,-0.022000000000
15.413761829000,-0.027000000000
15.421449438000,-0.032000000000
15.429137047000,-0.034000000000
15.436824656000,-0.036000000000
15.444512265000,-0.036000000000
15.452199874000,-0.032000000000
15.459887483000,-0.024000000000
15.467575092000,-0.019000000000
15.475262701000,-0.012000000000
15.482950310000,0.009000000000
15.490637919000,0.012000000000
15.498325528000,-0.017000000000
15.506013137000,-0.039000000000
15.513700746000,-0.036000000000
15.521388355000,-0.034000000000
15.529075964000,-0.032000000000
15.536763573000,-0.027000000000
15.544451182000,-0.029000000000
15.552138791000,-0.036000000000
15.559826400000,-0.061000000000
15.567514009000,-0.051000000000
15.575201618000,0.182000000000
15.582889227000,0.628000000000
15.590576836000,0.774000000000
15.598264445000,0.271000000000
15.605952054000,-0.325000000000
15.613639663000,-0.382000000000
15.621327272000,-0.194000000000
15.629014881000,-0.189000000000
15.636702490000,-0.175000000000
15.644390099000,-0.071000000000
15.652077708000,-0.059000000000
15.659765317000,-0.073000000000
15.667452926000,-0.051000000000
15.675140535000,-0.049000000000
15.682828144000,-0.059000000000
15.690515753000,-0.046000000000
15.698203362000,-0.029000000000
15.705890971000,-0.024000000000
15.713578580000,-0.034000000000
15.721266189000,-0.034000000000
15.728953798000,-0.017000000000
15.736641407000,-0.012000000000
15.744329016000,-0.019000000000
15.752016625000,-0.012000000000
15.759704234000,0.002000000000
15.767391843000,0.004000000000
15.775079452000,0.014000000000
15.782767061000,0.024000000000
15.790454670000,0.027000000000
15.798142279000,0.049000000000
15.805829888000,0.081000000000
15.813517497000,0.091000000000
15.821205106000,0.103000000000
15.828892715000,0.120000000000
15.836580324000,0.123000000000
15.844267933000,0.123000000000
15.851955542000,0.128000000000
15.859643151000,0.118000000000
15.867330760000,0.096000000000
15.875018369000,0.064000000000
15.882705978000,0.017000000000
15.890393587000,-0.029000000000
15.898081196000,-0.064000000000
15.905768805000,-0.096000000000
15.913456414000,-0.128000000000
15.921144023000,-0.145000000000
15.928831632000,-0.147000000000
15.936519241000,-0.150000000000
15.944206850000,-0.152000000000
15.951894459000,-0.143000000000
15.959582068000,-0.135000000000
15.967269726000,-0.135000000000
15.974957614000,-0.133000000000
15.982645502000,-0.128000000000
15.990333390000,-0.125000000000
15.998021278000,-0.118000000000
16.005709166000,-0.110000000000
16.013397054000,-0.115000000000
16.021084942000,-0.120000000000
16.028772830000,-0.110000000000
16.036460718000,-0.101000000000
16.044148606000,-0.103000000000
16.051836494000,-0.103000000000
16.059524382000,-0.103000000000
16.067212270000,-0.113000000000
16.074900158000,-0.118000000000
16.082588046000,-0.120000000000
16.090275934000,-0.120000000000
16.097963822000,-0.115000000000
16.105651710000,-0.110000000000
16.113339598000,-0.110000000000
16.121027486000,-0.108000000000
16.128715374000,-0.108000000000
16.136403262000,-0.110000000000
16.144091150000,-0.098000000000
16.151779038000,-0.098000000000
16.159466926000,-0.118000000000
16.167154814000,-0.115000000000
16.174842702000,-0.093000000000
16.182530590000,-0.098000000000
16.190218478000,-0.108000000000
16.197906366000,-0.096000000000
16.205594254000,-0.093000000000
16.213282142000,-0.103000000000
16.220970030000,-0.098000000000
16.228657918000,-0.093000000000
16.236345806000,-0.106000000000
16.244033694000,-0.113000000000
16.251721582000,-0.106000000000
16.259409470000,-0.093000000000
16.267097358000,-0.088000000000
16.274785246000,-0.086000000000
16.282473134000,-0.073000000000
16.290161022000,-0.061000000000
16.297848910000,-0.066000000000
16.305536798000,-0.081000000000
16.313224686000,-0.081000000000
16.320912574000,-0.086000000000
16.328600462000,-0.096000000000
16.336288350000,-0.093000000000
16.343976238000,-0.083000000000
16.351664126000,-0.088000000000
16.359352014000,-0.096000000000
16.367039902000,-0.113000000000
16.374727790000,-0.125000000000
16.382415678000,0.056000000000
16.390103566000,0.507000000000
16.397791454000,0.766000000000
16.405479342000,0.364000000000
16.413167230000,-0.286000000000
16.420855118000,-0.456000000000
16.428543006000,-0.271000000000
16.436230894000,-0.221000000000
16.443918782000,-0.216000000000
16.451606670000,-0.123000000000
16.459294558000,-0.088000000000
16.466982446000,-0.108000000000
16.474670334000,-0.091000000000
16.482358222000,-0.078000000000
16.490046110000,-0.081000000000
16.497733998000,-0.066000000000
16.505421886000,-0.056000000000
16.513109774000,-0.069000000000
16.520797662000,-0.066000000000
16.528485572000,-0.049000000000
16.536173111000,-0.044000000000
16.543860650000,-0.044000000000
16.551548189000,-0.041000000000
16.559235728000,-0.039000000000
16.566923267000,-0.034000000000
16.574610806000,-0.029000000000
16.582298345000,-0.014000000000
16.589985884000,-0.002000000000
16.597673423000,0.000000000000
16.605360962000,0.009000000000
16.613048501000,0.032000000000
16.620736040000,0.046000000000
16.628423579000,0.051000000000
16.636111118000,0.064000000000
16.643798657000,0.083000000000
16.651486196000,0.083000000000
16.659173735000,0.076000000000
16.666861274000,0.073000000000
16.674548813000,0.064000000000
16.682236352000,0.034000000000
16.689923891000,0.000000000000
16.697611430000,-0.041000000000
16.705298969000,-0.081000000000
16.712986508000,-0.113000000000
16.720674047000,-0.140000000000
16.728361586000,-0.152000000000
16.736049125000,-0.150000000000
16.743736664000,-0.152000000000
16.751424203000,-0.167000000000
16.759111742000,-0.167000000000
16.766799281000,-0.150000000000
16.774486820000,-0.140000000000
16.782174359000,-0.140000000000
16.789861898000,-0.133000000000
16.797549437000,-0.123000000000
16.805236976000,-0.128000000000
16.812924515000,-0.135000000000
16.820612054000,-0.128000000000
16.828299593000,-0.115000000000
16.835987132000,-0.110000000000
16.843674671000,-0.113000000000
16.851362210000,-0.118000000000
16.859049749000,-0.125000000000
16.866737288000,-0.125000000000
16.874424827000,-0.110000000000
16.882112366000,-0.103000000000
16.889799905000,-0.120000000000
16.897487444000,-0.130000000000
16.905174983000,-0.118000000000
16.912862522000,-0.115000000000
16.920550061000,-0.115000000000
16.928237600000,-0.106000000000
16.935925139000,-0.106000000000
16.943612678000,-0.115000000000
16.951300217000,-0.113000000000
16.958987756000,-0.103000000000
16.966675295000,-0.106000000000
16.974362834000,-0.110000000000
16.982050373000,-0.106000000000
16.989737912000,-0.098000000000
16.997425451000,-0.101000000000
17.005112990000,-0.096000000000
17.012800529000,-0.091000000000
17.020488068000,-0.093000000000
17.028175607000,-0.096000000000
17.035863146000,-0.093000000000
17.043550685000,-0.093000000000
17.051238224000,-0.096000000000
17.058925763000,-0.093000000000
17.066613302000,-0.093000000000
17.074300841000,-0.101000000000
17.081988380000,-0.103000000000
17.089675987000,-0.098000000000
17.097363526000,-0.091000000000
17.105051065000,-0.081000000000
17.112738604000,-0.071000000000
17.120426143000,-0.059000000000
17.128113682000,-0.049000000000
17.135801221000,-0.059000000000
17.143488760000,-0.081000000000
17.151176299000,-0.083000000000
17.158863838000,-0.083000000000
17.166551377000,-0.091000000000
17.174238916000,-0.088000000000
17.181926455000,-0.083000000000
17.189613994000,-0.083000000000
17.197301533000,-0.086000000000
17.204989072000,-0.108000000000
17.212676611000,-0.108000000000
17.220364150000,0.098000000000
17.228051689000,0.552000000000
17.235739228000,0.781000000000
17.243426767000,0.372000000000
17.251114306000,-0.246000000000
17.258801845000,-0.387000000000
17.266489384000,-0.209000000000
17.274176923000,-0.189000000000
17.281864462000,-0.212000000000
17.289552001000,-0.130000000000
17.297239540000,-0.096000000000
17.304927079000,-0.113000000000
17.312614618000,-0.101000000000
17.320302157000,-0.083000000000
17.327989696000,-0.088000000000
17.335677235000,-0.078000000000
17.343364774000,-0.069000000000
17.351052313000,-0.073000000000
17.358739852000,-0.071000000000
17.366427391000,-0.064000000000
17.374114930000,-0.059000000000
17.381802469000,-0.049000000000
17.389490008000,-0.039000000000
17.397177547000,-0.036000000000
17.404865086000,-0.034000000000
17.412552625000,-0.029000000000
17.420240164000,-0.019000000000
17.427927703000,0.002000000000
17.435615242000,0.014000000000
17.443302781000,0.024000000000
17.450990320000,0.041000000000
17.458677859000,0.061000000000
17.466365398000,0.069000000000
17.474052937000,0.076000000000
17.481740476000,0.088000000000
17.489428015000,0.086000000000
17.497115554000,0.071000000000
17.504803093000,0.073000000000
17.512490632000,0.083000000000
17.520178171000,0.059000000000
17.527865710000,0.007000000000
17.535553249000,-0.034000000000
17.543240788000,-0.056000000000
17.550928327000,-0.088000000000
17.558615866000,-0.128000000000
17.566303405000,-0.143000000000
17.573990944000,-0.140000000000
17.581678483000,-0.140000000000
17.589366022000,-0.138000000000
17.597053561000,-0.138000000000
17.604741100000,-0.135000000000
17.612428639000,-0.133000000000
17.620116178000,-0.133000000000
17.627803717000,-0.128000000000
17.635491256000,-0.113000000000
17.643178795000,-0.106000000000
17.650866402000,-0.108000000000
17.658553941000,-0.110000000000
17.666241480000,-0.113000000000
17.673929019000,-0.110000000000
17.681616558000,-0.103000000000
17.689304097000,-0.108000000000
17.696991636000,-0.113000000000
17.704679175000,-0.108000000000
17.712366714000,-0.103000000000
17.720054253000,-0.106000000000
17.727741792000,-0.110000000000
17.735429331000,-0.103000000000
17.743116870000,-0.098000000000
17.750804409000,-0.110000000000
17.758491948000,-0.115000000000
17.766179487000,-0.110000000000
17.773867026000,-0.110000000000
17.781554565000,-0.108000000000
17.789242104000,-0.096000000000
17.796929643000,-0.101000000000
17.804617182000,-0.110000000000
17.812304721000,-0.103000000000
17.819992260000,-0.098000000000
17.827679799000,-0.110000000000
17.835367338000,-0.106000000000
17.843054877000,-0.086000000000
17.850742416000,-0.083000000000
17.858429955000,-0.093000000000
17.866117494000,-0.101000000000
17.873805033000,-0.098000000000
17.881492572000,-0.101000000000
17.889180111000,-0.106000000000
17.896867650000,-0.098000000000
17.904555189000,-0.093000000000
17.912242728000,-0.103000000000
17.919930267000,-0.103000000000
17.927617806000,-0.081000000000
17.935305345000,-0.054000000000
17.942992884000,-0.046000000000
17.950680423000,-0.073000000000
17.958367962000,-0.096000000000
17.966055501000,-0.081000000000
17.973743040000,-0.076000000000
17.981430579000,-0.101000000000
17.989118118000,-0.108000000000
17.996805657000,-0.086000000000
18.004493196000,-0.078000000000
18.012180735000,-0.101000000000
18.019868274000,-0.118000000000
18.027555813000,-0.027000000000
18.035243352000,0.330000000000
18.042930891000,0.720000000000
18.050618430000,0.537000000000
18.058305969000,-0.162000000000
18.065993508000,-0.552000000000
18.073681047000,-0.394000000000
18.081368586000,-0.256000000000
18.089056125000,-0.271000000000
18.096743664000,-0.180000000000
18.104431203000,-0.081000000000
18.112118742000,-0.083000000000
18.119806281000,-0.078000000000
18.127493820000,-0.061000000000
18.135181359000,-0.066000000000
18.142868898000,-0.064000000000
18.150556437000,-0.051000000000
18.158243976000,-0.044000000000
18.165931515000,-0.034000000000
18.173619054000,-0.027000000000
18.181306593000,-0.022000000000
18.188994132000,-0.019000000000
18.196681671000,-0.009000000000
18.204369210000,0.000000000000
18.212056817000,0.000000000000
18.219744356000,0.007000000000
18.227431895000,0.029000000000
18.235119434000,0.034000000000
18.242806973000,0.036000000000
18.250494512000,0.064000000000
18.258182051000,0.088000000000
18.265869590000,0.096000000000
18.273557129000,0.110000000000
18.281244668000,0.125000000000
18.288932207000,0.138000000000
18.296619746000,0.143000000000
18.304307285000,0.135000000000
18.311994824000,0.120000000000
18.319682363000,0.106000000000
18.327369902000,0.076000000000
18.335057441000,0.034000000000
18.342744980000,-0.012000000000
18.350432519000,-0.056000000000
18.358120058000,-0.088000000000
18.365807597000,-0.115000000000
18.373495136000,-0.145000000000
18.381182675000,-0.157000000000
18.388870214000,-0.157000000000
18.396557753000,-0.160000000000
18.404245292000,-0.160000000000
18.411932831000,-0.147000000000
18.419620370000,-0.140000000000
18.427307909000,-0.138000000000
18.434995448000,-0.128000000000
18.442682987000,-0.123000000000
18.450370526000,-0.113000000000
18.458058065000,-0.096000000000
18.465745604000,-0.088000000000
18.473433143000,-0.088000000000
18.481120682000,-0.088000000000
18.488808221000,-0.096000000000
18.496495760000,-0.098000000000
18.504183299000,-0.088000000000
18.511870838000,-0.091000000000
18.519558377000,-0.106000000000
18.527245916000,-0.106000000000
18.534933455000,-0.093000000000
18.542620994000,-0.091000000000
18.550308533000,-0.101000000000
18.557996072000,-0.110000000000
18.565683611000,-0.103000000000
18.573371150000,-0.091000000000
18.581058689000,-0.093000000000
18.588746228000,-0.098000000000
18.596433767000,-0.096000000000
18.604121306000,-0.096000000000
18.611808845000,-0.093000000000
18.619496384000,-0.086000000000
18.627183923000,-0.088000000000
18.634871462000,-0.088000000000
18.642559001000,-0.081000000000
18.650246540000,-0.073000000000
18.657934079000,-0.076000000000
18.665621618000,-0.069000000000
18.673309157000,-0.064000000000
18.680996696000,-0.076000000000
18.688684235000,-0.086000000000
18.696371774000,-0.078000000000
18.704059313000,-0.071000000000
18.711746852000,-0.064000000000
18.719434391000,-0.046000000000
18.727121930000,-0.034000000000
18.734809469000,-0.027000000000
18.742497008000,-0.019000000000
18.750184547000,-0.024000000000
18.757872086000,-0.039000000000
18.765559625000,-0.049000000000
18.773247232000,-0.046000000000
18.780934841000,-0.044000000000
18.788622450000,-0.039000000000
18.796310059000,-0.034000000000
18.803997668000,-0.032000000000
18.811685277000,-0.046000000000
18.819372886000,-0.081000000000
18.827060495000,-0.039000000000
18.834748104000,0.268000000000
18.842435713000,0.737000000000
18.850123322000,0.774000000000
18.857810931000,0.172000000000
18.865498540000,-0.362000000000
18.873186149000,-0.320000000000
18.880873758000,-0.147000000000
18.888561367000,-0.155000000000
18.896248976000,-0.113000000000
18.903936585000,-0.027000000000
18.911624194000,-0.034000000000
18.919311803000,-0.044000000000
18.926999412000,-0.019000000000
18.934687021000,-0.009000000000
18.942374630000,-0.007000000000
18.950062239000,0.004000000000
18.957749848000,0.012000000000
18.965437457000,0.012000000000
18.973125066000,0.019000000000
18.980812675000,0.027000000000
18.988500284000,0.024000000000
18.996187893000,0.027000000000
19.003875502000,0.032000000000
19.011563111000,0.029000000000
19.019250720000,0.034000000000
19.026938329000,0.054000000000
19.034625938000,0.069000000000
19.042313547000,0.073000000000
19.050001156000,0.086000000000
19.057688765000,0.106000000000
19.065376374000,0.120000000000
19.073063983000,0.125000000000
19.080751592000,0.135000000000
19.088439201000,0.150000000000
19.096126810000,0.155000000000
19.103814419000,0.157000000000
19.111502028000,0.170000000000
19.119189637000,0.160000000000
19.126877246000,0.133000000000
19.134564855000,0.106000000000
19.142252464000,0.071000000000
19.149940073000,0.027000000000
19.157627682000,-0.007000000000
19.165315291000,-0.034000000000
19.173002900000,-0.059000000000
19.180690509000,-0.064000000000
19.188378118000,-0.066000000000
19.196065727000,-0.076000000000
19.203753336000,-0.076000000000
19.211440945000,-0.064000000000
19.219128554000,-0.061000000000
19.226816163000,-0.061000000000
19.234503772000,-0.054000000000
19.242191381000,-0.046000000000
19.249878990000,-0.051000000000
19.257566599000,-0.054000000000
19.265254208000,-0.044000000000
19.272941817000,-0.041000000000
19.280629426000,-0.049000000000
19.288317035000,-0.049000000000
19.296004644000,-0.046000000000
19.303692253000,-0.046000000000
19.311379862000,-0.041000000000
19.319067471000,-0.039000000000
19.326755080000,-0.046000000000
19.334442738000,-0.049000000000
19.342130626000,-0.049000000000
19.349818514000,-0.054000000000
19.357506402000,-0.051000000000
19.365194290000,-0.041000000000
19.372882178000,-0.039000000000
19.380570066000,-0.041000000000
19.388257954000,-0.046000000000
19.395945842000,-0.054000000000
19.403633730000,-0.056000000000
19.411321618000,-0.044000000000
19.419009506000,-0.039000000000
19.426697394000,-0.044000000000
19.434385282000,-0.036000000000
19.442073170000,-0.039000000000
19.449761058000,-0.049000000000
19.457448946000,-0.041000000000
19.465136834000,-0.034000000000
19.472824722000,-0.039000000000
19.480512610000,-0.046000000000
19.488200498000,-0.044000000000
19.495888386000,-0.036000000000
19.503576274000,-0.036000000000
19.511264162000,-0.046000000000
19.518952050000,-0.054000000000
19.526639938000,-0.054000000000
19.534327826000,-0.046000000000
19.542015714000,-0.036000000000
19.549703602000,-0.029000000000
19.557391490000,-0.014000000000
19.565079378000,-0.002000000000
19.572767266000,-0.009000000000
19.580455154000,-0.024000000000
19.588143042000,-0.032000000000
19.595830930000,-0.036000000000
19.603518818000,-0.049000000000
19.611206706000,-0.046000000000
19.618894594000,-0.036000000000
19.626582482000,-0.034000000000
19.634270370000,-0.039000000000
19.641958258000,-0.066000000000
19.649646146000,-0.081000000000
19.657334034000,0.103000000000
19.665021922000,0.557000000000
19.672709810000,0.835000000000
19.680397698000,0.466000000000
19.688085586000,-0.192000000000
19.695773474000,-0.389000000000
19.703461362000,-0.199000000000
19.711149250000,-0.152000000000
19.718837138000,-0.175000000000
19.726525026000,-0.088000000000
19.734212914000,-0.054000000000
19.741900802000,-0.086000000000
19.749588690000,-0.071000000000
19.757276578000,-0.049000000000
19.764964466000,-0.059000000000
19.772652354000,-0.056000000000
19.780340242000,-0.041000000000
19.788028130000,-0.041000000000
19.795716018000,-0.039000000000
19.803403906000,-0.034000000000
19.811091794000,-0.034000000000
19.818779682000,-0.022000000000
19.826467570000,-0.009000000000
19.834155458000,0.000000000000
19.841843346000,0.000000000000
19.849531234000,-0.004000000000
19.857219122000,-0.004000000000
19.864907010000,0.007000000000
19.872594898000,0.024000000000
19.880282786000,0.041000000000
19.887970674000,0.061000000000
19.895658584000,0.078000000000
19.903346123000,0.081000000000
19.911033662000,0.083000000000
19.918721201000,0.098000000000
19.926408740000,0.103000000000
19.934096279000,0.098000000000
19.941783818000,0.091000000000
19.949471357000,0.088000000000
19.957158896000,0.061000000000
19.964846435000,0.014000000000
19.972533974000,-0.019000000000
19.980221513000,-0.049000000000
19.987909052000,-0.091000000000
19.995596591000,-0.113000000000
20.003284130000,-0.118000000000
20.010971669000,-0.128000000000
20.018659208000,-0.143000000000
20.026346747000,-0.140000000000
20.034034286000,-0.128000000000
20.041721825000,-0.128000000000
20.049409364000,-0.128000000000
20.057096903000,-0.125000000000
20.064784442000,-0.125000000000
20.072471981000,-0.113000000000
20.080159520000,-0.106000000000
20.087847059000,-0.113000000000
20.095534598000,-0.118000000000
20.103222137000,-0.103000000000
20.110909676000,-0.101000000000
20.118597215000,-0.108000000000
20.126284754000,-0.110000000000
20.133972293000,-0.108000000000
20.141659832000,-0.108000000000
20.149347371000,-0.118000000000
20.157034910000,-0.118000000000
20.164722449000,-0.108000000000
20.172409988000,-0.110000000000
20.180097527000,-0.118000000000
20.187785066000,-0.120000000000
20.195472605000,-0.108000000000
20.203160144000,-0.098000000000
20.210847683000,-0.113000000000
20.218535222000,-0.123000000000
20.226222761000,-0.106000000000
20.233910300000,-0.106000000000
20.241597839000,-0.118000000000
20.249285378000,-0.118000000000
20.256972917000,-0.106000000000
20.264660456000,-0.103000000000
20.272347995000,-0.108000000000
20.280035534000,-0.113000000000
20.287723073000,-0.108000000000
20.295410612000,-0.098000000000
20.303098151000,-0.108000000000
20.310785690000,-0.110000000000
20.318473229000,-0.106000000000
20.326160768000,-0.106000000000
20.333848307000,-0.106000000000
20.341535846000,-0.108000000000
20.349223385000,-0.103000000000
20.356910924000,-0.083000000000
20.364598463000,-0.076000000000
20.372286002000,-0.073000000000
20.379973541000,-0.061000000000
20.387661080000,-0.071000000000
20.395348619000,-0.088000000000
20.403036158000,-0.098000000000
20.410723697000,-0.108000000000
20.418411236000,-0.103000000000
20.426098775000,-0.088000000000
20.433786314000,-0.091000000000
20.441473853000,-0.091000000000
20.449161392000,-0.096000000000
20.456848999000,-0.120000000000
20.464536538000,-0.049000000000
20.472224077000,0.293000000000
20.479911616000,0.710000000000
20.487599155000,0.591000000000
20.495286694000,-0.101000000000
20.502974233000,-0.552000000000
20.510661772000,-0.429000000000
20.518349311000,-0.271000000000
20.526036850000,-0.276000000000
20.533724389000,-0.194000000000
20.541411928000,-0.091000000000
20.549099467000,-0.096000000000
20.556787006000,-0.103000000000
20.564474545000,-0.071000000000
20.572162084000,-0.059000000000
20.579849623000,-0.056000000000
20.587537162000,-0.046000000000
20.595224701000,-0.044000000000
20.602912240000,-0.041000000000
20.610599779000,-0.039000000000
20.618287318000,-0.032000000000
20.625974857000,-0.027000000000
20.633662396000,-0.019000000000
20.641349935000,-0.012000000000
20.649037474000,0.000000000000
20.656725013000,0.017000000000
20.664412552000,0.022000000000
20.672100091000,0.029000000000
20.679787630000,0.054000000000
20.687475169000,0.071000000000
20.695162708000,0.078000000000
20.702850247000,0.088000000000
20.710537786000,0.106000000000
20.718225325000,0.123000000000
20.725912864000,0.133000000000
20.733600403000,0.128000000000
20.741287942000,0.125000000000
20.748975481000,0.125000000000
20.756663020000,0.108000000000
20.764350559000,0.078000000000
20.772038098000,0.044000000000
20.779725637000,0.000000000000
20.787413176000,-0.051000000000
20.795100715000,-0.098000000000
20.802788254000,-0.128000000000
20.810475793000,-0.147000000000
20.818163332000,-0.152000000000
20.825850871000,-0.160000000000
20.833538410000,-0.167000000000
20.841225949000,-0.162000000000
20.848913488000,-0.150000000000
20.856601027000,-0.147000000000
20.864288566000,-0.150000000000
20.871976105000,-0.143000000000
20.879663644000,-0.128000000000
20.887351183000,-0.118000000000
20.895038722000,-0.113000000000
20.902726261000,-0.108000000000
20.910413800000,-0.110000000000
20.918101339000,-0.110000000000
20.925788878000,-0.106000000000
20.933476417000,-0.106000000000
20.941163956000,-0.110000000000
20.948851495000,-0.103000000000
20.956539034000,-0.108000000000
20.964226573000,-0.113000000000
20.971914112000,-0.106000000000
20.979601651000,-0.106000000000
20.987289190000,-0.115000000000
20.994976729000,-0.113000000000
21.002664268000,-0.106000000000
21.010351807000,-0.106000000000
21.018039414000,-0.110000000000
21.025726953000,-0.113000000000
21.033414492000,-0.108000000000
21.041102031000,-0.106000000000
21.048789570000,-0.108000000000
21.056477109000,-0.103000000000
21.064164648000,-0.098000000000
21.071852187000,-0.103000000000
21.079539726000,-0.096000000000
21.087227265000,-0.091000000000
21.094914804000,-0.101000000000
21.102602343000,-0.101000000000
21.110289882000,-0.086000000000
21.117977421000,-0.078000000000
21.125664960000,-0.083000000000
21.133352499000,-0.096000000000
21.141040038000,-0.106000000000
21.148727577000,-0.101000000000
21.156415116000,-0.096000000000
21.164102655000,-0.093000000000
21.171790194000,-0.083000000000
21.179477733000,-0.071000000000
21.187165272000,-0.066000000000
21.194852811000,-0.049000000000
21.202540350000,-0.036000000000
21.210227889000,-0.064000000000
21.217915428000,-0.086000000000
21.225602967000,-0.078000000000
21.233290506000,-0.073000000000
21.240978045000,-0.081000000000
21.248665584000,-0.083000000000
21.256353123000,-0.073000000000
21.264040662000,-0.071000000000
21.271728201000,-0.101000000000
21.279415740000,-0.125000000000
21.287103279000,0.039000000000
21.294790818000,0.490000000000
21.302478357000,0.821000000000
21.310165896000,0.503000000000
21.317853435000,-0.182000000000
21.325540974000,-0.438000000000
21.333228513000,-0.253000000000
21.340916052000,-0.184000000000
21.348603591000,-0.212000000000
21.356291130000,-0.130000000000
21.363978669000,-0.076000000000
21.371666208000,-0.103000000000
21.379353747000,-0.098000000000
21.387041286000,-0.071000000000
21.394728825000,-0.073000000000
21.402416364000,-0.078000000000
21.410103903000,-0.064000000000
21.417791442000,-0.051000000000
21.425478981000,-0.051000000000
21.433166520000,-0.051000000000
21.440854059000,-0.041000000000
21.448541598000,-0.034000000000
21.456229137000,-0.034000000000
21.463916676000,-0.034000000000
21.471604215000,-0.029000000000
21.479291754000,-0.022000000000
21.486979293000,-0.012000000000
21.494666832000,-0.004000000000
21.502354371000,0.002000000000
21.510041910000,0.014000000000
21.517729449000,0.029000000000
21.525416988000,0.039000000000
21.533104527000,0.051000000000
21.540792066000,0.064000000000
21.548479605000,0.064000000000
21.556167144000,0.071000000000
21.563854683000,0.091000000000
21.571542222000,0.088000000000
21.579229829000,0.069000000000
21.586917368000,0.051000000000
21.594604907000,0.017000000000
21.602292446000,-0.032000000000
21.609979985000,-0.066000000000
21.617667524000,-0.091000000000
21.625355063000,-0.113000000000
21.633042602000,-0.133000000000
21.640730141000,-0.145000000000
21.648417680000,-0.147000000000
21.656105219000,-0.140000000000
21.663792758000,-0.135000000000
21.671480297000,-0.135000000000
21.679167836000,-0.125000000000
21.686855375000,-0.120000000000
21.694542914000,-0.123000000000
21.702230453000,-0.120000000000
21.709917992000,-0.113000000000
21.717605531000,-0.115000000000
21.725293070000,-0.118000000000
21.732980609000,-0.110000000000
21.740668148000,-0.108000000000
21.748355687000,-0.108000000000
21.756043226000,-0.103000000000
21.763730765000,-0.101000000000
21.771418304000,-0.108000000000
21.779105843000,-0.113000000000
21.786793382000,-0.110000000000
21.794480921000,-0.110000000000
21.802168460000,-0.110000000000
21.809855999000,-0.108000000000
21.817543538000,-0.103000000000
21.825231077000,-0.103000000000
21.832918616000,-0.108000000000
21.840606155000,-0.110000000000
21.848293694000,-0.108000000000
21.855981233000,-0.101000000000
21.863668772000,-0.098000000000
21.871356311000,-0.088000000000
21.879043850000,-0.078000000000
21.886731389000,-0.081000000000
21.894418928000,-0.091000000000
21.902106467000,-0.088000000000
21.909794006000,-0.083000000000
21.917481545000,-0.083000000000
21.925169084000,-0.093000000000
21.932856623000,-0.093000000000
21.940544162000,-0.078000000000
21.948231701000,-0.066000000000
21.955919240000,-0.076000000000
21.963606779000,-0.101000000000
21.971294318000,-0.098000000000
21.978981857000,-0.078000000000
21.986669396000,-0.078000000000
21.994356935000,-0.071000000000
22.002044474000,-0.051000000000
22.009732013000,-0.041000000000
22.017419552000,-0.041000000000
22.025107091000,-0.054000000000
22.032794630000,-0.069000000000
22.040482169000,-0.066000000000
22.048169708000,-0.064000000000
22.055857247000,-0.078000000000
22.063544786000,-0.076000000000
22.071232325000,-0.064000000000
22.078919864000,-0.056000000000
22.086607403000,-0.064000000000
22.094294942000,-0.096000000000
22.101982481000,-0.091000000000
22.109670020000,0.160000000000
22.117357559000,0.626000000000
22.125045098000,0.771000000000
22.132732637000,0.261000000000
22.140420244000,-0.327000000000
22.148107853000,-0.374000000000
22.155795462000,-0.194000000000
22.163483071000,-0.197000000000
22.171170680000,-0.187000000000
22.178858289000,-0.098000000000
22.186545898000,-0.086000000000
22.194233507000,-0.096000000000
22.201921116000,-0.071000000000
22.209608725000,-0.069000000000
22.217296334000,-0.081000000000
22.224983943000,-0.064000000000
22.232671552000,-0.049000000000
22.240359161000,-0.051000000000
22.248046770000,-0.044000000000
22.255734379000,-0.041000000000
22.263421988000,-0.044000000000
22.271109597000,-0.036000000000
22.278797206000,-0.029000000000
22.286484815000,-0.027000000000
22.294172424000,-0.019000000000
22.301860033000,-0.004000000000
22.309547642000,0.009000000000
22.317235251000,0.017000000000
22.324922860000,0.027000000000
22.332610469000,0.041000000000
22.340298078000,0.054000000000
22.347985687000,0.066000000000
22.355673296000,0.081000000000
22.363360905000,0.086000000000
22.371048514000,0.093000000000
22.378736123000,0.101000000000
22.386423732000,0.096000000000
22.394111341000,0.091000000000
22.401798950000,0.081000000000
22.409486559000,0.046000000000
22.417174168000,0.007000000000
22.424861777000,-0.029000000000
22.432549386000,-0.066000000000
22.440236995000,-0.101000000000
22.447924604000,-0.128000000000
22.455612213000,-0.152000000000
22.463299822000,-0.157000000000
22.470987431000,-0.145000000000
22.478675040000,-0.147000000000
22.486362649000,-0.150000000000
22.494050258000,-0.143000000000
22.501737867000,-0.138000000000
22.509425476000,-0.130000000000
22.517113085000,-0.118000000000
22.524800694000,-0.115000000000
22.532488303000,-0.120000000000
22.540175912000,-0.115000000000
22.547863521000,-0.113000000000
22.555551130000,-0.115000000000
22.563238739000,-0.106000000000
22.570926348000,-0.103000000000
22.578613957000,-0.110000000000
22.586301566000,-0.106000000000
22.593989175000,-0.110000000000
22.601676784000,-0.133000000000
22.609364393000,-0.133000000000
22.617052002000,-0.120000000000
22.624739611000,-0.118000000000
22.632427220000,-0.115000000000
22.640114829000,-0.113000000000
22.647802438000,-0.115000000000
22.655490047000,-0.106000000000
22.663177656000,-0.108000000000
22.670865265000,-0.125000000000
22.678552874000,-0.123000000000
22.686240483000,-0.103000000000
22.693928092000,-0.096000000000
22.701615750000,-0.106000000000
22.709303638000,-0.110000000000
22.716991526000,-0.098000000000
22.724679414000,-0.101000000000
22.732367302000,-0.103000000000
22.740055190000,-0.091000000000
22.747743078000,-0.096000000000
22.755430966000,-0.110000000000
22.763118854000,-0.101000000000
22.770806742000,-0.086000000000
22.778494630000,-0.081000000000
22.786182518000,-0.073000000000
22.793870406000,-0.066000000000
22.801558294000,-0.059000000000
22.809246182000,-0.061000000000
22.816934070000,-0.076000000000
22.824621958000,-0.091000000000
22.832309846000,-0.091000000000
22.839997734000,-0.081000000000
22.847685622000,-0.071000000000
22.855373510000,-0.076000000000
22.863061398000,-0.076000000000
22.870749286000,-0.078000000000
22.878437174000,-0.101000000000
22.886125062000,-0.056000000000
22.893812950000,0.249000000000
22.901500838000,0.705000000000
22.909188726000,0.700000000000
22.916876614000,0.039000000000
22.924564502000,-0.498000000000
22.932252390000,-0.424000000000
22.939940278000,-0.239000000000
22.947628166000,-0.241000000000
22.955316054000,-0.182000000000
22.963003942000,-0.061000000000
22.970691830000,-0.032000000000
22.978379718000,-0.044000000000
22.986067606000,-0.017000000000
22.993755494000,0.007000000000
23.001443382000,-0.004000000000
23.009131270000,-0.009000000000
23.016819158000,0.014000000000
23.024507046000,0.032000000000
23.032194934000,0.027000000000
23.039882822000,0.029000000000
23.047570710000,0.044000000000
23.055258598000,0.054000000000
23.062946486000,0.066000000000
23.070634374000,0.076000000000
23.078322262000,0.083000000000
23.086010150000,0.091000000000
23.093698038000,0.106000000000
23.101385926000,0.123000000000
23.109073814000,0.140000000000
23.116761702000,0.160000000000
23.124449590000,0.177000000000
23.132137478000,0.194000000000
23.139825366000,0.207000000000
23.147513254000,0.214000000000
23.155201142000,0.216000000000
23.162889030000,0.216000000000
23.170576918000,0.219000000000
23.178264806000,0.207000000000
23.185952694000,0.170000000000
23.193640582000,0.123000000000
23.201328470000,0.083000000000
23.209016358000,0.041000000000
23.216704246000,-0.007000000000
23.224392134000,-0.046000000000
23.232080022000,-0.064000000000
23.239767910000,-0.069000000000
23.247455798000,-0.078000000000
23.255143686000,-0.073000000000
23.262831596000,-0.059000000000
23.270519135000,-0.061000000000
23.278206674000,-0.061000000000
23.285894213000,-0.046000000000
23.293581752000,-0.034000000000
23.301269291000,-0.036000000000
23.308956830000,-0.034000000000
23.316644369000,-0.024000000000
23.324331908000,-0.022000000000
23.332019447000,-0.022000000000
23.339706986000,-0.014000000000
23.347394525000,-0.007000000000
23.355082064000,-0.004000000000
23.362769603000,-0.009000000000
23.370457142000,-0.014000000000
23.378144681000,-0.009000000000
23.385832220000,-0.007000000000
23.393519759000,-0.014000000000
23.401207298000,-0.017000000000
23.408894837000,-0.019000000000
23.416582376000,-0.027000000000
23.424269915000,-0.027000000000
23.431957454000,-0.022000000000
23.439644993000,-0.019000000000
23.447332532000,-0.022000000000
23.455020071000,-0.024000000000
23.462707610000,-0.014000000000
23.470395149000,-0.012000000000
23.478082688000,-0.022000000000
23.485770227000,-0.017000000000
23.493457766000,-0.012000000000
23.501145305000,-0.019000000000
23.508832844000,-0.029000000000
23.516520383000,-0.027000000000
23.524207922000,-0.022000000000
23.531895461000,-0.029000000000
23.539583000000,-0.032000000000
23.547270539000,-0.014000000000
23.554958078000,-0.002000000000
23.562645617000,0.004000000000
23.570333156000,0.019000000000
23.578020695000,0.024000000000
23.585708234000,0.004000000000
23.593395773000,-0.007000000000
23.601083312000,-0.007000000000
23.608770851000,-0.014000000000
23.616458390000,-0.019000000000
23.624145929000,-0.012000000000
23.631833468000,-0.002000000000
23.639521007000,-0.007000000000
23.647208546000,-0.044000000000
23.654896085000,-0.066000000000
23.662583624000,0.123000000000
23.670271163000,0.591000000000
23.677958702000,0.875000000000
23.685646241000,0.485000000000
23.693333780000,-0.192000000000
23.701021319000,-0.394000000000
23.708708858000,-0.202000000000
23.716396397000,-0.143000000000
23.724083936000,-0.155000000000
23.731771475000,-0.051000000000
23.739459014000,-0.019000000000
23.747146553000,-0.069000000000
23.754834092000,-0.056000000000
23.762521631000,-0.014000000000
23.770209170000,-0.017000000000
23.777896709000,-0.022000000000
23.785584248000,-0.012000000000
23.793271787000,-0.009000000000
23.800959326000,-0.017000000000
23.808646865000,-0.009000000000
23.816334404000,0.002000000000
23.824022011000,0.002000000000
23.831709550000,0.000000000000
23.839397089000,0.004000000000
23.847084628000,0.009000000000
23.854772167000,0.014000000000
23.862459706000,0.027000000000
23.870147245000,0.044000000000
23.877834784000,0.054000000000
23.885522323000,0.056000000000
23.893209862000,0.066000000000
23.900897401000,0.086000000000
23.908584940000,0.103000000000
23.916272479000,0.113000000000
23.923960018000,0.115000000000
23.931647557000,0.115000000000
23.939335096000,0.120000000000
23.947022635000,0.123000000000
23.954710174000,0.103000000000
23.962397713000,0.066000000000
23.970085252000,0.024000000000
23.977772791000,-0.012000000000
23.985460330000,-0.046000000000
23.993147869000,-0.071000000000
24.000835408000,-0.093000000000
24.008522947000,-0.113000000000
24.016210486000,-0.128000000000
24.023898025000,-0.133000000000
24.031585564000,-0.135000000000
24.039273103000,-0.128000000000
24.046960642000,-0.120000000000
24.054648181000,-0.115000000000
24.062335720000,-0.113000000000
24.070023259000,-0.108000000000
24.077710798000,-0.103000000000
24.085398337000,-0.103000000000
24.093085876000,-0.101000000000
24.100773415000,-0.103000000000
24.108460954000,-0.101000000000
24.116148493000,-0.093000000000
24.123836032000,-0.088000000000
24.131523571000,-0.088000000000
24.139211110000,-0.088000000000
24.146898649000,-0.088000000000
24.154586188000,-0.096000000000
24.162273727000,-0.098000000000
24.169961266000,-0.096000000000
24.177648805000,-0.098000000000
24.185336344000,-0.106000000000
24.193023883000,-0.106000000000
24.200711422000,-0.096000000000
24.208398961000,-0.091000000000
24.216086500000,-0.096000000000
24.223774039000,-0.098000000000
24.231461578000,-0.098000000000
24.239149117000,-0.091000000000
24.246836656000,-0.083000000000
24.254524195000,-0.091000000000
24.262211734000,-0.096000000000
24.269899273000,-0.088000000000
24.277586812000,-0.091000000000
24.285274351000,-0.098000000000
24.292961890000,-0.101000000000
24.300649429000,-0.098000000000
24.308336968000,-0.098000000000
24.316024507000,-0.096000000000
24.323712046000,-0.083000000000
24.331399585000,-0.071000000000
24.339087124000,-0.061000000000
24.346774663000,-0.051000000000
24.354462202000,-0.054000000000
24.362149741000,-0.078000000000
24.369837280000,-0.088000000000
24.377524819000,-0.083000000000
24.385212426000,-0.083000000000
24.392900314000,-0.078000000000
24.400588202000,-0.076000000000
24.408276090000,-0.081000000000
24.415963978000,-0.086000000000
24.423651866000,-0.115000000000
24.431339754000,-0.106000000000
24.439027642000,0.152000000000
24.446715530000,0.631000000000
24.454403418000,0.793000000000
24.462091306000,0.283000000000
24.469779194000,-0.335000000000
24.477467082000,-0.394000000000
24.485154970000,-0.202000000000
24.492842858000,-0.204000000000
24.500530746000,-0.202000000000
24.508218634000,-0.108000000000
24.515906522000,-0.103000000000
24.523594410000,-0.125000000000
24.531282298000,-0.093000000000
24.538970186000,-0.078000000000
24.546658074000,-0.086000000000
24.554345962000,-0.078000000000
24.562033850000,-0.069000000000
24.569721738000,-0.064000000000
24.577409626000,-0.059000000000
24.585097514000,-0.059000000000
24.592785402000,-0.054000000000
24.600473290000,-0.046000000000
24.608161178000,-0.046000000000
24.615849066000,-0.046000000000
24.623536954000,-0.034000000000
24.631224842000,-0.027000000000
24.638912730000,-0.027000000000
24.646600618000,-0.012000000000
24.654288506000,0.014000000000
24.661976394000,0.027000000000
24.669664282000,0.032000000000
24.677352170000,0.041000000000
24.685040058000,0.061000000000
24.692727946000,0.073000000000
24.700415834000,0.066000000000
24.708103722000,0.066000000000
24.715791610000,0.076000000000
24.723479498000,0.066000000000
24.731167386000,0.041000000000
24.738855274000,0.014000000000
24.746543162000,-0.019000000000
24.754231050000,-0.064000000000
24.761918938000,-0.108000000000
24.769606826000,-0.138000000000
24.777294714000,-0.150000000000
24.784982602000,-0.157000000000
24.792670490000,-0.172000000000
24.800358378000,-0.180000000000
24.808046266000,-0.170000000000
24.815734154000,-0.167000000000
24.823422042000,-0.170000000000
24.831109930000,-0.157000000000
24.838797818000,-0.152000000000
24.846485706000,-0.160000000000
24.854173594000,-0.145000000000
24.861861482000,-0.138000000000
24.869549370000,-0.145000000000
24.877237258000,-0.135000000000
24.884925146000,-0.135000000000
24.892613034000,-0.147000000000
24.900300922000,-0.145000000000
24.907988810000,-0.135000000000
24.915676698000,-0.133000000000
24.923364586000,-0.135000000000
24.931052474000,-0.140000000000
24.938740362000,-0.133000000000
24.946428276000,-0.130000000000
24.954115885000,-0.138000000000
24.961803494000,-0.133000000000
24.969491103000,-0.128000000000
24.977178712000,-0.135000000000
24.984866321000,-0.138000000000
24.992553930000,-0.130000000000
25.000241539000,-0.120000000000
25.007929148000,-0.128000000000
25.015616757000,-0.150000000000
25.023304366000,-0.140000000000
25.030991975000,-0.118000000000
25.038679584000,-0.115000000000
25.046367193000,-0.113000000000
25.054054802000,-0.113000000000
25.061742411000,-0.120000000000
25.069430020000,-0.123000000000
25.077117629000,-0.123000000000
25.084805238000,-0.128000000000
25.092492847000,-0.120000000000
25.100180456000,-0.106000000000
25.107868065000,-0.103000000000
25.115555674000,-0.096000000000
25.123243283000,-0.066000000000
25.130930892000,-0.066000000000
25.138618501000,-0.103000000000
25.146306110000,-0.106000000000
25.153993719000,-0.091000000000
25.161681328000,-0.103000000000
25.169368937000,-0.123000000000
25.177056546000,-0.113000000000
25.184744155000,-0.098000000000
25.192431764000,-0.110000000000
25.200119373000,-0.145000000000
25.207806982000,-0.073000000000
25.215494591000,0.283000000000
25.223182200000,0.712000000000
25.230869809000,0.604000000000
25.238557418000,-0.103000000000
25.246245027000,-0.564000000000
25.253932636000,-0.411000000000
25.261620245000,-0.244000000000
25.269307854000,-0.273000000000
25.276995463000,-0.192000000000
25.284683072000,-0.071000000000
25.292370681000,-0.083000000000
25.300058290000,-0.101000000000
25.307745899000,-0.069000000000
25.315433508000,-0.059000000000
25.323121117000,-0.054000000000
25.330808726000,-0.041000000000
25.338496335000,-0.051000000000
25.346183944000,-0.051000000000
25.353871553000,-0.036000000000
25.361559162000,-0.032000000000
25.369246771000,-0.024000000000
25.376934380000,-0.009000000000
25.384621989000,-0.007000000000
25.392309598000,0.004000000000
25.399997207000,0.012000000000
25.407684816000,0.009000000000
25.415372425000,0.024000000000
25.423060034000,0.044000000000
25.430747643000,0.051000000000
25.438435252000,0.073000000000
25.446122861000,0.101000000000
25.453810470000,0.113000000000
25.461498079000,0.125000000000
25.469185688000,0.133000000000
25.476873297000,0.133000000000
25.484560906000,0.128000000000
25.492248515000,0.128000000000
25.499936124000,0.113000000000
25.507623778000,0.076000000000
25.515311317000,0.027000000000
25.522998856000,-0.019000000000
25.530686395000,-0.061000000000
25.538373934000,-0.103000000000
25.546061473000,-0.138000000000
25.553749012000,-0.157000000000
25.561436551000,-0.170000000000
25.569124090000,-0.177000000000
25.576811629000,-0.180000000000
25.584499168000,-0.167000000000
25.592186707000,-0.160000000000
25.599874246000,-0.160000000000
25.607561785000,-0.152000000000
25.615249324000,-0.147000000000
25.622936863000,-0.147000000000
25.630624402000,-0.140000000000
25.638311941000,-0.125000000000
25.645999480000,-0.118000000000
25.653687019000,-0.110000000000
25.661374558000,-0.106000000000
25.669062097000,-0.110000000000
25.676749636000,-0.110000000000
25.684437175000,-0.110000000000
25.692124714000,-0.118000000000
25.699812253000,-0.123000000000
25.707499792000,-0.118000000000
25.715187331000,-0.118000000000
25.722874870000,-0.113000000000
25.730562409000,-0.108000000000
25.738249948000,-0.115000000000
25.745937487000,-0.128000000000
25.753625026000,-0.118000000000
25.761312565000,-0.108000000000
25.769000104000,-0.115000000000
25.776687643000,-0.115000000000
25.784375182000,-0.108000000000
25.792062721000,-0.108000000000
25.799750260000,-0.110000000000
25.807437799000,-0.110000000000
25.815125338000,-0.113000000000
25.822812877000,-0.115000000000
25.830500416000,-0.115000000000
25.838187955000,-0.113000000000
25.845875494000,-0.108000000000
25.853563033000,-0.093000000000
25.861250572000,-0.081000000000
25.868938111000,-0.071000000000
25.876625650000,-0.054000000000
25.884313189000,-0.061000000000
25.892000728000,-0.088000000000
25.899688267000,-0.088000000000
25.907375806000,-0.078000000000
25.915063345000,-0.088000000000
25.922750884000,-0.096000000000
25.930438423000,-0.088000000000
25.938125962000,-0.091000000000
25.945813501000,-0.098000000000
25.953501040000,-0.115000000000
25.961188579000,-0.081000000000
25.968876118000,0.209000000000
25.976563657000,0.675000000000
25.984251196000,0.700000000000
25.991938735000,0.054000000000
25.999626274000,-0.498000000000
26.007313813000,-0.429000000000
26.015001352000,-0.229000000000
26.022688891000,-0.239000000000
26.030376430000,-0.192000000000
26.038063969000,-0.076000000000
26.045751508000,-0.071000000000
26.053439047000,-0.093000000000
26.061126586000,-0.059000000000
26.068814193000,-0.044000000000
26.076501732000,-0.059000000000
26.084189271000,-0.044000000000
26.091876810000,-0.024000000000
26.099564349000,-0.039000000000
26.107251888000,-0.044000000000
26.114939427000,-0.019000000000
26.122626966000,-0.012000000000
26.130314505000,-0.019000000000
26.138002044000,-0.012000000000
26.145689583000,-0.002000000000
26.153377122000,-0.002000000000
26.161064661000,0.002000000000
26.168752200000,0.017000000000
26.176439739000,0.027000000000
26.184127278000,0.034000000000
26.191814817000,0.049000000000
26.199502356000,0.069000000000
26.207189895000,0.081000000000
26.214877434000,0.088000000000
26.222564973000,0.098000000000
26.230252512000,0.103000000000
26.237940051000,0.108000000000
26.245627590000,0.120000000000
26.253315129000,0.118000000000
26.261002668000,0.086000000000
26.268690207000,0.041000000000
26.276377746000,-0.009000000000
26.284065285000,-0.054000000000
26.291752824000,-0.093000000000
26.299440363000,-0.123000000000
26.307127902000,-0.138000000000
26.314815441000,-0.145000000000
26.322502980000,-0.147000000000
26.330190519000,-0.145000000000
26.337878058000,-0.145000000000
26.345565597000,-0.145000000000
26.353253136000,-0.140000000000
26.360940675000,-0.133000000000
26.368628214000,-0.130000000000
26.376315753000,-0.128000000000
26.384003292000,-0.120000000000
26.391690831000,-0.115000000000
26.399378370000,-0.118000000000
26.407065909000,-0.115000000000
26.414753448000,-0.106000000000
26.422440987000,-0.101000000000
26.430128526000,-0.108000000000
26.437816065000,-0.113000000000
26.445503604000,-0.110000000000
26.453191143000,-0.108000000000
26.460878682000,-0.113000000000
26.468566221000,-0.118000000000
26.476253760000,-0.110000000000
26.483941299000,-0.106000000000
26.491628838000,-0.108000000000
26.499316377000,-0.106000000000
26.507003916000,-0.110000000000
26.514691455000,-0.115000000000
26.522378994000,-0.113000000000
26.530066533000,-0.103000000000
26.537754072000,-0.093000000000
26.545441611000,-0.091000000000
26.553129150000,-0.101000000000
26.560816689000,-0.103000000000
26.568504228000,-0.096000000000
26.576191767000,-0.096000000000
26.583879306000,-0.096000000000
26.591566845000,-0.091000000000
26.599254384000,-0.096000000000
26.606941923000,-0.106000000000
26.614629462000,-0.106000000000
26.622317001000,-0.098000000000
26.630004608000,-0.091000000000
26.637692147000,-0.083000000000
26.645379686000,-0.078000000000
26.653067225000,-0.061000000000
26.660754764000,-0.044000000000
26.668442303000,-0.056000000000
26.676129842000,-0.081000000000
26.683817381000,-0.086000000000
26.691504920000,-0.078000000000
26.699192459000,-0.078000000000
26.706879998000,-0.081000000000
26.714567537000,-0.078000000000
26.722255076000,-0.078000000000
26.729942615000,-0.091000000000
26.737630154000,-0.125000000000
26.745317693000,-0.073000000000
26.753005232000,0.249000000000
26.760692771000,0.715000000000
26.768380310000,0.761000000000
26.776067849000,0.170000000000
26.783755388000,-0.377000000000
26.791442927000,-0.342000000000
26.799130466000,-0.170000000000
26.806818005000,-0.197000000000
26.814505544000,-0.175000000000
26.822193083000,-0.091000000000
26.829880622000,-0.101000000000
26.837568161000,-0.115000000000
26.845255700000,-0.083000000000
26.852943239000,-0.076000000000
26.860630778000,-0.083000000000
26.868318317000,-0.064000000000
26.876005856000,-0.051000000000
26.883693395000,-0.061000000000
26.891380934000,-0.056000000000
26.899068473000,-0.041000000000
26.906756012000,-0.036000000000
26.914443551000,-0.041000000000
26.922131090000,-0.041000000000
26.929818629000,-0.039000000000
26.937506168000,-0.032000000000
26.945193707000,-0.014000000000
26.952881246000,-0.009000000000
26.960568785000,-0.002000000000
26.968256324000,0.019000000000
26.975943863000,0.032000000000
26.983631402000,0.034000000000
26.991318941000,0.051000000000
26.999006480000,0.066000000000
27.006694019000,0.073000000000
27.014381558000,0.083000000000
27.022069097000,0.093000000000
27.029756636000,0.096000000000
27.037444175000,0.083000000000
27.045131714000,0.073000000000
27.052819253000,0.056000000000
27.060506792000,-0.002000000000
27.068194331000,-0.071000000000
27.075881870000,-0.093000000000
27.083569409000,-0.103000000000
27.091256948000,-0.135000000000
27.098944487000,-0.145000000000
27.106632026000,-0.133000000000
27.114319565000,-0.130000000000
27.122007104000,-0.130000000000
27.129694643000,-0.130000000000
27.137382182000,-0.135000000000
27.145069721000,-0.133000000000
27.152757260000,-0.123000000000
27.160444799000,-0.118000000000
27.168132338000,-0.120000000000
27.175819877000,-0.118000000000
27.183507416000,-0.110000000000
27.191195023000,-0.108000000000
27.198882562000,-0.106000000000
27.206570101000,-0.108000000000
27.214257640000,-0.113000000000
27.221945179000,-0.106000000000
27.229632718000,-0.101000000000
27.237320257000,-0.103000000000
27.245007796000,-0.103000000000
27.252695335000,-0.103000000000
27.260382874000,-0.108000000000
27.268070413000,-0.110000000000
27.275757952000,-0.110000000000
27.283445491000,-0.106000000000
27.291133030000,-0.106000000000
27.298820569000,-0.108000000000
27.306508108000,-0.103000000000
27.314195647000,-0.103000000000
27.321883186000,-0.101000000000
27.329570725000,-0.098000000000
27.337258264000,-0.096000000000
27.344945803000,-0.093000000000
27.352633342000,-0.088000000000
27.360320881000,-0.083000000000
27.368008420000,-0.091000000000
27.375695959000,-0.096000000000
27.383383498000,-0.088000000000
27.391071037000,-0.083000000000
27.398758576000,-0.086000000000
27.406446115000,-0.086000000000
27.414133654000,-0.086000000000
27.421821193000,-0.086000000000
27.429508732000,-0.088000000000
27.437196271000,-0.091000000000
27.444883810000,-0.083000000000
27.452571349000,-0.066000000000
27.460258888000,-0.051000000000
27.467946427000,-0.036000000000
27.475633966000,-0.036000000000
27.483321505000,-0.061000000000
27.491009044000,-0.076000000000
27.498696583000,-0.069000000000
27.506384122000,-0.066000000000
27.514071661000,-0.064000000000
27.521759200000,-0.051000000000
27.529446739000,-0.051000000000
27.537134278000,-0.064000000000
27.544821817000,-0.091000000000
27.552509356000,-0.091000000000
27.560196895000,0.115000000000
27.567884434000,0.562000000000
27.575571973000,0.761000000000
27.583259512000,0.288000000000
27.590947051000,-0.347000000000
27.598634590000,-0.433000000000
27.606322129000,-0.221000000000
27.614009668000,-0.199000000000
27.621697207000,-0.199000000000
27.629384746000,-0.083000000000
27.637072285000,-0.046000000000
27.644759824000,-0.078000000000
27.652447363000,-0.066000000000
27.660134902000,-0.041000000000
27.667822441000,-0.044000000000
27.675509980000,-0.039000000000
27.683197519000,-0.034000000000
27.690885058000,-0.039000000000
27.698572597000,-0.024000000000
27.706260136000,-0.007000000000
27.713947675000,-0.017000000000
27.721635214000,-0.022000000000
27.729322753000,0.004000000000
27.737010292000,0.022000000000
27.744697831000,0.002000000000
27.752385438000,0.004000000000
27.760072977000,0.034000000000
27.767760516000,0.044000000000
27.775448055000,0.051000000000
27.783135594000,0.083000000000
27.790823133000,0.108000000000
27.798510672000,0.110000000000
27.806198211000,0.115000000000
27.813885750000,0.123000000000
27.821573289000,0.128000000000
27.829260828000,0.138000000000
27.836948367000,0.143000000000
27.844635906000,0.128000000000
27.852323445000,0.098000000000
27.860010984000,0.064000000000
27.867698523000,0.022000000000
27.875386062000,-0.024000000000
27.883073601000,-0.064000000000
27.890761140000,-0.101000000000
27.898448679000,-0.133000000000
27.906136218000,-0.147000000000
27.913823757000,-0.157000000000
27.921511296000,-0.162000000000
27.929198835000,-0.157000000000
27.936886374000,-0.155000000000
27.944573913000,-0.143000000000
27.952261452000,-0.123000000000
27.959948991000,-0.130000000000
27.967636530000,-0.147000000000
27.975324069000,-0.140000000000
27.983011608000,-0.118000000000
27.990699147000,-0.108000000000
27.998386686000,-0.108000000000
28.006074225000,-0.113000000000
28.013761764000,-0.113000000000
28.021449303000,-0.103000000000
28.029136842000,-0.096000000000
28.036824381000,-0.096000000000
28.044511920000,-0.098000000000
28.052199459000,-0.101000000000
28.059886998000,-0.101000000000
28.067574537000,-0.098000000000
28.075262076000,-0.101000000000
28.082949615000,-0.101000000000
28.090637154000,-0.101000000000
28.098324693000,-0.096000000000
28.106012232000,-0.096000000000
28.113699771000,-0.101000000000
28.121387310000,-0.101000000000
28.129074849000,-0.096000000000
28.136762388000,-0.088000000000
28.144449927000,-0.091000000000
28.152137466000,-0.096000000000
28.159825005000,-0.086000000000
28.167512544000,-0.081000000000
28.175200083000,-0.083000000000
28.182887622000,-0.086000000000
28.190575161000,-0.088000000000
28.198262700000,-0.093000000000
28.205950239000,-0.088000000000
28.213637778000,-0.078000000000
28.221325317000,-0.076000000000
28.229012856000,-0.078000000000
28.236700395000,-0.073000000000
28.244387934000,-0.059000000000
28.252075473000,-0.046000000000
28.259763012000,-0.046000000000
28.267450551000,-0.069000000000
28.275138090000,-0.076000000000
28.282825629000,-0.056000000000
28.290513168000,-0.051000000000
28.298200707000,-0.066000000000
28.305888246000,-0.066000000000
28.313575853000,-0.059000000000
28.321263392000,-0.071000000000
28.328950931000,-0.093000000000
28.336638470000,-0.098000000000
28.344326009000,0.054000000000
28.352013548000,0.473000000000
28.359701087000,0.784000000000
28.367388626000,0.429000000000
28.375076165000,-0.288000000000
28.382763704000,-0.525000000000
28.390451243000,-0.303000000000
28.398138782000,-0.216000000000
28.405826321000,-0.231000000000
28.413513860000,-0.118000000000
28.421201399000,-0.044000000000
28.428888938000,-0.069000000000
28.436576477000,-0.064000000000
28.444264016000,-0.034000000000
28.451951555000,-0.024000000000
28.459639094000,-0.024000000000
28.467326633000,-0.019000000000
28.475014172000,-0.024000000000
28.482701711000,-0.027000000000
28.490389250000,-0.019000000000
28.498076789000,-0.009000000000
28.505764328000,-0.004000000000
28.513451867000,0.000000000000
28.521139406000,0.007000000000
28.528826945000,0.014000000000
28.536514484000,0.022000000000
28.544202023000,0.027000000000
28.551889562000,0.039000000000
28.559577101000,0.056000000000
28.567264640000,0.066000000000
28.574952179000,0.071000000000
28.582639718000,0.096000000000
28.590327257000,0.120000000000
28.598014796000,0.125000000000
28.605702335000,0.130000000000
28.613389874000,0.135000000000
28.621077413000,0.130000000000
28.628764952000,0.128000000000
28.636452491000,0.118000000000
28.644140030000,0.091000000000
28.651827569000,0.046000000000
28.659515108000,-0.004000000000
28.667202647000,-0.049000000000
28.674890186000,-0.081000000000
28.682577725000,-0.108000000000
28.690265264000,-0.133000000000
28.697952803000,-0.138000000000
28.705640342000,-0.133000000000
28.713327881000,-0.130000000000
28.721015420000,-0.133000000000
28.728702959000,-0.128000000000
28.736390498000,-0.125000000000
28.744078037000,-0.123000000000
28.751765576000,-0.113000000000
28.759453115000,-0.101000000000
28.767140654000,-0.098000000000
28.774828193000,-0.096000000000
28.782515732000,-0.093000000000
28.790203271000,-0.091000000000
28.797890810000,-0.091000000000
28.805578349000,-0.088000000000
28.813265888000,-0.088000000000
28.820953427000,-0.086000000000
28.828640966000,-0.091000000000
28.836328505000,-0.098000000000
28.844016044000,-0.103000000000
28.851703583000,-0.101000000000
28.859391122000,-0.096000000000
28.867078661000,-0.093000000000
28.874766268000,-0.086000000000
28.882454226000,-0.091000000000
28.890142184000,-0.101000000000
28.897830142000,-0.101000000000
28.905518100000,-0.096000000000
28.913206058000,-0.096000000000
28.920894016000,-0.091000000000
28.928581974000,-0.091000000000
28.936269932000,-0.093000000000
28.943957890000,-0.091000000000
28.951645848000,-0.086000000000
28.959333806000,-0.083000000000
28.967021764000,-0.076000000000
28.974709722000,-0.071000000000
28.982397680000,-0.073000000000
28.990085638000,-0.073000000000
28.997773596000,-0.071000000000
29.005461554000,-0.071000000000
29.013149512000,-0.071000000000
29.020837470000,-0.071000000000
29.028525428000,-0.073000000000
29.036213386000,-0.076000000000
29.043901344000,-0.083000000000
29.051589302000,-0.083000000000
29.059277260000,-0.073000000000
29.066965218000,-0.064000000000
29.074653176000,-0.056000000000
29.082341134000,-0.044000000000
29.090029092000,-0.032000000000
29.097717050000,-0.034000000000
29.105405008000,-0.051000000000
29.113092966000,-0.064000000000
29.120780924000,-0.064000000000
29.128468882000,-0.059000000000
29.136156840000,-0.059000000000
29.143844798000,-0.056000000000
29.151532756000,-0.054000000000
29.159220714000,-0.064000000000
29.166908672000,-0.101000000000
29.174596630000,-0.108000000000
29.182284588000,0.086000000000
29.189972546000,0.542000000000
29.197660504000,0.840000000000
29.205348462000,0.495000000000
29.213036420000,-0.165000000000
29.220724378000,-0.374000000000
29.228412336000,-0.192000000000
29.236100294000,-0.162000000000
29.243788252000,-0.189000000000
29.251476210000,-0.103000000000
29.259164168000,-0.076000000000
29.266852126000,-0.106000000000
29.274540084000,-0.086000000000
29.282228042000,-0.056000000000
29.289916000000,-0.059000000000
29.297603958000,-0.059000000000
29.305291916000,-0.054000000000
29.312979874000,-0.054000000000
29.320667832000,-0.049000000000
