time,LSB
0.000000000000,1.445000000000
0.007686703000,0.000000000000
0.015373406000,-0.754000000000
0.023060109000,-0.291000000000
0.030746812000,-0.068000000000
0.038433515000,-0.267000000000
0.046120218000,-0.200000000000
0.053806921000,-0.102000000000
0.061493624000,-0.149000000000
0.069180327000,-0.132000000000
0.076867030000,-0.075000000000
0.084553733000,-0.066000000000
0.092240436000,-0.048000000000
0.099927139000,-0.014000000000
0.107613842000,0.012000000000
0.115300545000,0.036000000000
0.122987312000,0.071000000000
0.130673737000,0.107000000000
0.138360162000,0.129000000000
0.146046587000,0.159000000000
0.153733012000,0.195000000000
0.161419437000,0.222000000000
0.169105862000,0.237000000000
0.176792287000,0.244000000000
0.184478712000,0.235000000000
0.192165137000,0.215000000000
0.199851562000,0.191000000000
0.207537987000,0.161000000000
0.215224412000,0.129000000000
0.222910837000,0.097000000000
0.230597262000,0.041000000000
0.238283687000,-0.029000000000
0.245970112000,-0.100000000000
0.253656537000,-0.171000000000
0.261342962000,-0.235000000000
0.269029387000,-0.269000000000
0.276715812000,-0.284000000000
0.284402237000,-0.291000000000
0.292088662000,-0.289000000000
0.299775087000,-0.279000000000
0.307461512000,-0.264000000000
0.315147937000,-0.249000000000
0.322834362000,-0.242000000000
0.330520787000,-0.235000000000
0.338207212000,-0.220000000000
0.345893637000,-0.218000000000
0.353580062000,-0.220000000000
0.361266487000,-0.210000000000
0.368952912000,-0.210000000000
0.376639337000,-0.218000000000
0.384325762000,-0.210000000000
0.392012187000,-0.203000000000
0.399698612000,-0.208000000000
0.407385037000,-0.213000000000
0.415071462000,-0.210000000000
0.422757887000,-0.210000000000
0.430444312000,-0.210000000000
0.438130737000,-0.205000000000
0.445817162000,-0.198000000000
0.453503587000,-0.195000000000
0.461190012000,-0.191000000000
0.468876437000,-0.171000000000
0.476562862000,-0.142000000000
0.484249287000,-0.132000000000
0.491935712000,-0.156000000000
0.499622137000,-0.181000000000
0.507308562000,-0.178000000000
0.514994987000,-0.176000000000
0.522681412000,-0.176000000000
0.530367837000,-0.161000000000
0.538054262000,-0.154000000000
0.545740687000,-0.156000000000
0.553427112000,-0.164000000000
0.561113537000,-0.186000000000
0.568799962000,-0.235000000000
0.576486387000,-0.311000000000
0.584172812000,-0.188000000000
0.591859237000,0.426000000000
0.599545662000,1.266000000000
0.607232087000,1.714000000000
0.614918512000,1.237000000000
0.622604937000,-0.056000000000
0.630291362000,-0.747000000000
0.637977787000,-0.318000000000
0.645664212000,-0.063000000000
0.653350637000,-0.242000000000
0.661037062000,-0.208000000000
0.668723487000,-0.100000000000
0.676409912000,-0.142000000000
0.684096347000,-0.144000000000
0.691782911000,-0.068000000000
0.699469475000,-0.036000000000
0.707156039000,-0.036000000000
0.714842603000,-0.012000000000
0.722529167000,0.019000000000
0.730215731000,0.041000000000
0.737902295000,0.075000000000
0.745588859000,0.115000000000
0.753275423000,0.144000000000
0.760961987000,0.181000000000
0.768648551000,0.213000000000
0.776335115000,0.240000000000
0.784021679000,0.262000000000
0.791708243000,0.262000000000
0.799394807000,0.242000000000
0.807081371000,0.227000000000
0.814767935000,0.215000000000
0.822454499000,0.183000000000
0.830141063000,0.151000000000
0.837827627000,0.110000000000
0.845514191000,0.024000000000
0.853200755000,-0.061000000000
0.860887319000,-0.142000000000
0.868573883000,-0.227000000000
0.876260447000,-0.269000000000
0.883947011000,-0.271000000000
0.891633575000,-0.306000000000
0.899320139000,-0.335000000000
0.907006703000,-0.308000000000
0.914693267000,-0.252000000000
0.922379831000,-0.240000000000
0.930066395000,-0.271000000000
0.937752959000,-0.271000000000
0.945439523000,-0.249000000000
0.953126087000,-0.240000000000
0.960812651000,-0.230000000000
0.968499215000,-0.213000000000
0.976185779000,-0.205000000000
0.983872343000,-0.208000000000
0.991558907000,-0.205000000000
0.999245471000,-0.210000000000
1.006932035000,-0.244000000000
1.014618599000,-0.247000000000
1.022305163000,-0.244000000000
1.029991727000,-0.271000000000
1.037678291000,-0.240000000000
1.045364855000,-0.183000000000
1.053051419000,-0.186000000000
1.060737983000,-0.195000000000
1.068424547000,-0.200000000000
1.076111111000,-0.193000000000
1.083797675000,-0.137000000000
1.091484239000,-0.124000000000
1.099170803000,-0.188000000000
1.106857367000,-0.210000000000
1.114543931000,-0.176000000000
1.122230495000,-0.166000000000
1.129917059000,-0.181000000000
1.137603623000,-0.176000000000
1.145290187000,-0.164000000000
1.152976751000,-0.161000000000
1.160663315000,-0.169000000000
1.168349879000,-0.203000000000
1.176036443000,-0.279000000000
1.183723007000,-0.286000000000
1.191409571000,0.090000000000
1.199096135000,0.874000000000
1.206782699000,1.481000000000
1.214469263000,1.437000000000
1.222155827000,0.560000000000
1.229842391000,-0.519000000000
1.237528955000,-0.602000000000
1.245215552000,-0.144000000000
1.252902255000,-0.146000000000
1.260588958000,-0.244000000000
1.268275661000,-0.142000000000
1.275962364000,-0.117000000000
1.283649067000,-0.146000000000
1.291335770000,-0.100000000000
1.299022473000,-0.066000000000
1.306709176000,-0.061000000000
1.314395879000,-0.031000000000
1.322082582000,0.000000000000
1.329769285000,0.022000000000
1.337455988000,0.046000000000
1.345142691000,0.068000000000
1.352829394000,0.097000000000
1.360516097000,0.134000000000
1.368202800000,0.161000000000
1.375889503000,0.181000000000
1.383576206000,0.198000000000
1.391262909000,0.205000000000
1.398949612000,0.198000000000
1.406636315000,0.186000000000
1.414323018000,0.164000000000
1.422009721000,0.137000000000
1.429696424000,0.112000000000
1.437383127000,0.078000000000
1.445069830000,0.014000000000
1.452756533000,-0.051000000000
1.460443236000,-0.110000000000
1.468129939000,-0.183000000000
1.475816642000,-0.247000000000
1.483503345000,-0.276000000000
1.491190048000,-0.291000000000
1.498876751000,-0.298000000000
1.506563454000,-0.296000000000
1.514250157000,-0.284000000000
1.521936860000,-0.269000000000
1.529623563000,-0.257000000000
1.537310266000,-0.249000000000
1.544996969000,-0.237000000000
1.552683672000,-0.227000000000
1.560370375000,-0.225000000000
1.568057078000,-0.218000000000
1.575743781000,-0.208000000000
1.583430484000,-0.205000000000
1.591117187000,-0.205000000000
1.598803890000,-0.203000000000
1.606490593000,-0.203000000000
1.614177296000,-0.203000000000
1.621863999000,-0.198000000000
1.629550702000,-0.203000000000
1.637237405000,-0.208000000000
1.644924108000,-0.210000000000
1.652610811000,-0.210000000000
1.660297514000,-0.205000000000
1.667984217000,-0.186000000000
1.675670920000,-0.176000000000
1.683357623000,-0.176000000000
1.691044326000,-0.161000000000
1.698731029000,-0.144000000000
1.706417732000,-0.149000000000
1.714104435000,-0.173000000000
1.721791138000,-0.188000000000
1.729477841000,-0.183000000000
1.737164544000,-0.178000000000
1.744851247000,-0.171000000000
1.752537950000,-0.169000000000
1.760224653000,-0.164000000000
1.767911356000,-0.169000000000
1.775598059000,-0.191000000000
1.783284762000,-0.247000000000
1.790971465000,-0.286000000000
1.798658168000,-0.034000000000
1.806344931000,0.658000000000
1.814031565000,1.406000000000
1.821718199000,1.673000000000
1.829404833000,0.943000000000
1.837091467000,-0.374000000000
1.844778101000,-0.703000000000
1.852464735000,-0.161000000000
1.860151369000,-0.102000000000
1.867838003000,-0.298000000000
1.875524637000,-0.195000000000
1.883211271000,-0.124000000000
1.890897905000,-0.176000000000
1.898584539000,-0.146000000000
1.906271173000,-0.093000000000
1.913957807000,-0.090000000000
1.921644441000,-0.071000000000
1.929331075000,-0.034000000000
1.937017709000,-0.012000000000
1.944704343000,0.007000000000
1.952390977000,0.039000000000
1.960077611000,0.071000000000
1.967764245000,0.100000000000
1.975450879000,0.134000000000
1.983137513000,0.161000000000
1.990824147000,0.178000000000
1.998510781000,0.193000000000
2.006197415000,0.198000000000
2.013884049000,0.188000000000
2.021570683000,0.173000000000
2.029257317000,0.156000000000
2.036943951000,0.134000000000
2.044630585000,0.100000000000
2.052317219000,0.046000000000
2.060003853000,-0.022000000000
2.067690487000,-0.097000000000
2.075377121000,-0.171000000000
2.083063755000,-0.232000000000
2.090750389000,-0.276000000000
2.098437023000,-0.301000000000
2.106123657000,-0.311000000000
2.113810291000,-0.306000000000
2.121496925000,-0.298000000000
2.129183559000,-0.289000000000
2.136870193000,-0.274000000000
2.144556827000,-0.259000000000
2.152243461000,-0.249000000000
2.159930095000,-0.242000000000
2.167616729000,-0.235000000000
2.175303363000,-0.227000000000
2.182989997000,-0.225000000000
2.190676631000,-0.222000000000
2.198363265000,-0.218000000000
2.206049899000,-0.218000000000
2.213736533000,-0.215000000000
2.221423167000,-0.215000000000
2.229109801000,-0.215000000000
2.236796435000,-0.218000000000
2.244483069000,-0.222000000000
2.252169703000,-0.225000000000
2.259856337000,-0.215000000000
2.267542971000,-0.195000000000
2.275229605000,-0.186000000000
2.282916239000,-0.181000000000
2.290602873000,-0.169000000000
2.298289507000,-0.146000000000
2.305976141000,-0.146000000000
2.313662775000,-0.176000000000
2.321349409000,-0.193000000000
2.329036043000,-0.186000000000
2.336722677000,-0.176000000000
2.344409311000,-0.171000000000
2.352095945000,-0.169000000000
2.359782579000,-0.166000000000
2.367469227000,-0.169000000000
2.375155582000,-0.183000000000
2.382841937000,-0.237000000000
2.390528292000,-0.315000000000
2.398214647000,-0.181000000000
2.405901002000,0.438000000000
2.413587357000,1.303000000000
2.421273712000,1.820000000000
2.428960067000,1.344000000000
2.436646422000,-0.048000000000
2.444332777000,-0.776000000000
2.452019132000,-0.306000000000
2.459705487000,-0.061000000000
2.467391842000,-0.279000000000
2.475078197000,-0.240000000000
2.482764552000,-0.129000000000
2.490450907000,-0.173000000000
2.498137262000,-0.169000000000
2.505823617000,-0.105000000000
2.513509972000,-0.095000000000
2.521196327000,-0.085000000000
2.528882682000,-0.046000000000
2.536569037000,-0.017000000000
2.544255392000,0.004000000000
2.551941747000,0.036000000000
2.559628102000,0.068000000000
2.567314457000,0.097000000000
2.575000812000,0.132000000000
2.582687167000,0.164000000000
2.590373522000,0.188000000000
2.598059877000,0.205000000000
2.605746232000,0.213000000000
2.613432587000,0.208000000000
2.621118942000,0.193000000000
2.628805297000,0.176000000000
2.636491652000,0.154000000000
2.644178007000,0.122000000000
2.651864362000,0.071000000000
2.659550717000,0.000000000000
2.667237072000,-0.078000000000
2.674923427000,-0.154000000000
2.682609782000,-0.225000000000
2.690296137000,-0.279000000000
2.697982492000,-0.306000000000
2.705668847000,-0.315000000000
2.713355202000,-0.318000000000
2.721041557000,-0.308000000000
2.728727912000,-0.298000000000
2.736414267000,-0.286000000000
2.744100622000,-0.271000000000
2.751786977000,-0.259000000000
2.759473332000,-0.252000000000
2.767159687000,-0.247000000000
2.774846042000,-0.237000000000
2.782532397000,-0.232000000000
2.790218752000,-0.230000000000
2.797905107000,-0.230000000000
2.805591462000,-0.227000000000
2.813277817000,-0.225000000000
2.820964172000,-0.222000000000
2.828650527000,-0.220000000000
2.836336882000,-0.220000000000
2.844023237000,-0.225000000000
2.851709592000,-0.230000000000
2.859395947000,-0.222000000000
2.867082302000,-0.208000000000
2.874768657000,-0.193000000000
2.882455012000,-0.183000000000
2.890141367000,-0.173000000000
2.897827722000,-0.154000000000
2.905514077000,-0.142000000000
2.913200432000,-0.166000000000
2.920886787000,-0.195000000000
2.928573171000,-0.193000000000
2.936260571000,-0.183000000000
2.943947971000,-0.181000000000
2.951635371000,-0.178000000000
2.959322771000,-0.169000000000
2.967010171000,-0.166000000000
2.974697571000,-0.183000000000
2.982384971000,-0.225000000000
2.990072371000,-0.313000000000
2.997759771000,-0.325000000000
3.005447171000,0.083000000000
3.013134571000,0.940000000000
3.020821971000,1.729000000000
3.028509371000,1.748000000000
3.036196771000,0.582000000000
3.043884171000,-0.661000000000
3.051571571000,-0.565000000000
3.059258971000,-0.071000000000
3.066946371000,-0.198000000000
3.074633771000,-0.298000000000
3.082321171000,-0.156000000000
3.090008571000,-0.151000000000
3.097695971000,-0.191000000000
3.105383371000,-0.134000000000
3.113070771000,-0.100000000000
3.120758171000,-0.097000000000
3.128445571000,-0.063000000000
3.136132971000,-0.031000000000
3.143820371000,-0.012000000000
3.151507771000,0.017000000000
3.159195171000,0.048000000000
3.166882571000,0.080000000000
3.174569971000,0.112000000000
3.182257371000,0.144000000000
3.189944771000,0.169000000000
3.197632171000,0.191000000000
3.205319571000,0.203000000000
3.213006971000,0.200000000000
3.220694371000,0.191000000000
3.228381771000,0.176000000000
3.236069171000,0.156000000000
3.243756571000,0.129000000000
3.251443971000,0.088000000000
3.259131371000,0.026000000000
3.266818771000,-0.046000000000
3.274506171000,-0.122000000000
3.282193571000,-0.195000000000
3.289880971000,-0.254000000000
3.297568371000,-0.291000000000
3.305255771000,-0.308000000000
3.312943171000,-0.315000000000
3.320630571000,-0.311000000000
3.328317971000,-0.293000000000
3.336005371000,-0.279000000000
3.343692771000,-0.269000000000
3.351380171000,-0.257000000000
3.359067571000,-0.244000000000
3.366754971000,-0.237000000000
3.374442371000,-0.232000000000
3.382129771000,-0.227000000000
3.389817171000,-0.227000000000
3.397504571000,-0.222000000000
3.405191971000,-0.220000000000
3.412879371000,-0.220000000000
3.420566771000,-0.220000000000
3.428254171000,-0.215000000000
3.435941571000,-0.213000000000
3.443628971000,-0.213000000000
3.451316371000,-0.218000000000
3.459003771000,-0.220000000000
3.466691171000,-0.215000000000
3.474378571000,-0.200000000000
3.482065971000,-0.186000000000
3.489753418000,-0.178000000000
3.497439425000,-0.169000000000
3.505125432000,-0.146000000000
3.512811439000,-0.137000000000
3.520497446000,-0.164000000000
3.528183453000,-0.195000000000
3.535869460000,-0.193000000000
3.543555467000,-0.181000000000
3.551241474000,-0.178000000000
3.558927481000,-0.173000000000
3.566613488000,-0.166000000000
3.574299495000,-0.166000000000
3.581985502000,-0.178000000000
3.589671509000,-0.218000000000
3.597357516000,-0.306000000000
3.605043523000,-0.340000000000
3.612729530000,0.019000000000
3.620415537000,0.854000000000
3.628101544000,1.685000000000
3.635787551000,1.797000000000
3.643473558000,0.707000000000
3.651159565000,-0.605000000000
3.658845572000,-0.612000000000
3.666531579000,-0.093000000000
3.674217586000,-0.178000000000
3.681903593000,-0.296000000000
3.689589600000,-0.159000000000
3.697275607000,-0.144000000000
3.704961614000,-0.188000000000
3.712647621000,-0.134000000000
3.720333628000,-0.095000000000
3.728019635000,-0.095000000000
3.735705642000,-0.068000000000
3.743391649000,-0.031000000000
3.751077656000,-0.009000000000
3.758763663000,0.017000000000
3.766449670000,0.051000000000
3.774135677000,0.078000000000
3.781821684000,0.107000000000
3.789507691000,0.142000000000
3.797193698000,0.171000000000
3.804879705000,0.186000000000
3.812565712000,0.195000000000
3.820251719000,0.195000000000
3.827937726000,0.186000000000
3.835623733000,0.171000000000
3.843309740000,0.151000000000
3.850995747000,0.122000000000
3.858681754000,0.085000000000
3.866367761000,0.029000000000
3.874053768000,-0.041000000000
3.881739775000,-0.117000000000
3.889425782000,-0.188000000000
3.897111789000,-0.247000000000
3.904797796000,-0.286000000000
3.912483803000,-0.308000000000
3.920169810000,-0.311000000000
3.927855817000,-0.306000000000
3.935541824000,-0.293000000000
3.943227831000,-0.281000000000
3.950913838000,-0.269000000000
3.958599845000,-0.257000000000
3.966285852000,-0.249000000000
3.973971859000,-0.242000000000
3.981657866000,-0.237000000000
3.989343873000,-0.230000000000
3.997029880000,-0.225000000000
4.004715887000,-0.225000000000
4.012401894000,-0.225000000000
4.020087901000,-0.222000000000
4.027773908000,-0.220000000000
4.035459915000,-0.218000000000
4.043145922000,-0.215000000000
4.050831933000,-0.213000000000
4.058518218000,-0.213000000000
4.066204503000,-0.210000000000
4.073890788000,-0.215000000000
4.081577073000,-0.218000000000
4.089263358000,-0.208000000000
4.096949643000,-0.191000000000
4.104635928000,-0.176000000000
4.112322213000,-0.169000000000
4.120008498000,-0.154000000000
4.127694783000,-0.137000000000
4.135381068000,-0.139000000000
4.143067353000,-0.171000000000
4.150753638000,-0.191000000000
4.158439923000,-0.183000000000
4.166126208000,-0.173000000000
4.173812493000,-0.169000000000
4.181498778000,-0.164000000000
4.189185063000,-0.159000000000
4.196871348000,-0.159000000000
4.204557633000,-0.176000000000
4.212243918000,-0.222000000000
4.219930203000,-0.311000000000
4.227616488000,-0.254000000000
4.235302773000,0.279000000000
4.242989058000,1.180000000000
4.250675343000,1.856000000000
4.258361628000,1.572000000000
4.266047913000,0.191000000000
4.273734198000,-0.771000000000
4.281420483000,-0.406000000000
4.289106768000,-0.058000000000
4.296793053000,-0.254000000000
4.304479338000,-0.257000000000
4.312165623000,-0.129000000000
4.319851908000,-0.164000000000
4.327538193000,-0.176000000000
4.335224478000,-0.112000000000
4.342910763000,-0.095000000000
4.350597048000,-0.090000000000
4.358283333000,-0.051000000000
4.365969618000,-0.022000000000
4.373655903000,0.000000000000
4.381342188000,0.031000000000
4.389028473000,0.066000000000
4.396714758000,0.095000000000
4.404401043000,0.124000000000
4.412087328000,0.154000000000
4.419773613000,0.178000000000
4.427459898000,0.193000000000
4.435146183000,0.200000000000
4.442832468000,0.198000000000
4.450518753000,0.188000000000
4.458205038000,0.166000000000
4.465891323000,0.144000000000
4.473577608000,0.120000000000
4.481263893000,0.078000000000
4.488950178000,0.014000000000
4.496636463000,-0.058000000000
4.504322748000,-0.129000000000
4.512009033000,-0.200000000000
4.519695318000,-0.257000000000
4.527381603000,-0.289000000000
4.535067888000,-0.303000000000
4.542754173000,-0.306000000000
4.550440458000,-0.298000000000
4.558126743000,-0.289000000000
4.565813028000,-0.274000000000
4.573499313000,-0.259000000000
4.581185598000,-0.244000000000
4.588871883000,-0.237000000000
4.596558168000,-0.235000000000
4.604244453000,-0.232000000000
4.611930794000,-0.225000000000
4.619617497000,-0.218000000000
4.627304200000,-0.220000000000
4.634990903000,-0.222000000000
4.642677606000,-0.215000000000
4.650364309000,-0.210000000000
4.658051012000,-0.218000000000
4.665737715000,-0.210000000000
4.673424418000,-0.200000000000
4.681111121000,-0.200000000000
4.688797824000,-0.203000000000
4.696484527000,-0.205000000000
4.704171230000,-0.210000000000
4.711857933000,-0.208000000000
4.719544636000,-0.198000000000
4.727231339000,-0.191000000000
4.734918042000,-0.173000000000
4.742604745000,-0.156000000000
4.750291448000,-0.142000000000
4.757978151000,-0.122000000000
4.765664854000,-0.129000000000
4.773351557000,-0.171000000000
4.781038260000,-0.188000000000
4.788724963000,-0.176000000000
4.796411666000,-0.171000000000
4.804098369000,-0.171000000000
4.811785072000,-0.164000000000
4.819471775000,-0.156000000000
4.827158478000,-0.156000000000
4.834845181000,-0.173000000000
4.842531884000,-0.232000000000
4.850218587000,-0.311000000000
4.857905290000,-0.166000000000
4.865591993000,0.492000000000
4.873278696000,1.391000000000
4.880965399000,1.871000000000
4.888652102000,1.263000000000
4.896338805000,-0.178000000000
4.904025508000,-0.761000000000
4.911712211000,-0.240000000000
4.919398914000,-0.066000000000
4.927085617000,-0.274000000000
4.934772320000,-0.208000000000
4.942459023000,-0.110000000000
4.950145726000,-0.159000000000
4.957832429000,-0.154000000000
4.965519132000,-0.093000000000
4.973205835000,-0.075000000000
4.980892538000,-0.056000000000
4.988579241000,-0.017000000000
4.996265944000,0.004000000000
5.003952647000,0.019000000000
5.011639350000,0.053000000000
5.019326053000,0.095000000000
5.027012756000,0.129000000000
5.034699459000,0.166000000000
5.042386162000,0.193000000000
5.050072865000,0.213000000000
5.057759568000,0.232000000000
5.065446271000,0.237000000000
5.073132974000,0.227000000000
5.080819677000,0.213000000000
5.088506380000,0.193000000000
5.096193083000,0.176000000000
5.103879786000,0.146000000000
5.111566489000,0.090000000000
5.119253192000,0.017000000000
5.126939895000,-0.058000000000
5.134626598000,-0.139000000000
5.142313301000,-0.213000000000
5.150000004000,-0.264000000000
5.157686707000,-0.296000000000
5.165373410000,-0.306000000000
5.173060173000,-0.296000000000
5.180746876000,-0.296000000000
5.188433579000,-0.296000000000
5.196120282000,-0.271000000000
5.203806985000,-0.249000000000
5.211493688000,-0.247000000000
5.219180391000,-0.244000000000
5.226867094000,-0.237000000000
5.234553797000,-0.225000000000
5.242240500000,-0.220000000000
5.249927203000,-0.220000000000
5.257613906000,-0.213000000000
5.265300609000,-0.215000000000
5.272987312000,-0.218000000000
5.280674015000,-0.205000000000
5.288360718000,-0.200000000000
5.296047421000,-0.208000000000
5.303734124000,-0.210000000000
5.311420827000,-0.213000000000
5.319107530000,-0.218000000000
5.326794233000,-0.213000000000
5.334480936000,-0.200000000000
5.342167639000,-0.193000000000
5.349854342000,-0.181000000000
5.357541045000,-0.169000000000
5.365227748000,-0.154000000000
5.372914451000,-0.134000000000
5.380601154000,-0.132000000000
5.388287857000,-0.161000000000
5.395974560000,-0.191000000000
5.403661263000,-0.186000000000
5.411347966000,-0.173000000000
5.419034669000,-0.169000000000
5.426721372000,-0.164000000000
5.434408075000,-0.164000000000
5.442094778000,-0.166000000000
5.449781481000,-0.176000000000
5.457468184000,-0.218000000000
5.465154887000,-0.308000000000
5.472841590000,-0.296000000000
5.480528293000,0.161000000000
5.488214996000,1.026000000000
5.495901699000,1.714000000000
5.503588402000,1.567000000000
5.511275105000,0.352000000000
5.518961808000,-0.703000000000
5.526648511000,-0.475000000000
5.534335214000,-0.071000000000
5.542021917000,-0.225000000000
5.549708620000,-0.249000000000
5.557395323000,-0.120000000000
5.565082026000,-0.144000000000
5.572768729000,-0.156000000000
5.580455432000,-0.095000000000
5.588142135000,-0.080000000000
5.595828838000,-0.075000000000
5.603515541000,-0.034000000000
5.611202244000,-0.007000000000
5.618888947000,0.012000000000
5.626575650000,0.046000000000
5.634262353000,0.083000000000
5.641949056000,0.115000000000
5.649635759000,0.146000000000
5.657322462000,0.181000000000
5.665009165000,0.213000000000
5.672695868000,0.227000000000
5.680382571000,0.232000000000
5.688069274000,0.227000000000
5.695755977000,0.215000000000
5.703442680000,0.195000000000
5.711129383000,0.171000000000
5.718816086000,0.134000000000
5.726502789000,0.085000000000
5.734189552000,0.024000000000
5.741876255000,-0.053000000000
5.749562958000,-0.139000000000
5.757249661000,-0.210000000000
5.764936364000,-0.264000000000
5.772623067000,-0.301000000000
5.780309770000,-0.318000000000
5.787996473000,-0.320000000000
5.795683176000,-0.315000000000
5.803369879000,-0.301000000000
5.811056582000,-0.291000000000
5.818743285000,-0.284000000000
5.826429988000,-0.267000000000
5.834116691000,-0.254000000000
5.841803394000,-0.252000000000
5.849490097000,-0.242000000000
5.857176800000,-0.237000000000
5.864863503000,-0.235000000000
5.872550206000,-0.227000000000
5.880236909000,-0.220000000000
5.887923612000,-0.222000000000
5.895610315000,-0.225000000000
5.903297018000,-0.220000000000
5.910983721000,-0.220000000000
5.918670424000,-0.222000000000
5.926357127000,-0.222000000000
5.934043830000,-0.215000000000
5.941730533000,-0.213000000000
5.949417236000,-0.218000000000
5.957103939000,-0.213000000000
5.964790642000,-0.210000000000
5.972477345000,-0.215000000000
5.980164048000,-0.215000000000
5.987850751000,-0.208000000000
5.995537454000,-0.191000000000
6.003224157000,-0.178000000000
6.010910860000,-0.166000000000
6.018597563000,-0.154000000000
6.026284266000,-0.132000000000
6.033970969000,-0.134000000000
6.041657672000,-0.173000000000
6.049344375000,-0.193000000000
6.057031078000,-0.181000000000
6.064717781000,-0.173000000000
6.072404484000,-0.173000000000
6.080091187000,-0.169000000000
6.087777890000,-0.161000000000
6.095464593000,-0.156000000000
6.103151296000,-0.169000000000
6.110837999000,-0.208000000000
6.118524702000,-0.293000000000
6.126211405000,-0.271000000000
6.133898108000,0.183000000000
6.141584811000,1.036000000000
6.149271514000,1.756000000000
6.156958217000,1.641000000000
6.164644920000,0.379000000000
6.172331623000,-0.725000000000
6.180018326000,-0.492000000000
6.187705029000,-0.068000000000
6.195391732000,-0.227000000000
6.203078435000,-0.271000000000
6.210765138000,-0.142000000000
6.218451841000,-0.156000000000
6.226138544000,-0.178000000000
6.233825247000,-0.122000000000
6.241511950000,-0.097000000000
6.249198653000,-0.093000000000
6.256885356000,-0.058000000000
6.264572059000,-0.026000000000
6.272258762000,-0.007000000000
6.279945465000,0.024000000000
6.287632168000,0.058000000000
6.295318935000,0.090000000000
6.303005290000,0.120000000000
6.310691645000,0.156000000000
6.318378000000,0.186000000000
6.326064355000,0.205000000000
6.333750710000,0.218000000000
6.341437065000,0.218000000000
6.349123420000,0.208000000000
6.356809775000,0.193000000000
6.364496130000,0.171000000000
6.372182485000,0.139000000000
6.379868840000,0.097000000000
6.387555195000,0.036000000000
6.395241550000,-0.041000000000
6.402927905000,-0.124000000000
6.410614260000,-0.200000000000
6.418300615000,-0.264000000000
6.425986970000,-0.308000000000
6.433673325000,-0.330000000000
6.441359680000,-0.335000000000
6.449046035000,-0.330000000000
6.456732390000,-0.320000000000
6.464418745000,-0.306000000000
6.472105100000,-0.296000000000
6.479791455000,-0.281000000000
6.487477810000,-0.267000000000
6.495164165000,-0.254000000000
6.502850520000,-0.249000000000
6.510536875000,-0.242000000000
6.518223230000,-0.240000000000
6.525909585000,-0.237000000000
6.533595940000,-0.232000000000
6.541282295000,-0.235000000000
6.548968650000,-0.235000000000
6.556655005000,-0.227000000000
6.564341360000,-0.222000000000
6.572027715000,-0.225000000000
6.579714070000,-0.232000000000
6.587400425000,-0.227000000000
6.595086780000,-0.215000000000
6.602773135000,-0.215000000000
6.610459490000,-0.222000000000
6.618145845000,-0.222000000000
6.625832200000,-0.215000000000
6.633518555000,-0.210000000000
6.641204910000,-0.208000000000
6.648891265000,-0.215000000000
6.656577620000,-0.215000000000
6.664263975000,-0.203000000000
6.671950330000,-0.208000000000
6.679636685000,-0.222000000000
6.687323040000,-0.205000000000
6.695009395000,-0.191000000000
6.702695750000,-0.198000000000
6.710382105000,-0.191000000000
6.718068460000,-0.169000000000
6.725754815000,-0.166000000000
6.733441170000,-0.186000000000
6.741127525000,-0.220000000000
6.748813880000,-0.244000000000
6.756500235000,-0.237000000000
6.764186590000,-0.235000000000
6.771872945000,-0.232000000000
6.779559300000,-0.208000000000
6.787245655000,-0.208000000000
6.794932010000,-0.232000000000
6.802618365000,-0.244000000000
6.810304720000,-0.286000000000
6.817991075000,-0.389000000000
6.825677430000,-0.364000000000
6.833363785000,0.095000000000
6.841050140000,0.947000000000
6.848736495000,1.763000000000
6.856422883000,1.802000000000
6.864109517000,0.519000000000
6.871796151000,-0.786000000000
6.879482785000,-0.629000000000
6.887169419000,-0.146000000000
6.894856053000,-0.328000000000
6.902542687000,-0.406000000000
6.910229321000,-0.247000000000
6.917915955000,-0.286000000000
6.925602589000,-0.338000000000
6.933289223000,-0.252000000000
6.940975857000,-0.215000000000
6.948662491000,-0.222000000000
6.956349125000,-0.181000000000
6.964035759000,-0.142000000000
6.971722393000,-0.137000000000
6.979409027000,-0.110000000000
6.987095661000,-0.063000000000
6.994782295000,-0.034000000000
7.002468929000,-0.009000000000
7.010155563000,0.034000000000
7.017842197000,0.078000000000
7.025528831000,0.095000000000
7.033215465000,0.107000000000
7.040902099000,0.132000000000
7.048588733000,0.137000000000
7.056275367000,0.117000000000
7.063962001000,0.105000000000
7.071648635000,0.093000000000
7.079335269000,0.061000000000
7.087021903000,0.014000000000
7.094708537000,-0.044000000000
7.102395171000,-0.120000000000
7.110081805000,-0.205000000000
7.117768439000,-0.276000000000
7.125455073000,-0.315000000000
7.133141707000,-0.338000000000
7.140828341000,-0.350000000000
7.148514975000,-0.347000000000
7.156201609000,-0.338000000000
7.163888243000,-0.330000000000
7.171574877000,-0.320000000000
7.179261511000,-0.306000000000
7.186948145000,-0.291000000000
7.194634779000,-0.281000000000
7.202321413000,-0.269000000000
7.210008047000,-0.259000000000
7.217694681000,-0.257000000000
7.225381315000,-0.254000000000
7.233067949000,-0.244000000000
7.240754583000,-0.240000000000
7.248441217000,-0.242000000000
7.256127851000,-0.240000000000
7.263814485000,-0.230000000000
7.271501119000,-0.225000000000
7.279187753000,-0.225000000000
7.286874387000,-0.218000000000
7.294561021000,-0.208000000000
7.302247655000,-0.200000000000
7.309934289000,-0.195000000000
7.317620923000,-0.188000000000
7.325307557000,-0.183000000000
7.332994191000,-0.181000000000
7.340680825000,-0.171000000000
7.348367459000,-0.164000000000
7.356054093000,-0.164000000000
7.363740727000,-0.171000000000
7.371427361000,-0.171000000000
7.379113995000,-0.159000000000
7.386800629000,-0.142000000000
7.394487263000,-0.127000000000
7.402173897000,-0.117000000000
7.409860531000,-0.105000000000
7.417547175000,-0.093000000000
7.425233878000,-0.100000000000
7.432920581000,-0.127000000000
7.440607284000,-0.142000000000
7.448293987000,-0.132000000000
7.455980690000,-0.127000000000
7.463667393000,-0.127000000000
7.471354096000,-0.120000000000
7.479040799000,-0.110000000000
7.486727502000,-0.110000000000
7.494414205000,-0.115000000000
7.502100908000,-0.144000000000
7.509787611000,-0.230000000000
7.517474314000,-0.306000000000
7.525161017000,-0.080000000000
7.532847720000,0.649000000000
7.540534423000,1.587000000000
7.548221126000,2.055000000000
7.555907829000,1.295000000000
7.563594532000,-0.218000000000
7.571281235000,-0.698000000000
7.578967938000,-0.203000000000
7.586654641000,-0.122000000000
7.594341344000,-0.274000000000
7.602028047000,-0.173000000000
7.609714750000,-0.124000000000
7.617401453000,-0.173000000000
7.625088156000,-0.132000000000
7.632774859000,-0.080000000000
7.640461562000,-0.088000000000
7.648148265000,-0.068000000000
7.655834968000,-0.017000000000
7.663521671000,0.009000000000
7.671208374000,0.036000000000
7.678895077000,0.075000000000
7.686581780000,0.110000000000
7.694268483000,0.144000000000
7.701955186000,0.191000000000
7.709641889000,0.230000000000
7.717328592000,0.259000000000
7.725015295000,0.284000000000
7.732701998000,0.298000000000
7.740388701000,0.303000000000
7.748075404000,0.293000000000
7.755762107000,0.264000000000
7.763448810000,0.237000000000
7.771135513000,0.210000000000
7.778822216000,0.156000000000
7.786508919000,0.071000000000
7.794195622000,-0.031000000000
7.801882325000,-0.129000000000
7.809569028000,-0.218000000000
7.817255731000,-0.284000000000
7.824942434000,-0.323000000000
7.832629137000,-0.338000000000
7.840315840000,-0.347000000000
7.848002543000,-0.352000000000
7.855689246000,-0.345000000000
7.863375949000,-0.323000000000
7.871062652000,-0.308000000000
7.878749355000,-0.301000000000
7.886436058000,-0.291000000000
7.894122761000,-0.274000000000
7.901809464000,-0.259000000000
7.909496167000,-0.254000000000
7.917182870000,-0.249000000000
7.924869573000,-0.242000000000
7.932556276000,-0.242000000000
7.940242979000,-0.244000000000
7.947929682000,-0.240000000000
7.955616385000,-0.232000000000
7.963303088000,-0.225000000000
7.970989791000,-0.225000000000
7.978676554000,-0.225000000000
7.986363118000,-0.220000000000
7.994049682000,-0.220000000000
8.001736246000,-0.220000000000
8.009422810000,-0.215000000000
8.017109374000,-0.208000000000
8.024795938000,-0.198000000000
8.032482502000,-0.193000000000
8.040169066000,-0.191000000000
8.047855630000,-0.193000000000
8.055542194000,-0.186000000000
8.063228758000,-0.171000000000
8.070915322000,-0.156000000000
8.078601886000,-0.149000000000
8.086288450000,-0.137000000000
8.093975014000,-0.117000000000
8.101661578000,-0.112000000000
8.109348142000,-0.139000000000
8.117034706000,-0.161000000000
8.124721270000,-0.154000000000
8.132407834000,-0.146000000000
8.140094398000,-0.149000000000
8.147780962000,-0.146000000000
8.155467526000,-0.137000000000
8.163154090000,-0.134000000000
8.170840654000,-0.134000000000
8.178527218000,-0.151000000000
8.186213782000,-0.213000000000
8.193900346000,-0.308000000000
8.201586910000,-0.222000000000
8.209273474000,0.360000000000
8.216960038000,1.286000000000
8.224646602000,1.954000000000
8.232333166000,1.628000000000
8.240019730000,0.215000000000
8.247706294000,-0.729000000000
8.255392858000,-0.382000000000
8.263079422000,-0.073000000000
8.270765986000,-0.235000000000
8.278452550000,-0.195000000000
8.286139114000,-0.078000000000
8.293825678000,-0.117000000000
8.301512242000,-0.117000000000
8.309198806000,-0.056000000000
8.316885370000,-0.044000000000
8.324571934000,-0.026000000000
8.332258498000,0.017000000000
8.339945062000,0.046000000000
8.347631626000,0.071000000000
8.355318190000,0.112000000000
8.363004754000,0.146000000000
8.370691318000,0.181000000000
8.378377882000,0.225000000000
8.386064446000,0.269000000000
8.393751010000,0.303000000000
8.401437574000,0.335000000000
8.409124138000,0.350000000000
8.416810702000,0.345000000000
8.424497266000,0.335000000000
8.432183830000,0.320000000000
8.439870394000,0.293000000000
8.447556958000,0.259000000000
8.455243522000,0.200000000000
8.462930086000,0.120000000000
8.470616650000,0.031000000000
8.478303214000,-0.061000000000
8.485989778000,-0.154000000000
8.493676342000,-0.220000000000
8.501362906000,-0.262000000000
8.509049470000,-0.281000000000
8.516736034000,-0.286000000000
8.524422598000,-0.286000000000
8.532109162000,-0.284000000000
8.539795763000,-0.271000000000
8.547482188000,-0.257000000000
8.555168613000,-0.244000000000
8.562855038000,-0.232000000000
8.570541463000,-0.222000000000
8.578227888000,-0.213000000000
8.585914313000,-0.200000000000
8.593600738000,-0.193000000000
8.601287163000,-0.188000000000
8.608973588000,-0.183000000000
8.616660013000,-0.181000000000
8.624346438000,-0.178000000000
8.632032863000,-0.176000000000
8.639719288000,-0.173000000000
8.647405713000,-0.171000000000
8.655092138000,-0.169000000000
8.662778563000,-0.171000000000
8.670464988000,-0.171000000000
8.678151413000,-0.166000000000
8.685837838000,-0.164000000000
8.693524263000,-0.164000000000
8.701210688000,-0.164000000000
8.708897113000,-0.159000000000
8.716583538000,-0.161000000000
8.724269963000,-0.166000000000
8.731956388000,-0.164000000000
8.739642813000,-0.151000000000
8.747329238000,-0.137000000000
8.755015663000,-0.124000000000
8.762702088000,-0.117000000000
8.770388513000,-0.100000000000
8.778074938000,-0.085000000000
8.785761363000,-0.097000000000
8.793447788000,-0.134000000000
8.801134213000,-0.144000000000
8.808820638000,-0.132000000000
8.816507063000,-0.127000000000
8.824193488000,-0.129000000000
8.831879913000,-0.122000000000
8.839566338000,-0.112000000000
8.847252763000,-0.115000000000
8.854939188000,-0.134000000000
8.862625613000,-0.181000000000
8.870312038000,-0.267000000000
8.877998463000,-0.213000000000
8.885684888000,0.303000000000
8.893371313000,1.180000000000
8.901057738000,1.878000000000
8.908744163000,1.712000000000
8.916430588000,0.391000000000
8.924117013000,-0.710000000000
8.931803438000,-0.450000000000
8.939489863000,-0.041000000000
8.947176288000,-0.218000000000
8.954862713000,-0.262000000000
8.962549138000,-0.129000000000
8.970235563000,-0.149000000000
8.977921988000,-0.171000000000
8.985608413000,-0.110000000000
8.993294838000,-0.085000000000
9.000981263000,-0.083000000000
9.008667688000,-0.046000000000
9.016354113000,-0.014000000000
9.024040538000,0.004000000000
9.031726963000,0.034000000000
9.039413388000,0.071000000000
9.047099813000,0.105000000000
9.054786238000,0.142000000000
9.062472663000,0.183000000000
9.070159088000,0.220000000000
9.077845513000,0.252000000000
9.085531938000,0.274000000000
9.093218363000,0.281000000000
9.100904794000,0.276000000000
9.108591497000,0.262000000000
9.116278200000,0.244000000000
9.123964903000,0.213000000000
9.131651606000,0.161000000000
9.139338309000,0.080000000000
9.147025012000,-0.012000000000
9.154711715000,-0.107000000000
9.162398418000,-0.193000000000
9.170085121000,-0.267000000000
9.177771824000,-0.315000000000
9.185458527000,-0.338000000000
9.193145230000,-0.342000000000
9.200831933000,-0.340000000000
9.208518636000,-0.335000000000
9.216205339000,-0.325000000000
9.223892042000,-0.313000000000
9.231578745000,-0.296000000000
9.239265448000,-0.284000000000
9.246952151000,-0.274000000000
9.254638854000,-0.262000000000
9.262325557000,-0.249000000000
9.270012260000,-0.242000000000
9.277698963000,-0.237000000000
9.285385666000,-0.232000000000
9.293072369000,-0.227000000000
9.300759072000,-0.222000000000
9.308445775000,-0.220000000000
9.316132478000,-0.220000000000
9.323819181000,-0.220000000000
9.331505884000,-0.215000000000
9.339192587000,-0.213000000000
9.346879290000,-0.210000000000
9.354565993000,-0.208000000000
9.362252696000,-0.203000000000
9.369939399000,-0.198000000000
9.377626102000,-0.193000000000
9.385312805000,-0.193000000000
9.392999508000,-0.191000000000
9.400686211000,-0.186000000000
9.408372914000,-0.183000000000
9.416059617000,-0.188000000000
9.423746320000,-0.191000000000
9.431433023000,-0.186000000000
9.439119726000,-0.169000000000
9.446806429000,-0.149000000000
9.454493132000,-0.137000000000
9.462179835000,-0.127000000000
9.469866538000,-0.110000000000
9.477553241000,-0.110000000000
9.485239944000,-0.142000000000
9.492926647000,-0.169000000000
9.500613350000,-0.161000000000
9.508300053000,-0.154000000000
9.515986756000,-0.151000000000
9.523673459000,-0.146000000000
9.531360162000,-0.139000000000
9.539046865000,-0.137000000000
9.546733568000,-0.142000000000
9.554420271000,-0.166000000000
9.562106974000,-0.240000000000
9.569793677000,-0.313000000000
9.577480380000,-0.110000000000
9.585167083000,0.600000000000
9.592853786000,1.540000000000
9.600540489000,2.050000000000
9.608227192000,1.359000000000
9.615913895000,-0.188000000000
9.623600598000,-0.764000000000
9.631287301000,-0.235000000000
9.638974004000,-0.100000000000
9.646660707000,-0.301000000000
9.654347410000,-0.218000000000
9.662034173000,-0.134000000000
9.669720458000,-0.188000000000
9.677406743000,-0.166000000000
9.685093028000,-0.110000000000
9.692779313000,-0.107000000000
9.700465598000,-0.090000000000
9.708151883000,-0.048000000000
9.715838168000,-0.022000000000
9.723524453000,0.000000000000
9.731210738000,0.036000000000
9.738897023000,0.075000000000
9.746583308000,0.112000000000
9.754269593000,0.154000000000
9.761955878000,0.195000000000
9.769642163000,0.232000000000
9.777328448000,0.264000000000
9.785014733000,0.281000000000
9.792701018000,0.284000000000
9.800387303000,0.279000000000
9.808073588000,0.269000000000
9.815759873000,0.244000000000
9.823446158000,0.208000000000
9.831132443000,0.149000000000
9.838818728000,0.066000000000
9.846505013000,-0.026000000000
9.854191298000,-0.122000000000
9.861877583000,-0.208000000000
9.869563868000,-0.276000000000
9.877250153000,-0.318000000000
9.884936438000,-0.340000000000
9.892622723000,-0.347000000000
9.900309008000,-0.342000000000
9.907995293000,-0.333000000000
9.915681578000,-0.320000000000
9.923367863000,-0.308000000000
9.931054148000,-0.293000000000
9.938740433000,-0.279000000000
9.946426718000,-0.264000000000
9.954113003000,-0.254000000000
9.961799288000,-0.247000000000
9.969485573000,-0.240000000000
9.977171858000,-0.232000000000
9.984858143000,-0.230000000000
9.992544428000,-0.227000000000
10.000230713000,-0.225000000000
10.007916998000,-0.222000000000
10.015603283000,-0.218000000000
10.023289568000,-0.218000000000
10.030975853000,-0.218000000000
10.038662138000,-0.215000000000
10.046348423000,-0.210000000000
10.054034708000,-0.205000000000
10.061720993000,-0.203000000000
10.069407278000,-0.200000000000
10.077093563000,-0.198000000000
10.084779848000,-0.191000000000
10.092466133000,-0.188000000000
10.100152418000,-0.183000000000
10.107838703000,-0.181000000000
10.115524988000,-0.173000000000
10.123211273000,-0.169000000000
10.130897558000,-0.171000000000
10.138583843000,-0.178000000000
10.146270128000,-0.178000000000
10.153956413000,-0.164000000000
10.161642698000,-0.144000000000
10.169328983000,-0.134000000000
10.177015268000,-0.127000000000
10.184701553000,-0.110000000000
10.192387838000,-0.095000000000
10.200074123000,-0.112000000000
10.207760408000,-0.149000000000
10.215446693000,-0.159000000000
10.223133038000,-0.149000000000
10.230819741000,-0.144000000000
10.238506444000,-0.144000000000
10.246193147000,-0.142000000000
10.253879850000,-0.134000000000
10.261566553000,-0.129000000000
10.269253256000,-0.137000000000
10.276939959000,-0.169000000000
10.284626662000,-0.242000000000
10.292313365000,-0.298000000000
10.300000068000,-0.058000000000
10.307686771000,0.680000000000
10.315373474000,1.609000000000
10.323060177000,2.055000000000
10.330746880000,1.256000000000
10.338433583000,-0.291000000000
10.346120286000,-0.739000000000
10.353806989000,-0.183000000000
10.361493692000,-0.112000000000
10.369180395000,-0.308000000000
10.376867098000,-0.208000000000
10.384553801000,-0.137000000000
10.392240504000,-0.191000000000
10.399927207000,-0.161000000000
10.407613910000,-0.110000000000
10.415300613000,-0.110000000000
10.422987316000,-0.088000000000
10.430674019000,-0.048000000000
10.438360722000,-0.024000000000
10.446047425000,0.000000000000
10.453734128000,0.036000000000
10.461420831000,0.071000000000
10.469107534000,0.107000000000
10.476794237000,0.146000000000
10.484480940000,0.188000000000
10.492167643000,0.225000000000
10.499854346000,0.254000000000
10.507541049000,0.271000000000
10.515227752000,0.274000000000
10.522914455000,0.267000000000
10.530601158000,0.254000000000
10.538287861000,0.232000000000
10.545974564000,0.200000000000
10.553661267000,0.146000000000
10.561347970000,0.068000000000
10.569034673000,-0.024000000000
10.576721376000,-0.117000000000
10.584408079000,-0.203000000000
10.592094782000,-0.271000000000
10.599781485000,-0.315000000000
10.607468188000,-0.335000000000
10.615154891000,-0.342000000000
10.622841594000,-0.340000000000
10.630528297000,-0.333000000000
10.638215000000,-0.320000000000
10.645901703000,-0.306000000000
10.653588406000,-0.291000000000
10.661275109000,-0.279000000000
10.668961812000,-0.264000000000
10.676648515000,-0.252000000000
10.684335218000,-0.242000000000
10.692021921000,-0.240000000000
10.699708624000,-0.235000000000
10.707395327000,-0.230000000000
10.715082030000,-0.227000000000
10.722768733000,-0.225000000000
10.730455436000,-0.222000000000
10.738142139000,-0.220000000000
10.745828842000,-0.220000000000
10.753515545000,-0.218000000000
10.761202248000,-0.215000000000
10.768888951000,-0.213000000000
10.776575654000,-0.208000000000
10.784262417000,-0.205000000000
10.791948911000,-0.205000000000
10.799635405000,-0.200000000000
10.807321899000,-0.193000000000
10.815008393000,-0.188000000000
10.822694887000,-0.186000000000
10.830381381000,-0.181000000000
10.838067875000,-0.176000000000
10.845754369000,-0.171000000000
10.853440863000,-0.169000000000
10.861127357000,-0.164000000000
10.868813851000,-0.169000000000
10.876500345000,-0.176000000000
10.884186839000,-0.173000000000
10.891873333000,-0.156000000000
10.899559827000,-0.139000000000
10.907246321000,-0.129000000000
10.914932815000,-0.120000000000
10.922619309000,-0.105000000000
10.930305803000,-0.097000000000
10.937992297000,-0.120000000000
10.945678791000,-0.151000000000
10.953365285000,-0.151000000000
10.961051779000,-0.137000000000
10.968738273000,-0.134000000000
10.976424767000,-0.132000000000
10.984111261000,-0.127000000000
10.991797755000,-0.127000000000
10.999484249000,-0.127000000000
11.007170743000,-0.137000000000
11.014857237000,-0.171000000000
11.022543731000,-0.249000000000
11.030230225000,-0.286000000000
11.037916719000,0.019000000000
11.045603213000,0.820000000000
11.053289707000,1.731000000000
11.060976201000,2.040000000000
11.068662695000,1.050000000000
11.076349189000,-0.450000000000
11.084035683000,-0.680000000000
11.091722177000,-0.129000000000
11.099408671000,-0.154000000000
11.107095165000,-0.308000000000
11.114781659000,-0.181000000000
11.122468153000,-0.146000000000
11.130154647000,-0.200000000000
11.137841141000,-0.154000000000
11.145527635000,-0.110000000000
11.153214129000,-0.115000000000
11.160900623000,-0.088000000000
11.168587117000,-0.046000000000
11.176273611000,-0.024000000000
11.183960105000,0.000000000000
11.191646599000,0.041000000000
11.199333093000,0.083000000000
11.207019587000,0.115000000000
11.214706081000,0.149000000000
11.222392575000,0.195000000000
11.230079069000,0.230000000000
11.237765563000,0.252000000000
11.245452057000,0.274000000000
11.253138551000,0.279000000000
11.260825045000,0.264000000000
11.268511539000,0.247000000000
11.276198033000,0.235000000000
11.283884527000,0.208000000000
11.291571021000,0.149000000000
11.299257515000,0.058000000000
11.306944009000,-0.029000000000
11.314630503000,-0.115000000000
11.322316997000,-0.205000000000
11.330003491000,-0.284000000000
11.337689985000,-0.328000000000
11.345376539000,-0.347000000000
11.353063033000,-0.350000000000
11.360749527000,-0.338000000000
11.368436021000,-0.328000000000
11.376122515000,-0.328000000000
11.383809009000,-0.320000000000
11.391495503000,-0.296000000000
11.399181997000,-0.274000000000
11.406868491000,-0.267000000000
11.414554985000,-0.264000000000
11.422241479000,-0.249000000000
11.429927973000,-0.244000000000
11.437614467000,-0.244000000000
11.445300961000,-0.232000000000
11.452987455000,-0.225000000000
11.460673949000,-0.235000000000
11.468360443000,-0.235000000000
11.476046937000,-0.225000000000
11.483733431000,-0.222000000000
11.491419925000,-0.222000000000
11.499106419000,-0.218000000000
11.506792913000,-0.215000000000
11.514479407000,-0.213000000000
11.522165901000,-0.205000000000
11.529852395000,-0.198000000000
11.537538889000,-0.198000000000
11.545225383000,-0.200000000000
11.552911877000,-0.195000000000
11.560598371000,-0.183000000000
11.568284865000,-0.173000000000
11.575971359000,-0.178000000000
11.583657853000,-0.183000000000
11.591344347000,-0.173000000000
11.599030841000,-0.169000000000
11.606717335000,-0.186000000000
11.614403829000,-0.186000000000
11.622090323000,-0.159000000000
11.629776817000,-0.134000000000
11.637463311000,-0.120000000000
11.645149805000,-0.110000000000
11.652836299000,-0.107000000000
11.660522793000,-0.110000000000
11.668209287000,-0.124000000000
11.675895781000,-0.151000000000
11.683582275000,-0.156000000000
11.691268769000,-0.146000000000
11.698955263000,-0.146000000000
11.706641757000,-0.142000000000
11.714328251000,-0.134000000000
11.722014745000,-0.129000000000
11.729701239000,-0.127000000000
11.737387733000,-0.139000000000
11.745074227000,-0.181000000000
11.752760721000,-0.271000000000
11.760447215000,-0.293000000000
11.768133709000,0.093000000000
11.775820203000,0.955000000000
11.783506697000,1.788000000000
11.791193191000,1.864000000000
11.798879685000,0.722000000000
11.806566179000,-0.587000000000
11.814252673000,-0.570000000000
11.821939167000,-0.078000000000
11.829625661000,-0.183000000000
11.837312155000,-0.276000000000
11.844998649000,-0.142000000000
11.852685143000,-0.137000000000
11.860371637000,-0.173000000000
11.868058131000,-0.124000000000
11.875744625000,-0.088000000000
11.883431119000,-0.075000000000
11.891117613000,-0.048000000000
11.898804107000,-0.022000000000
11.906490657000,-0.004000000000
11.914177291000,0.022000000000
11.921863925000,0.068000000000
11.929550559000,0.115000000000
11.937237193000,0.151000000000
11.944923827000,0.191000000000
11.952610461000,0.225000000000
11.960297095000,0.254000000000
11.967983729000,0.286000000000
11.975670363000,0.306000000000
11.983356997000,0.301000000000
11.991043631000,0.289000000000
11.998730265000,0.274000000000
12.006416899000,0.247000000000
12.014103533000,0.203000000000
12.021790167000,0.142000000000
12.029476801000,0.051000000000
12.037163435000,-0.056000000000
12.044850069000,-0.151000000000
12.052536703000,-0.227000000000
12.060223337000,-0.289000000000
12.067909971000,-0.330000000000
12.075596605000,-0.347000000000
12.083283239000,-0.352000000000
12.090969873000,-0.350000000000
12.098656507000,-0.345000000000
12.106343141000,-0.333000000000
12.114029775000,-0.313000000000
12.121716409000,-0.301000000000
12.129403043000,-0.293000000000
12.137089677000,-0.276000000000
12.144776311000,-0.262000000000
12.152462945000,-0.254000000000
12.160149579000,-0.247000000000
12.167836213000,-0.244000000000
12.175522847000,-0.242000000000
12.183209481000,-0.237000000000
12.190896115000,-0.227000000000
12.198582749000,-0.220000000000
12.206269383000,-0.230000000000
12.213956017000,-0.235000000000
12.221642651000,-0.227000000000
12.229329285000,-0.222000000000
12.237015919000,-0.222000000000
12.244702553000,-0.220000000000
12.252389187000,-0.213000000000
12.260075821000,-0.208000000000
12.267762455000,-0.213000000000
12.275449089000,-0.210000000000
12.283135723000,-0.198000000000
12.290822357000,-0.195000000000
12.298508991000,-0.198000000000
12.306195625000,-0.200000000000
12.313882259000,-0.200000000000
12.321568893000,-0.188000000000
12.329255527000,-0.161000000000
12.336942161000,-0.149000000000
12.344628795000,-0.142000000000
12.352315429000,-0.124000000000
12.360002063000,-0.124000000000
12.367688697000,-0.154000000000
12.375375331000,-0.181000000000
12.383061965000,-0.176000000000
12.390748599000,-0.166000000000
12.398435233000,-0.164000000000
12.406121867000,-0.161000000000
12.413808501000,-0.154000000000
12.421495135000,-0.146000000000
12.429181769000,-0.149000000000
12.436868403000,-0.171000000000
12.444555037000,-0.227000000000
12.452241671000,-0.315000000000
12.459928305000,-0.232000000000
12.467614953000,0.333000000000
12.475301308000,1.239000000000
12.482987663000,1.886000000000
12.490674018000,1.570000000000
12.498360373000,0.178000000000
12.506046728000,-0.766000000000
12.513733083000,-0.399000000000
12.521419438000,-0.073000000000
12.529105793000,-0.269000000000
12.536792148000,-0.257000000000
12.544478503000,-0.134000000000
12.552164858000,-0.176000000000
12.559851213000,-0.186000000000
12.567537568000,-0.122000000000
12.575223923000,-0.110000000000
12.582910278000,-0.105000000000
12.590596633000,-0.066000000000
12.598282988000,-0.036000000000
12.605969343000,-0.017000000000
12.613655698000,0.019000000000
12.621342053000,0.053000000000
12.629028408000,0.083000000000
12.636714763000,0.120000000000
12.644401118000,0.161000000000
12.652087473000,0.198000000000
12.659773828000,0.230000000000
12.667460183000,0.249000000000
12.675146538000,0.254000000000
12.682832893000,0.247000000000
12.690519248000,0.235000000000
12.698205603000,0.215000000000
12.705891958000,0.181000000000
12.713578313000,0.132000000000
12.721264668000,0.063000000000
12.728951023000,-0.024000000000
12.736637378000,-0.115000000000
12.744323733000,-0.198000000000
12.752010088000,-0.271000000000
12.759696443000,-0.320000000000
12.767382798000,-0.342000000000
12.775069153000,-0.352000000000
12.782755508000,-0.355000000000
12.790441863000,-0.347000000000
12.798128218000,-0.333000000000
12.805814573000,-0.320000000000
12.813500928000,-0.308000000000
12.821187283000,-0.293000000000
12.828873638000,-0.279000000000
12.836559993000,-0.267000000000
12.844246348000,-0.257000000000
12.851932703000,-0.249000000000
12.859619058000,-0.247000000000
12.867305413000,-0.242000000000
12.874991768000,-0.237000000000
12.882678123000,-0.232000000000
12.890364478000,-0.232000000000
12.898050833000,-0.230000000000
12.905737188000,-0.225000000000
12.913423543000,-0.225000000000
12.921109898000,-0.222000000000
12.928796253000,-0.220000000000
12.936482608000,-0.218000000000
12.944168963000,-0.213000000000
12.951855318000,-0.210000000000
12.959541673000,-0.205000000000
12.967228028000,-0.200000000000
12.974914383000,-0.195000000000
12.982600738000,-0.195000000000
12.990287093000,-0.191000000000
12.997973448000,-0.186000000000
13.005659803000,-0.181000000000
13.013346158000,-0.183000000000
13.021032513000,-0.188000000000
13.028718897000,-0.188000000000
13.036405600000,-0.176000000000
13.044092303000,-0.159000000000
13.051779006000,-0.146000000000
13.059465709000,-0.139000000000
13.067152412000,-0.127000000000
13.074839115000,-0.110000000000
13.082525818000,-0.117000000000
13.090212521000,-0.154000000000
13.097899224000,-0.173000000000
13.105585927000,-0.161000000000
13.113272630000,-0.154000000000
13.120959333000,-0.151000000000
13.128646036000,-0.146000000000
13.136332739000,-0.142000000000
13.144019442000,-0.139000000000
13.151706145000,-0.144000000000
13.159392848000,-0.169000000000
13.167079551000,-0.230000000000
13.174766254000,-0.303000000000
13.182452957000,-0.149000000000
13.190139660000,0.492000000000
13.197826363000,1.410000000000
13.205513066000,2.008000000000
13.213199769000,1.518000000000
13.220886472000,0.000000000000
13.228573175000,-0.788000000000
13.236259878000,-0.308000000000
13.243946581000,-0.073000000000
13.251633284000,-0.296000000000
13.259319987000,-0.252000000000
13.267006690000,-0.144000000000
13.274693393000,-0.193000000000
13.282380096000,-0.186000000000
13.290066799000,-0.122000000000
13.297753502000,-0.115000000000
13.305440205000,-0.105000000000
13.313126908000,-0.066000000000
13.320813611000,-0.041000000000
13.328500314000,-0.022000000000
13.336187017000,0.009000000000
13.343873720000,0.046000000000
13.351560423000,0.078000000000
13.359247126000,0.117000000000
13.366933829000,0.156000000000
13.374620532000,0.191000000000
13.382307235000,0.225000000000
13.389993938000,0.247000000000
13.397680641000,0.254000000000
13.405367344000,0.249000000000
13.413054047000,0.237000000000
13.420740750000,0.220000000000
13.428427453000,0.191000000000
13.436114156000,0.146000000000
13.443800859000,0.075000000000
13.451487562000,-0.012000000000
13.459174265000,-0.107000000000
13.466860968000,-0.195000000000
13.474547671000,-0.269000000000
13.482234374000,-0.318000000000
13.489921077000,-0.347000000000
13.497607780000,-0.360000000000
13.505294483000,-0.357000000000
13.512981186000,-0.350000000000
13.520667889000,-0.338000000000
13.528354592000,-0.325000000000
13.536041295000,-0.311000000000
13.543727998000,-0.296000000000
13.551414701000,-0.281000000000
13.559101404000,-0.269000000000
13.566788107000,-0.257000000000
13.574474810000,-0.249000000000
13.582161513000,-0.244000000000
13.589848280000,-0.240000000000
13.597534983000,-0.237000000000
13.605221686000,-0.235000000000
13.612908389000,-0.230000000000
13.620595092000,-0.227000000000
13.628281795000,-0.227000000000
13.635968498000,-0.225000000000
13.643655201000,-0.220000000000
13.651341904000,-0.220000000000
13.659028607000,-0.218000000000
13.666715310000,-0.213000000000
13.674402013000,-0.208000000000
13.682088716000,-0.203000000000
13.689775419000,-0.200000000000
13.697462122000,-0.195000000000
13.705148825000,-0.191000000000
13.712835528000,-0.186000000000
13.720522231000,-0.183000000000
13.728208934000,-0.178000000000
13.735895637000,-0.176000000000
13.743582340000,-0.176000000000
13.751269043000,-0.181000000000
13.758955746000,-0.181000000000
13.766642449000,-0.171000000000
13.774329152000,-0.151000000000
13.782015855000,-0.137000000000
13.789702558000,-0.132000000000
13.797389261000,-0.117000000000
13.805075964000,-0.102000000000
13.812762667000,-0.115000000000
13.820449370000,-0.151000000000
13.828136073000,-0.164000000000
13.835822776000,-0.151000000000
13.843509479000,-0.146000000000
13.851196182000,-0.144000000000
13.858882885000,-0.137000000000
13.866569588000,-0.134000000000
13.874256291000,-0.134000000000
13.881942994000,-0.137000000000
13.889629697000,-0.159000000000
13.897316400000,-0.227000000000
13.905003103000,-0.298000000000
13.912689806000,-0.127000000000
13.920376509000,0.529000000000
13.928063212000,1.442000000000
13.935749915000,2.018000000000
13.943436618000,1.467000000000
13.951123321000,-0.071000000000
13.958810024000,-0.771000000000
13.966496727000,-0.257000000000
13.974183430000,-0.075000000000
13.981870133000,-0.301000000000
13.989556836000,-0.232000000000
13.997243539000,-0.132000000000
14.004930242000,-0.186000000000
14.012616945000,-0.173000000000
14.020303648000,-0.112000000000
14.027990351000,-0.107000000000
14.035677054000,-0.095000000000
14.043363757000,-0.058000000000
14.051050460000,-0.034000000000
14.058737163000,-0.012000000000
14.066423866000,0.022000000000
14.074110569000,0.053000000000
14.081797272000,0.088000000000
14.089483975000,0.124000000000
14.097170678000,0.164000000000
14.104857381000,0.200000000000
14.112544084000,0.230000000000
14.120230787000,0.249000000000
14.127917490000,0.254000000000
14.135604193000,0.249000000000
14.143290896000,0.237000000000
14.150977659000,0.220000000000
14.158664571000,0.188000000000
14.166351483000,0.142000000000
14.174038395000,0.073000000000
14.181725307000,-0.012000000000
14.189412219000,-0.105000000000
14.197099131000,-0.195000000000
14.204786043000,-0.271000000000
14.212472955000,-0.320000000000
14.220159867000,-0.347000000000
14.227846779000,-0.357000000000
14.235533691000,-0.360000000000
14.243220603000,-0.352000000000
14.250907515000,-0.338000000000
14.258594427000,-0.323000000000
14.266281339000,-0.308000000000
14.273968251000,-0.293000000000
14.281655163000,-0.281000000000
14.289342075000,-0.269000000000
14.297028987000,-0.259000000000
14.304715899000,-0.254000000000
14.312402811000,-0.247000000000
14.320089723000,-0.242000000000
14.327776635000,-0.240000000000
14.335463547000,-0.237000000000
14.343150459000,-0.235000000000
14.350837371000,-0.232000000000
14.358524283000,-0.230000000000
14.366211195000,-0.227000000000
14.373898107000,-0.225000000000
14.381585019000,-0.220000000000
14.389271931000,-0.218000000000
14.396958843000,-0.213000000000
14.404645755000,-0.208000000000
14.412332667000,-0.205000000000
14.420019579000,-0.200000000000
14.427706491000,-0.198000000000
14.435393403000,-0.193000000000
14.443080315000,-0.191000000000
14.450767227000,-0.183000000000
14.458454139000,-0.178000000000
14.466141051000,-0.178000000000
14.473827963000,-0.186000000000
14.481514875000,-0.186000000000
14.489201787000,-0.176000000000
14.496888699000,-0.156000000000
14.504575611000,-0.139000000000
14.512262523000,-0.132000000000
14.519949435000,-0.120000000000
14.527636347000,-0.102000000000
14.535323259000,-0.112000000000
14.543010171000,-0.149000000000
14.550697083000,-0.166000000000
14.558383995000,-0.156000000000
14.566070907000,-0.149000000000
14.573757819000,-0.149000000000
14.581444731000,-0.144000000000
14.589131643000,-0.137000000000
14.596818555000,-0.134000000000
14.604505467000,-0.137000000000
14.612192379000,-0.154000000000
14.619879291000,-0.213000000000
14.627566203000,-0.298000000000
14.635253115000,-0.210000000000
14.642940027000,0.352000000000
14.650626939000,1.259000000000
14.658313851000,1.962000000000
14.666000763000,1.680000000000
14.673687675000,0.230000000000
14.681374587000,-0.764000000000
14.689061499000,-0.382000000000
14.696748411000,-0.053000000000
14.704435323000,-0.271000000000
14.712122298000,-0.264000000000
14.719808653000,-0.139000000000
14.727495008000,-0.181000000000
14.735181363000,-0.188000000000
14.742867718000,-0.124000000000
14.750554073000,-0.110000000000
14.758240428000,-0.105000000000
14.765926783000,-0.068000000000
14.773613138000,-0.039000000000
14.781299493000,-0.022000000000
14.788985848000,0.009000000000
14.796672203000,0.044000000000
14.804358558000,0.075000000000
14.812044913000,0.112000000000
14.819731268000,0.146000000000
14.827417623000,0.183000000000
14.835103978000,0.222000000000
14.842790333000,0.244000000000
14.850476688000,0.252000000000
14.858163043000,0.249000000000
14.865849398000,0.235000000000
14.873535753000,0.218000000000
14.881222108000,0.200000000000
14.888908463000,0.156000000000
14.896594818000,0.083000000000
14.904281173000,0.002000000000
14.911967528000,-0.078000000000
14.919653883000,-0.171000000000
14.927340238000,-0.257000000000
14.935026593000,-0.306000000000
14.942712948000,-0.330000000000
14.950399303000,-0.350000000000
14.958085658000,-0.357000000000
14.965772013000,-0.347000000000
14.973458368000,-0.333000000000
14.981144723000,-0.323000000000
14.988831078000,-0.311000000000
14.996517433000,-0.291000000000
15.004203788000,-0.274000000000
15.011890143000,-0.262000000000
15.019576498000,-0.257000000000
15.027262853000,-0.254000000000
15.034949208000,-0.247000000000
15.042635563000,-0.240000000000
15.050321918000,-0.235000000000
15.058008273000,-0.230000000000
15.065694628000,-0.230000000000
15.073380983000,-0.227000000000
15.081067338000,-0.220000000000
15.088753693000,-0.218000000000
15.096440048000,-0.218000000000
15.104126403000,-0.213000000000
15.111812758000,-0.218000000000
15.119499113000,-0.220000000000
15.127185468000,-0.210000000000
15.134871823000,-0.203000000000
15.142558178000,-0.200000000000
15.150244533000,-0.191000000000
15.157930888000,-0.183000000000
15.165617243000,-0.183000000000
15.173303598000,-0.178000000000
15.180989953000,-0.169000000000
15.188676308000,-0.173000000000
15.196362663000,-0.188000000000
15.204049018000,-0.183000000000
15.211735373000,-0.166000000000
15.219421728000,-0.149000000000
15.227108083000,-0.129000000000
15.234794438000,-0.112000000000
15.242480793000,-0.105000000000
15.250167148000,-0.102000000000
15.257853503000,-0.115000000000
15.265539858000,-0.142000000000
15.273226247000,-0.154000000000
15.280912672000,-0.149000000000
15.288599097000,-0.144000000000
15.296285522000,-0.139000000000
15.303971947000,-0.132000000000
15.311658372000,-0.129000000000
15.319344797000,-0.124000000000
15.327031222000,-0.127000000000
15.334717647000,-0.151000000000
15.342404072000,-0.215000000000
15.350090497000,-0.301000000000
15.357776922000,-0.171000000000
15.365463347000,0.453000000000
15.373149772000,1.364000000000
15.380836197000,1.959000000000
15.388522622000,1.489000000000
15.396209047000,0.007000000000
15.403895472000,-0.761000000000
15.411581897000,-0.284000000000
15.419268322000,-0.061000000000
15.426954747000,-0.276000000000
15.434641172000,-0.220000000000
15.442327597000,-0.112000000000
15.450014022000,-0.161000000000
15.457700447000,-0.159000000000
15.465386872000,-0.105000000000
15.473073297000,-0.088000000000
15.480759722000,-0.071000000000
15.488446147000,-0.034000000000
15.496132572000,-0.009000000000
15.503818997000,0.007000000000
15.511505422000,0.039000000000
15.519191847000,0.083000000000
15.526878272000,0.117000000000
15.534564697000,0.146000000000
15.542251122000,0.195000000000
15.549937547000,0.244000000000
15.557623972000,0.264000000000
15.565310397000,0.274000000000
15.572996822000,0.286000000000
15.580683247000,0.291000000000
15.588369672000,0.276000000000
15.596056097000,0.252000000000
15.603742522000,0.218000000000
15.611428947000,0.176000000000
15.619115372000,0.110000000000
15.626801797000,0.012000000000
15.634488222000,-0.088000000000
15.642174647000,-0.171000000000
15.649861072000,-0.252000000000
15.657547497000,-0.315000000000
15.665233922000,-0.342000000000
15.672920347000,-0.347000000000
15.680606772000,-0.352000000000
15.688293197000,-0.345000000000
15.695979622000,-0.325000000000
15.703666047000,-0.315000000000
15.711352472000,-0.308000000000
15.719038897000,-0.293000000000
15.726725322000,-0.281000000000
15.734411747000,-0.269000000000
15.742098172000,-0.257000000000
15.749784597000,-0.242000000000
15.757471022000,-0.237000000000
15.765157447000,-0.240000000000
15.772843872000,-0.232000000000
15.780530297000,-0.222000000000
15.788216722000,-0.222000000000
15.795903147000,-0.222000000000
15.803589572000,-0.220000000000
15.811275997000,-0.222000000000
15.818962422000,-0.218000000000
15.826648847000,-0.208000000000
15.834335278000,-0.208000000000
15.842021981000,-0.208000000000
15.849708684000,-0.203000000000
15.857395387000,-0.200000000000
15.865082090000,-0.198000000000
15.872768793000,-0.195000000000
15.880455496000,-0.203000000000
15.888142199000,-0.205000000000
15.895828902000,-0.193000000000
15.903515605000,-0.178000000000
15.911202308000,-0.164000000000
15.918889011000,-0.149000000000
15.926575714000,-0.137000000000
15.934262417000,-0.124000000000
15.941949120000,-0.132000000000
15.949635823000,-0.166000000000
15.957322526000,-0.183000000000
15.965009229000,-0.171000000000
15.972695932000,-0.169000000000
15.980382635000,-0.166000000000
15.988069338000,-0.159000000000
15.995756041000,-0.156000000000
16.003442744000,-0.154000000000
16.011129447000,-0.144000000000
16.018816150000,-0.159000000000
16.026502853000,-0.210000000000
16.034189556000,-0.298000000000
16.041876259000,-0.269000000000
16.049562962000,0.193000000000
16.057249665000,1.050000000000
16.064936368000,1.766000000000
16.072623071000,1.653000000000
16.080309774000,0.404000000000
16.087996477000,-0.710000000000
16.095683180000,-0.487000000000
16.103369883000,-0.063000000000
16.111056586000,-0.222000000000
16.118743289000,-0.264000000000
16.126429992000,-0.137000000000
16.134116695000,-0.161000000000
16.141803398000,-0.178000000000
16.149490101000,-0.115000000000
16.157176804000,-0.095000000000
16.164863507000,-0.095000000000
16.172550210000,-0.063000000000
16.180236913000,-0.031000000000
16.187923616000,-0.007000000000
16.195610319000,0.024000000000
16.203297022000,0.051000000000
16.210983725000,0.078000000000
16.218670428000,0.120000000000
16.226357131000,0.159000000000
16.234043834000,0.186000000000
16.241730537000,0.215000000000
16.249417240000,0.242000000000
16.257103943000,0.247000000000
16.264790646000,0.240000000000
16.272477349000,0.227000000000
16.280164052000,0.205000000000
16.287850755000,0.178000000000
16.295537458000,0.139000000000
16.303224161000,0.075000000000
16.310910864000,-0.004000000000
16.318597567000,-0.093000000000
16.326284270000,-0.178000000000
16.333970973000,-0.254000000000
16.341657676000,-0.306000000000
16.349344379000,-0.333000000000
16.357031082000,-0.345000000000
16.364717785000,-0.350000000000
16.372404488000,-0.342000000000
16.380091191000,-0.328000000000
16.387777894000,-0.315000000000
16.395464657000,-0.303000000000
16.403151360000,-0.291000000000
16.410838063000,-0.276000000000
16.418524766000,-0.264000000000
16.426211469000,-0.257000000000
16.433898172000,-0.247000000000
16.441584875000,-0.240000000000
16.449271578000,-0.235000000000
16.456958281000,-0.232000000000
16.464644984000,-0.232000000000
16.472331687000,-0.230000000000
16.480018390000,-0.225000000000
16.487705093000,-0.222000000000
16.495391796000,-0.218000000000
16.503078499000,-0.218000000000
16.510765202000,-0.215000000000
16.518451905000,-0.210000000000
16.526138608000,-0.208000000000
16.533825311000,-0.208000000000
16.541512014000,-0.205000000000
16.549198717000,-0.200000000000
16.556885420000,-0.198000000000
16.564572123000,-0.193000000000
16.572258826000,-0.191000000000
16.579945529000,-0.191000000000
16.587632232000,-0.195000000000
16.595318935000,-0.195000000000
16.603005638000,-0.186000000000
16.610692341000,-0.166000000000
16.618379044000,-0.151000000000
16.626065747000,-0.144000000000
16.633752450000,-0.132000000000
16.641439153000,-0.117000000000
16.649125856000,-0.127000000000
16.656812559000,-0.164000000000
16.664499262000,-0.178000000000
16.672185965000,-0.166000000000
16.679872668000,-0.161000000000
16.687559371000,-0.159000000000
16.695246074000,-0.151000000000
16.702932777000,-0.149000000000
16.710619480000,-0.144000000000
16.718306183000,-0.149000000000
16.725992886000,-0.171000000000
16.733679589000,-0.235000000000
16.741366292000,-0.306000000000
16.749052995000,-0.137000000000
16.756739698000,0.511000000000
16.764426401000,1.403000000000
16.772113104000,1.957000000000
16.779799807000,1.413000000000
16.787486510000,-0.088000000000
16.795173213000,-0.771000000000
16.802859916000,-0.264000000000
16.810546619000,-0.075000000000
16.818233322000,-0.298000000000
16.825920025000,-0.237000000000
16.833606728000,-0.139000000000
16.841293431000,-0.191000000000
16.848980134000,-0.176000000000
16.856666837000,-0.117000000000
16.864353540000,-0.115000000000
16.872040243000,-0.102000000000
16.879726946000,-0.063000000000
16.887413649000,-0.039000000000
16.895100352000,-0.019000000000
16.902787055000,0.014000000000
16.910473758000,0.046000000000
16.918160461000,0.078000000000
16.925847164000,0.115000000000
16.933533867000,0.149000000000
16.941220570000,0.181000000000
16.948907273000,0.208000000000
16.956594040000,0.227000000000
16.964280743000,0.235000000000
16.971967446000,0.227000000000
16.979654149000,0.213000000000
16.987340852000,0.195000000000
16.995027555000,0.169000000000
17.002714258000,0.122000000000
17.010400961000,0.056000000000
17.018087664000,-0.029000000000
17.025774367000,-0.115000000000
17.033461070000,-0.198000000000
17.041147773000,-0.271000000000
17.048834476000,-0.318000000000
17.056521179000,-0.345000000000
17.064207882000,-0.355000000000
17.071894585000,-0.355000000000
17.079581288000,-0.345000000000
17.087267991000,-0.333000000000
17.094954694000,-0.320000000000
17.102641397000,-0.306000000000
17.110328100000,-0.291000000000
17.118014803000,-0.276000000000
17.125701506000,-0.264000000000
17.133388209000,-0.254000000000
17.141074912000,-0.247000000000
17.148761615000,-0.242000000000
17.156448318000,-0.237000000000
17.164135021000,-0.235000000000
17.171821724000,-0.232000000000
17.179508427000,-0.230000000000
17.187195130000,-0.227000000000
17.194881833000,-0.227000000000
17.202568536000,-0.227000000000
17.210255239000,-0.222000000000
17.217941942000,-0.218000000000
17.225628645000,-0.215000000000
17.233315348000,-0.213000000000
17.241002051000,-0.210000000000
17.248688754000,-0.205000000000
17.256375457000,-0.200000000000
17.264062160000,-0.198000000000
17.271748863000,-0.193000000000
17.279435566000,-0.191000000000
17.287122269000,-0.195000000000
17.294808972000,-0.200000000000
17.302495675000,-0.193000000000
17.310182378000,-0.173000000000
17.317869081000,-0.154000000000
17.325555784000,-0.144000000000
17.333242487000,-0.134000000000
17.340929190000,-0.117000000000
17.348615893000,-0.117000000000
17.356302596000,-0.154000000000
17.363989299000,-0.176000000000
17.371676002000,-0.166000000000
17.379362705000,-0.159000000000
17.387049408000,-0.156000000000
17.394736111000,-0.151000000000
17.402422814000,-0.146000000000
17.410109517000,-0.144000000000
17.417796220000,-0.144000000000
17.425482923000,-0.156000000000
17.433169626000,-0.203000000000
17.440856329000,-0.291000000000
17.448543032000,-0.264000000000
17.456229735000,0.198000000000
17.463916438000,1.065000000000
17.471603141000,1.846000000000
17.479289844000,1.815000000000
17.486976547000,0.529000000000
17.494663250000,-0.695000000000
17.502349953000,-0.504000000000
17.510036656000,-0.053000000000
17.517723419000,-0.227000000000
17.525409704000,-0.291000000000
17.533095989000,-0.146000000000
17.540782274000,-0.164000000000
17.548468559000,-0.195000000000
17.556154844000,-0.132000000000
17.563841129000,-0.105000000000
17.571527414000,-0.105000000000
17.579213699000,-0.073000000000
17.586899984000,-0.039000000000
17.594586269000,-0.022000000000
17.602272554000,0.004000000000
17.609958839000,0.039000000000
17.617645124000,0.071000000000
17.625331409000,0.105000000000
17.633017694000,0.144000000000
17.640703979000,0.178000000000
17.648390264000,0.208000000000
17.656076549000,0.232000000000
17.663762834000,0.244000000000
17.671449119000,0.240000000000
17.679135404000,0.230000000000
17.686821689000,0.210000000000
17.694507974000,0.188000000000
17.702194259000,0.151000000000
17.709880544000,0.093000000000
17.717566829000,0.014000000000
17.725253114000,-0.073000000000
17.732939399000,-0.159000000000
17.740625684000,-0.240000000000
17.748311969000,-0.298000000000
17.755998254000,-0.330000000000
17.763684539000,-0.345000000000
17.771370824000,-0.350000000000
17.779057109000,-0.345000000000
17.786743394000,-0.333000000000
17.794429679000,-0.318000000000
17.802115964000,-0.306000000000
17.809802249000,-0.291000000000
17.817488534000,-0.276000000000
17.825174819000,-0.264000000000
17.832861104000,-0.252000000000
17.840547389000,-0.247000000000
17.848233674000,-0.242000000000
17.855919959000,-0.237000000000
17.863606244000,-0.232000000000
17.871292529000,-0.230000000000
17.878978814000,-0.227000000000
17.886665099000,-0.227000000000
17.894351384000,-0.225000000000
17.902037669000,-0.220000000000
17.909723954000,-0.215000000000
17.917410239000,-0.215000000000
17.925096524000,-0.213000000000
17.932782809000,-0.208000000000
17.940469094000,-0.205000000000
17.948155379000,-0.203000000000
17.955841664000,-0.198000000000
17.963527949000,-0.193000000000
17.971214234000,-0.188000000000
17.978900519000,-0.183000000000
17.986586804000,-0.178000000000
17.994273089000,-0.176000000000
18.001959374000,-0.173000000000
18.009645659000,-0.173000000000
18.017331944000,-0.178000000000
18.025018229000,-0.178000000000
18.032704514000,-0.164000000000
18.040390799000,-0.144000000000
18.048077084000,-0.132000000000
18.055763369000,-0.124000000000
18.063449654000,-0.110000000000
18.071135939000,-0.097000000000
18.078822280000,-0.117000000000
18.086508983000,-0.154000000000
18.094195686000,-0.159000000000
18.101882389000,-0.149000000000
18.109569092000,-0.144000000000
18.117255795000,-0.142000000000
18.124942498000,-0.137000000000
18.132629201000,-0.137000000000
18.140315904000,-0.132000000000
18.148002607000,-0.134000000000
18.155689310000,-0.159000000000
18.163376013000,-0.227000000000
18.171062716000,-0.298000000000
18.178749419000,-0.129000000000
18.186436122000,0.531000000000
18.194122825000,1.442000000000
18.201809528000,2.003000000000
18.209496231000,1.435000000000
18.217182934000,-0.088000000000
18.224869637000,-0.759000000000
18.232556340000,-0.249000000000
18.240243043000,-0.078000000000
18.247929746000,-0.296000000000
18.255616449000,-0.225000000000
18.263303152000,-0.132000000000
18.270989855000,-0.188000000000
18.278676558000,-0.171000000000
18.286363261000,-0.112000000000
18.294049964000,-0.105000000000
18.301736667000,-0.093000000000
18.309423370000,-0.056000000000
18.317110073000,-0.031000000000
18.324796776000,-0.009000000000
18.332483479000,0.022000000000
18.340170182000,0.056000000000
18.347856885000,0.088000000000
18.355543588000,0.120000000000
18.363230291000,0.156000000000
18.370916994000,0.193000000000
18.378603697000,0.220000000000
18.386290400000,0.237000000000
18.393977103000,0.242000000000
18.401663806000,0.235000000000
18.409350509000,0.218000000000
18.417037212000,0.200000000000
18.424723915000,0.181000000000
18.432410618000,0.142000000000
18.440097321000,0.080000000000
18.447784024000,0.004000000000
18.455470727000,-0.080000000000
18.463157430000,-0.166000000000
18.470844133000,-0.240000000000
18.478530836000,-0.291000000000
18.486217539000,-0.318000000000
18.493904242000,-0.333000000000
18.501590945000,-0.340000000000
18.509277648000,-0.335000000000
18.516964351000,-0.318000000000
18.524651054000,-0.306000000000
18.532337757000,-0.293000000000
18.540024460000,-0.274000000000
18.547711163000,-0.259000000000
18.555397866000,-0.249000000000
18.563084569000,-0.237000000000
18.570771272000,-0.230000000000
18.578457975000,-0.235000000000
18.586144678000,-0.235000000000
18.593831381000,-0.227000000000
18.601518084000,-0.225000000000
18.609204787000,-0.222000000000
18.616891490000,-0.213000000000
18.624578193000,-0.210000000000
18.632264896000,-0.215000000000
18.639951659000,-0.210000000000
18.647638362000,-0.203000000000
18.655325065000,-0.203000000000
18.663011768000,-0.198000000000
18.670698471000,-0.198000000000
18.678385174000,-0.200000000000
18.686071877000,-0.193000000000
18.693758580000,-0.186000000000
18.701445283000,-0.183000000000
18.709131986000,-0.178000000000
18.716818689000,-0.176000000000
18.724505392000,-0.176000000000
18.732192095000,-0.176000000000
18.739878798000,-0.176000000000
18.747565501000,-0.178000000000
18.755252204000,-0.164000000000
18.762938907000,-0.142000000000
18.770625610000,-0.127000000000
18.778312313000,-0.115000000000
18.785999016000,-0.102000000000
18.793685719000,-0.110000000000
18.801372422000,-0.139000000000
18.809059125000,-0.156000000000
18.816745828000,-0.154000000000
18.824432531000,-0.154000000000
18.832119234000,-0.151000000000
18.839805937000,-0.137000000000
18.847492640000,-0.127000000000
18.855179343000,-0.132000000000
18.862866046000,-0.129000000000
18.870552749000,-0.129000000000
18.878239452000,-0.164000000000
18.885926155000,-0.240000000000
18.893612858000,-0.298000000000
18.901299561000,-0.075000000000
18.908986264000,0.639000000000
18.916672967000,1.543000000000
18.924359670000,1.979000000000
18.932046373000,1.219000000000
18.939733076000,-0.274000000000
18.947419779000,-0.710000000000
18.955106482000,-0.171000000000
18.962793185000,-0.105000000000
18.970479888000,-0.289000000000
18.978166591000,-0.183000000000
18.985853294000,-0.122000000000
18.993539997000,-0.173000000000
19.001226700000,-0.139000000000
19.008913403000,-0.093000000000
19.016600106000,-0.093000000000
19.024286809000,-0.068000000000
19.031973512000,-0.029000000000
19.039660215000,-0.004000000000
19.047346918000,0.019000000000
19.055033621000,0.051000000000
19.062720324000,0.083000000000
19.070407027000,0.110000000000
19.078093730000,0.146000000000
19.085780433000,0.188000000000
19.093467136000,0.222000000000
19.101153839000,0.242000000000
19.108840542000,0.257000000000
19.116527245000,0.269000000000
19.124213948000,0.264000000000
19.131900651000,0.240000000000
19.139587354000,0.213000000000
19.147274057000,0.188000000000
19.154960760000,0.149000000000
19.162647463000,0.083000000000
19.170334166000,-0.009000000000
19.178020869000,-0.093000000000
19.185707572000,-0.171000000000
19.193394275000,-0.249000000000
19.201081038000,-0.303000000000
19.208767741000,-0.323000000000
19.216454444000,-0.333000000000
19.224141147000,-0.342000000000
19.231827850000,-0.330000000000
19.239514553000,-0.315000000000
19.247201256000,-0.303000000000
19.254887959000,-0.284000000000
19.262574662000,-0.267000000000
19.270261365000,-0.264000000000
19.277948068000,-0.262000000000
19.285634771000,-0.254000000000
19.293321474000,-0.247000000000
19.301008177000,-0.232000000000
19.308694880000,-0.220000000000
19.316381583000,-0.218000000000
19.324068286000,-0.220000000000
19.331754989000,-0.218000000000
19.339441692000,-0.213000000000
19.347128395000,-0.210000000000
19.354815098000,-0.215000000000
19.362501801000,-0.215000000000
19.370188504000,-0.205000000000
19.377875207000,-0.200000000000
19.385561910000,-0.200000000000
19.393248613000,-0.198000000000
19.400935316000,-0.195000000000
19.408622019000,-0.188000000000
19.416308722000,-0.181000000000
19.423995425000,-0.186000000000
19.431682128000,-0.193000000000
19.439368831000,-0.186000000000
19.447055534000,-0.166000000000
19.454742237000,-0.159000000000
19.462428940000,-0.146000000000
19.470115643000,-0.124000000000
19.477802346000,-0.112000000000
19.485489049000,-0.112000000000
19.493175752000,-0.124000000000
19.500862455000,-0.154000000000
19.508549158000,-0.166000000000
19.516235861000,-0.161000000000
19.523922564000,-0.159000000000
19.531609267000,-0.151000000000
19.539295970000,-0.142000000000
19.546982673000,-0.137000000000
19.554669376000,-0.127000000000
19.562356079000,-0.127000000000
19.570042782000,-0.156000000000
19.577729485000,-0.213000000000
19.585416188000,-0.298000000000
19.593102891000,-0.193000000000
19.600789594000,0.406000000000
19.608476297000,1.290000000000
19.616163000000,1.851000000000
19.623849703000,1.410000000000
19.631536406000,0.014000000000
19.639223109000,-0.744000000000
19.646909812000,-0.306000000000
19.654596515000,-0.063000000000
19.662283218000,-0.257000000000
19.669969921000,-0.208000000000
19.677656624000,-0.107000000000
19.685343327000,-0.154000000000
19.693030030000,-0.142000000000
19.700716733000,-0.085000000000
19.708403436000,-0.078000000000
19.716090139000,-0.068000000000
19.723776842000,-0.034000000000
19.731463545000,-0.009000000000
19.739150248000,0.014000000000
19.746836951000,0.048000000000
19.754523654000,0.078000000000
19.762210417000,0.110000000000
19.769896772000,0.149000000000
19.777583127000,0.191000000000
19.785269482000,0.222000000000
19.792955837000,0.244000000000
19.800642192000,0.257000000000
19.808328547000,0.257000000000
19.816014902000,0.247000000000
19.823701257000,0.237000000000
19.831387612000,0.215000000000
19.839073967000,0.178000000000
19.846760322000,0.134000000000
19.854446677000,0.078000000000
19.862133032000,-0.004000000000
19.869819387000,-0.095000000000
19.877505742000,-0.178000000000
19.885192097000,-0.244000000000
19.892878452000,-0.296000000000
19.900564807000,-0.325000000000
19.908251162000,-0.333000000000
19.915937517000,-0.330000000000
19.923623872000,-0.330000000000
19.931310227000,-0.323000000000
19.938996582000,-0.308000000000
19.946682937000,-0.289000000000
19.954369292000,-0.274000000000
19.962055647000,-0.264000000000
19.969742002000,-0.252000000000
19.977428357000,-0.242000000000
19.985114712000,-0.237000000000
19.992801067000,-0.235000000000
20.000487422000,-0.230000000000
20.008173777000,-0.227000000000
20.015860132000,-0.222000000000
20.023546487000,-0.215000000000
20.031232842000,-0.215000000000
20.038919197000,-0.218000000000
20.046605552000,-0.218000000000
20.054291907000,-0.210000000000
20.061978262000,-0.208000000000
20.069664617000,-0.210000000000
20.077350972000,-0.208000000000
20.085037327000,-0.205000000000
20.092723682000,-0.203000000000
20.100410037000,-0.198000000000
20.108096392000,-0.193000000000
20.115782747000,-0.191000000000
20.123469102000,-0.193000000000
20.131155457000,-0.195000000000
20.138841812000,-0.193000000000
20.146528167000,-0.181000000000
20.154214522000,-0.161000000000
20.161900877000,-0.146000000000
20.169587232000,-0.142000000000
20.177273587000,-0.129000000000
20.184959942000,-0.117000000000
20.192646297000,-0.132000000000
20.200332652000,-0.166000000000
20.208019007000,-0.173000000000
20.215705362000,-0.161000000000
20.223391717000,-0.156000000000
20.231078072000,-0.154000000000
20.238764427000,-0.149000000000
20.246450782000,-0.146000000000
20.254137137000,-0.142000000000
20.261823492000,-0.142000000000
20.269509847000,-0.164000000000
20.277196202000,-0.225000000000
20.284882557000,-0.301000000000
20.292568912000,-0.151000000000
20.300255267000,0.485000000000
20.307941622000,1.369000000000
20.315627977000,1.922000000000
20.323314369000,1.413000000000
20.331001003000,-0.061000000000
20.338687637000,-0.769000000000
20.346374271000,-0.274000000000
20.354060905000,-0.068000000000
20.361747539000,-0.286000000000
20.369434173000,-0.227000000000
20.377120807000,-0.127000000000
20.384807441000,-0.181000000000
20.392494075000,-0.171000000000
20.400180709000,-0.112000000000
20.407867343000,-0.107000000000
20.415553977000,-0.095000000000
20.423240611000,-0.056000000000
20.430927245000,-0.034000000000
20.438613879000,-0.014000000000
20.446300513000,0.017000000000
20.453987147000,0.048000000000
20.461673781000,0.078000000000
20.469360415000,0.112000000000
20.477047049000,0.146000000000
20.484733683000,0.176000000000
20.492420317000,0.203000000000
20.500106951000,0.218000000000
20.507793585000,0.220000000000
20.515480219000,0.213000000000
20.523166853000,0.198000000000
20.530853487000,0.178000000000
20.538540121000,0.151000000000
20.546226755000,0.110000000000
20.553913389000,0.051000000000
20.561600023000,-0.024000000000
20.569286657000,-0.107000000000
20.576973291000,-0.188000000000
20.584659925000,-0.257000000000
20.592346559000,-0.306000000000
20.600033193000,-0.335000000000
20.607719827000,-0.345000000000
20.615406461000,-0.345000000000
20.623093095000,-0.335000000000
20.630779729000,-0.323000000000
20.638466363000,-0.311000000000
20.646152997000,-0.296000000000
20.653839631000,-0.281000000000
20.661526265000,-0.269000000000
20.669212899000,-0.259000000000
20.676899533000,-0.249000000000
20.684586167000,-0.242000000000
20.692272801000,-0.237000000000
20.699959435000,-0.232000000000
20.707646069000,-0.230000000000
20.715332703000,-0.227000000000
20.723019337000,-0.225000000000
20.730705971000,-0.222000000000
20.738392605000,-0.220000000000
20.746079239000,-0.218000000000
20.753765873000,-0.215000000000
20.761452507000,-0.213000000000
20.769139141000,-0.213000000000
20.776825775000,-0.208000000000
20.784512409000,-0.205000000000
20.792199043000,-0.200000000000
20.799885677000,-0.198000000000
20.807572311000,-0.193000000000
20.815258945000,-0.186000000000
20.822945579000,-0.183000000000
20.830632213000,-0.188000000000
20.838318847000,-0.193000000000
20.846005481000,-0.188000000000
20.853692115000,-0.171000000000
20.861378749000,-0.151000000000
20.869065383000,-0.139000000000
20.876752017000,-0.132000000000
20.884438661000,-0.117000000000
20.892125155000,-0.107000000000
20.899811649000,-0.132000000000
20.907498143000,-0.166000000000
20.915184637000,-0.166000000000
20.922871131000,-0.154000000000
20.930557625000,-0.154000000000
20.938244119000,-0.149000000000
20.945930613000,-0.142000000000
20.953617107000,-0.139000000000
20.961303601000,-0.137000000000
20.968990095000,-0.139000000000
20.976676589000,-0.166000000000
20.984363083000,-0.242000000000
20.992049577000,-0.311000000000
20.999736071000,-0.102000000000
21.007422565000,0.595000000000
21.015109059000,1.499000000000
21.022795553000,1.989000000000
21.030482047000,1.310000000000
21.038168541000,-0.208000000000
21.045855035000,-0.747000000000
21.053541529000,-0.208000000000
21.061228023000,-0.095000000000
21.068914517000,-0.303000000000
21.076601011000,-0.213000000000
21.084287505000,-0.134000000000
21.091973999000,-0.191000000000
21.099660493000,-0.169000000000
21.107346987000,-0.112000000000
21.115033481000,-0.110000000000
21.122719975000,-0.093000000000
21.130406469000,-0.056000000000
21.138092963000,-0.034000000000
21.145779457000,-0.012000000000
21.153465951000,0.022000000000
21.161152445000,0.053000000000
21.168838939000,0.085000000000
21.176525433000,0.120000000000
21.184211927000,0.156000000000
21.191898421000,0.188000000000
21.199584915000,0.213000000000
21.207271409000,0.230000000000
21.214957903000,0.232000000000
21.222644397000,0.222000000000
21.230330891000,0.210000000000
21.238017385000,0.191000000000
21.245703879000,0.164000000000
21.253390373000,0.122000000000
21.261076867000,0.058000000000
21.268763361000,-0.017000000000
21.276449855000,-0.100000000000
21.284136349000,-0.181000000000
21.291822843000,-0.252000000000
21.299509337000,-0.301000000000
21.307195831000,-0.325000000000
21.314882325000,-0.335000000000
21.322568819000,-0.335000000000
21.330255313000,-0.328000000000
21.337941807000,-0.315000000000
21.345628301000,-0.303000000000
21.353314795000,-0.289000000000
21.361001289000,-0.274000000000
21.368687783000,-0.262000000000
21.376374277000,-0.252000000000
21.384060771000,-0.242000000000
21.391747265000,-0.235000000000
21.399433759000,-0.232000000000
21.407120253000,-0.227000000000
21.414806747000,-0.222000000000
21.422493241000,-0.222000000000
21.430179735000,-0.220000000000
21.437866229000,-0.218000000000
21.445552783000,-0.218000000000
21.453239277000,-0.218000000000
21.460925771000,-0.213000000000
21.468612265000,-0.210000000000
21.476298759000,-0.208000000000
21.483985253000,-0.205000000000
21.491671747000,-0.200000000000
21.499358241000,-0.198000000000
21.507044735000,-0.193000000000
21.514731229000,-0.191000000000
21.522417723000,-0.186000000000
21.530104217000,-0.181000000000
21.537790711000,-0.186000000000
21.545477205000,-0.191000000000
21.553163699000,-0.188000000000
21.560850193000,-0.173000000000
21.568536687000,-0.154000000000
21.576223181000,-0.139000000000
21.583909675000,-0.132000000000
21.591596169000,-0.120000000000
21.599282663000,-0.110000000000
21.606969157000,-0.134000000000
21.614655651000,-0.169000000000
21.622342145000,-0.169000000000
21.630028639000,-0.156000000000
21.637715133000,-0.154000000000
21.645401627000,-0.149000000000
21.653088121000,-0.144000000000
21.660774615000,-0.139000000000
21.668461109000,-0.139000000000
21.676147603000,-0.144000000000
21.683834097000,-0.169000000000
21.691520591000,-0.240000000000
21.699207085000,-0.311000000000
21.706893579000,-0.105000000000
21.714580073000,0.595000000000
21.722266567000,1.504000000000
21.729953061000,1.993000000000
21.737639555000,1.300000000000
21.745326049000,-0.225000000000
21.753012543000,-0.744000000000
21.760699037000,-0.203000000000
21.768385531000,-0.102000000000
21.776072025000,-0.303000000000
21.783758519000,-0.210000000000
21.791445013000,-0.137000000000
21.799131507000,-0.193000000000
21.806818001000,-0.166000000000
21.814504495000,-0.112000000000
21.822190989000,-0.110000000000
21.829877483000,-0.093000000000
21.837563977000,-0.053000000000
21.845250471000,-0.034000000000
21.852936965000,-0.012000000000
21.860623459000,0.022000000000
21.868309953000,0.051000000000
21.875996447000,0.080000000000
21.883682941000,0.120000000000
21.891369435000,0.156000000000
21.899055929000,0.191000000000
21.906742423000,0.215000000000
21.914428917000,0.230000000000
21.922115411000,0.232000000000
21.929801905000,0.227000000000
21.937488399000,0.218000000000
21.945174893000,0.195000000000
21.952861387000,0.159000000000
21.960547881000,0.117000000000
21.968234375000,0.061000000000
21.975920869000,-0.014000000000
21.983607363000,-0.102000000000
21.991293857000,-0.183000000000
21.998980351000,-0.247000000000
22.006666901000,-0.291000000000
22.014353535000,-0.323000000000
22.022040169000,-0.338000000000
22.029726803000,-0.333000000000
22.037413437000,-0.325000000000
22.045100071000,-0.320000000000
22.052786705000,-0.308000000000
22.060473339000,-0.293000000000
22.068159973000,-0.276000000000
22.075846607000,-0.257000000000
22.083533241000,-0.247000000000
22.091219875000,-0.242000000000
22.098906509000,-0.235000000000
22.106593143000,-0.232000000000
22.114279777000,-0.232000000000
22.121966411000,-0.227000000000
22.129653045000,-0.227000000000
22.137339679000,-0.227000000000
22.145026313000,-0.222000000000
22.152712947000,-0.218000000000
22.160399581000,-0.218000000000
22.168086215000,-0.210000000000
22.175772849000,-0.205000000000
22.183459483000,-0.203000000000
22.191146117000,-0.203000000000
22.198832751000,-0.208000000000
22.206519385000,-0.205000000000
22.214206019000,-0.195000000000
22.221892653000,-0.191000000000
22.229579287000,-0.188000000000
22.237265921000,-0.183000000000
22.244952555000,-0.181000000000
22.252639189000,-0.183000000000
22.260325823000,-0.178000000000
22.268012457000,-0.171000000000
22.275699091000,-0.159000000000
22.283385725000,-0.139000000000
22.291072359000,-0.127000000000
22.298758993000,-0.117000000000
22.306445627000,-0.107000000000
22.314132261000,-0.124000000000
22.321818895000,-0.156000000000
22.329505529000,-0.161000000000
22.337192163000,-0.154000000000
22.344878797000,-0.149000000000
22.352565431000,-0.146000000000
22.360252065000,-0.144000000000
22.367938699000,-0.139000000000
22.375625333000,-0.129000000000
22.383311967000,-0.134000000000
22.390998601000,-0.154000000000
22.398685235000,-0.213000000000
22.406371869000,-0.298000000000
22.414058503000,-0.166000000000
22.421745137000,0.470000000000
22.429431771000,1.379000000000
22.437118405000,1.942000000000
22.444805039000,1.432000000000
22.452491673000,-0.044000000000
22.460178307000,-0.756000000000
22.467864941000,-0.271000000000
22.475551575000,-0.071000000000
22.483238209000,-0.281000000000
22.490924843000,-0.220000000000
22.498611477000,-0.124000000000
22.506298111000,-0.176000000000
22.513984745000,-0.151000000000
22.521671379000,-0.085000000000
22.529358013000,-0.088000000000
22.537044647000,-0.090000000000
22.544731281000,-0.044000000000
22.552417915000,-0.014000000000
22.560104549000,-0.002000000000
22.567791197000,0.031000000000
22.575477552000,0.078000000000
22.583163907000,0.112000000000
22.590850262000,0.137000000000
22.598536617000,0.169000000000
22.606222972000,0.208000000000
22.613909327000,0.235000000000
22.621595682000,0.247000000000
22.629282037000,0.254000000000
22.636968392000,0.257000000000
22.644654747000,0.242000000000
22.652341102000,0.213000000000
22.660027457000,0.186000000000
22.667713812000,0.149000000000
22.675400167000,0.085000000000
22.683086522000,0.004000000000
22.690772877000,-0.078000000000
22.698459232000,-0.161000000000
22.706145587000,-0.242000000000
22.713831942000,-0.301000000000
22.721518297000,-0.320000000000
22.729204652000,-0.328000000000
22.736891007000,-0.335000000000
22.744577362000,-0.330000000000
22.752263717000,-0.320000000000
22.759950072000,-0.306000000000
22.767636427000,-0.289000000000
22.775322782000,-0.276000000000
22.783009137000,-0.267000000000
22.790695492000,-0.254000000000
22.798381847000,-0.235000000000
22.806068202000,-0.230000000000
22.813754557000,-0.240000000000
22.821440912000,-0.232000000000
22.829127267000,-0.218000000000
22.836813622000,-0.220000000000
22.844499977000,-0.218000000000
22.852186332000,-0.210000000000
22.859872687000,-0.208000000000
22.867559042000,-0.208000000000
22.875245397000,-0.213000000000
22.882931752000,-0.215000000000
22.890618107000,-0.208000000000
22.898304462000,-0.200000000000
22.905990817000,-0.200000000000
22.913677172000,-0.191000000000
22.921363527000,-0.191000000000
22.929049882000,-0.193000000000
22.936736237000,-0.191000000000
22.944422592000,-0.188000000000
22.952108947000,-0.191000000000
22.959795302000,-0.176000000000
22.967481657000,-0.149000000000
22.975168012000,-0.134000000000
22.982854367000,-0.124000000000
22.990540722000,-0.115000000000
22.998227077000,-0.129000000000
23.005913432000,-0.164000000000
23.013599787000,-0.176000000000
23.021286142000,-0.164000000000
23.028972497000,-0.156000000000
23.036658852000,-0.156000000000
23.044345207000,-0.151000000000
23.052031562000,-0.142000000000
23.059717917000,-0.137000000000
23.067404272000,-0.139000000000
23.075090627000,-0.156000000000
23.082776982000,-0.200000000000
23.090463337000,-0.281000000000
23.098149692000,-0.237000000000
23.105836047000,0.247000000000
23.113522402000,1.102000000000
23.121208757000,1.775000000000
23.128895141000,1.602000000000
23.136581844000,0.333000000000
23.144268547000,-0.715000000000
23.151955250000,-0.450000000000
23.159641953000,-0.063000000000
23.167328656000,-0.237000000000
23.175015359000,-0.254000000000
23.182702062000,-0.124000000000
23.190388765000,-0.154000000000
23.198075468000,-0.169000000000
23.205762171000,-0.110000000000
23.213448874000,-0.095000000000
23.221135577000,-0.095000000000
23.228822280000,-0.053000000000
23.236508983000,-0.024000000000
23.244195686000,-0.009000000000
23.251882389000,0.022000000000
23.259569092000,0.056000000000
23.267255795000,0.083000000000
23.274942498000,0.117000000000
23.282629201000,0.154000000000
23.290315904000,0.186000000000
23.298002607000,0.215000000000
23.305689310000,0.235000000000
23.313376013000,0.240000000000
23.321062716000,0.232000000000
23.328749419000,0.218000000000
23.336436122000,0.193000000000
23.344122825000,0.164000000000
23.351809528000,0.132000000000
23.359496231000,0.073000000000
23.367182934000,-0.002000000000
23.374869637000,-0.083000000000
23.382556340000,-0.164000000000
23.390243043000,-0.237000000000
23.397929746000,-0.291000000000
23.405616449000,-0.320000000000
23.413303152000,-0.335000000000
23.420989855000,-0.338000000000
23.428676558000,-0.330000000000
23.436363261000,-0.320000000000
23.444049964000,-0.308000000000
23.451736667000,-0.296000000000
23.459423370000,-0.284000000000
23.467110073000,-0.269000000000
23.474796776000,-0.257000000000
23.482483479000,-0.249000000000
23.490170182000,-0.242000000000
23.497856885000,-0.235000000000
23.505543588000,-0.232000000000
23.513230291000,-0.230000000000
23.520916994000,-0.225000000000
23.528603697000,-0.220000000000
23.536290400000,-0.220000000000
23.543977103000,-0.215000000000
23.551663806000,-0.215000000000
23.559350509000,-0.215000000000
23.567037212000,-0.213000000000
23.574723915000,-0.210000000000
23.582410618000,-0.210000000000
23.590097321000,-0.205000000000
23.597784024000,-0.203000000000
23.605470727000,-0.200000000000
23.613157430000,-0.198000000000
23.620844133000,-0.195000000000
23.628530836000,-0.195000000000
23.636217539000,-0.200000000000
23.643904242000,-0.200000000000
23.651590945000,-0.188000000000
23.659277648000,-0.171000000000
23.666964351000,-0.156000000000
23.674651054000,-0.149000000000
23.682337757000,-0.137000000000
23.690024524000,-0.117000000000
23.697710949000,-0.127000000000
23.705397374000,-0.166000000000
23.713083799000,-0.181000000000
23.720770224000,-0.169000000000
23.728456649000,-0.161000000000
23.736143074000,-0.161000000000
23.743829499000,-0.156000000000
23.751515924000,-0.149000000000
23.759202349000,-0.146000000000
23.766888774000,-0.149000000000
23.774575199000,-0.161000000000
23.782261624000,-0.205000000000
23.789948049000,-0.293000000000
23.797634474000,-0.247000000000
23.805320899000,0.242000000000
23.813007324000,1.107000000000
23.820693749000,1.839000000000
23.828380174000,1.724000000000
23.836066599000,0.404000000000
23.843753024000,-0.729000000000
23.851439449000,-0.470000000000
23.859125874000,-0.051000000000
23.866812299000,-0.240000000000
23.874498724000,-0.284000000000
23.882185149000,-0.146000000000
23.889871574000,-0.171000000000
23.897557999000,-0.195000000000
23.905244424000,-0.132000000000
23.912930849000,-0.110000000000
23.920617274000,-0.110000000000
23.928303699000,-0.075000000000
23.935990124000,-0.046000000000
23.943676549000,-0.029000000000
23.951362974000,0.000000000000
23.959049399000,0.034000000000
23.966735824000,0.066000000000
23.974422249000,0.095000000000
23.982108674000,0.132000000000
23.989795099000,0.166000000000
23.997481524000,0.198000000000
24.005167949000,0.215000000000
24.012854374000,0.222000000000
24.020540799000,0.220000000000
24.028227224000,0.210000000000
24.035913649000,0.191000000000
24.043600074000,0.166000000000
24.051286499000,0.132000000000
24.058972924000,0.080000000000
24.066659349000,0.007000000000
24.074345774000,-0.073000000000
24.082032199000,-0.154000000000
24.089718624000,-0.227000000000
24.097405049000,-0.286000000000
24.105091474000,-0.320000000000
24.112777899000,-0.335000000000
24.120464324000,-0.340000000000
24.128150749000,-0.338000000000
24.135837174000,-0.328000000000
24.143523599000,-0.313000000000
24.151210024000,-0.298000000000
24.158896449000,-0.286000000000
24.166582874000,-0.274000000000
24.174269299000,-0.262000000000
24.181955724000,-0.249000000000
24.189642149000,-0.242000000000
24.197328574000,-0.237000000000
24.205014999000,-0.232000000000
24.212701424000,-0.230000000000
24.220387849000,-0.227000000000
24.228074274000,-0.225000000000
24.235760699000,-0.222000000000
24.243447124000,-0.220000000000
24.251133559000,-0.220000000000
24.258820123000,-0.218000000000
24.266506687000,-0.215000000000
24.274193251000,-0.213000000000
24.281879815000,-0.210000000000
24.289566379000,-0.205000000000
24.297252943000,-0.203000000000
24.304939507000,-0.200000000000
24.312626071000,-0.195000000000
24.320312635000,-0.193000000000
24.327999199000,-0.188000000000
24.335685763000,-0.186000000000
24.343372327000,-0.193000000000
24.351058891000,-0.195000000000
24.358745455000,-0.183000000000
24.366432019000,-0.166000000000
24.374118583000,-0.151000000000
24.381805147000,-0.139000000000
24.389491711000,-0.129000000000
24.397178275000,-0.115000000000
24.404864839000,-0.120000000000
24.412551403000,-0.156000000000
24.420237967000,-0.176000000000
24.427924531000,-0.166000000000
24.435611095000,-0.156000000000
24.443297659000,-0.156000000000
24.450984223000,-0.149000000000
24.458670787000,-0.146000000000
24.466357351000,-0.142000000000
24.474043915000,-0.139000000000
24.481730479000,-0.149000000000
24.489417043000,-0.188000000000
24.497103607000,-0.271000000000
24.504790171000,-0.284000000000
24.512476735000,0.085000000000
24.520163299000,0.911000000000
24.527849863000,1.758000000000
24.535536427000,1.920000000000
24.543222991000,0.805000000000
24.550909555000,-0.580000000000
24.558596119000,-0.607000000000
24.566282683000,-0.085000000000
24.573969247000,-0.186000000000
24.581655811000,-0.306000000000
24.589342375000,-0.166000000000
24.597028939000,-0.154000000000
24.604715503000,-0.200000000000
24.612402067000,-0.146000000000
24.620088631000,-0.110000000000
24.627775195000,-0.115000000000
24.635461759000,-0.085000000000
24.643148323000,-0.051000000000
24.650834887000,-0.031000000000
24.658521451000,-0.007000000000
24.666208015000,0.026000000000
24.673894579000,0.058000000000
24.681581143000,0.090000000000
24.689267707000,0.127000000000
24.696954271000,0.161000000000
24.704640835000,0.193000000000
24.712327399000,0.215000000000
24.720013963000,0.230000000000
24.727700527000,0.230000000000
24.735387091000,0.220000000000
24.743073655000,0.203000000000
24.750760219000,0.181000000000
24.758446783000,0.151000000000
24.766133347000,0.102000000000
24.773819911000,0.034000000000
24.781506475000,-0.046000000000
24.789193039000,-0.129000000000
24.796879603000,-0.208000000000
24.804566167000,-0.271000000000
24.812252764000,-0.313000000000
24.819939328000,-0.333000000000
24.827625892000,-0.338000000000
24.835312456000,-0.335000000000
24.842999020000,-0.328000000000
24.850685584000,-0.313000000000
24.858372148000,-0.301000000000
24.866058712000,-0.289000000000
24.873745276000,-0.276000000000
24.881431840000,-0.264000000000
24.889118404000,-0.252000000000
24.896804968000,-0.247000000000
24.904491532000,-0.242000000000
24.912178096000,-0.235000000000
24.919864660000,-0.232000000000
24.927551224000,-0.230000000000
24.935237788000,-0.225000000000
24.942924352000,-0.222000000000
24.950610916000,-0.222000000000
24.958297480000,-0.220000000000
24.965984044000,-0.218000000000
24.973670608000,-0.218000000000
24.981357172000,-0.215000000000
24.989043736000,-0.210000000000
24.996730300000,-0.208000000000
25.004416864000,-0.205000000000
25.012103428000,-0.200000000000
25.019789992000,-0.195000000000
25.027476556000,-0.193000000000
25.035163120000,-0.188000000000
25.042849684000,-0.183000000000
25.050536248000,-0.186000000000
25.058222812000,-0.193000000000
25.065909376000,-0.188000000000
25.073595940000,-0.173000000000
25.081282504000,-0.154000000000
25.088969068000,-0.139000000000
25.096655632000,-0.134000000000
25.104342196000,-0.120000000000
25.112028760000,-0.110000000000
25.119715324000,-0.134000000000
25.127401888000,-0.166000000000
25.135088452000,-0.171000000000
25.142775016000,-0.159000000000
25.150461580000,-0.154000000000
25.158148144000,-0.151000000000
25.165834708000,-0.149000000000
25.173521272000,-0.146000000000
25.181207836000,-0.144000000000
25.188894400000,-0.146000000000
25.196580964000,-0.164000000000
25.204267528000,-0.222000000000
25.211954092000,-0.308000000000
25.219640656000,-0.186000000000
25.227327220000,0.426000000000
25.235013784000,1.344000000000
25.242700348000,1.984000000000
25.250386912000,1.567000000000
25.258073476000,0.068000000000
25.265760040000,-0.776000000000
25.273446604000,-0.320000000000
25.281133168000,-0.063000000000
25.288819732000,-0.286000000000
25.296506296000,-0.244000000000
25.304192860000,-0.124000000000
25.311879424000,-0.173000000000
25.319565988000,-0.178000000000
25.327252552000,-0.120000000000
25.334939116000,-0.105000000000
25.342625680000,-0.095000000000
25.350312244000,-0.058000000000
25.357998808000,-0.034000000000
25.365685372000,-0.014000000000
25.373371973000,0.017000000000
25.381058398000,0.051000000000
25.388744823000,0.090000000000
25.396431248000,0.134000000000
25.404117673000,0.161000000000
25.411804098000,0.186000000000
25.419490523000,0.222000000000
25.427176948000,0.247000000000
25.434863373000,0.244000000000
25.442549798000,0.235000000000
25.450236223000,0.230000000000
25.457922648000,0.215000000000
25.465609073000,0.195000000000
25.473295498000,0.164000000000
25.480981923000,0.110000000000
25.488668348000,0.024000000000
25.496354773000,-0.073000000000
25.504041198000,-0.154000000000
25.511727623000,-0.225000000000
25.519414048000,-0.281000000000
25.527100473000,-0.313000000000
25.534786898000,-0.323000000000
25.542473323000,-0.320000000000
25.550159748000,-0.315000000000
25.557846173000,-0.308000000000
25.565532598000,-0.291000000000
25.573219023000,-0.274000000000
25.580905448000,-0.269000000000
25.588591873000,-0.264000000000
25.596278298000,-0.249000000000
25.603964723000,-0.232000000000
25.611651148000,-0.220000000000
25.619337573000,-0.215000000000
25.627023998000,-0.213000000000
25.634710423000,-0.213000000000
25.642396848000,-0.210000000000
25.650083273000,-0.205000000000
25.657769698000,-0.203000000000
25.665456123000,-0.205000000000
25.673142548000,-0.203000000000
25.680828973000,-0.198000000000
25.688515398000,-0.198000000000
25.696201823000,-0.191000000000
25.703888248000,-0.183000000000
25.711574673000,-0.181000000000
25.719261098000,-0.181000000000
25.726947523000,-0.176000000000
25.734633948000,-0.171000000000
25.742320373000,-0.173000000000
25.750006798000,-0.178000000000
25.757693223000,-0.176000000000
25.765379648000,-0.166000000000
25.773066073000,-0.146000000000
25.780752498000,-0.124000000000
25.788438923000,-0.115000000000
25.796125348000,-0.102000000000
25.803811773000,-0.088000000000
25.811498198000,-0.110000000000
25.819184623000,-0.154000000000
25.826871048000,-0.164000000000
25.834557473000,-0.149000000000
25.842243898000,-0.142000000000
25.849930323000,-0.132000000000
25.857616748000,-0.127000000000
25.865303173000,-0.124000000000
25.872989598000,-0.117000000000
25.880676023000,-0.117000000000
25.888362448000,-0.139000000000
25.896048873000,-0.188000000000
25.903735298000,-0.274000000000
25.911421723000,-0.259000000000
25.919108148000,0.178000000000
25.926794573000,1.031000000000
25.934481004000,1.788000000000
25.942167707000,1.763000000000
25.949854410000,0.543000000000
25.957541113000,-0.656000000000
25.965227816000,-0.497000000000
25.972914519000,-0.048000000000
25.980601222000,-0.195000000000
25.988287925000,-0.244000000000
25.995974628000,-0.110000000000
26.003661331000,-0.129000000000
26.011348034000,-0.154000000000
26.019034737000,-0.093000000000
26.026721440000,-0.068000000000
26.034408143000,-0.066000000000
26.042094846000,-0.036000000000
26.049781549000,-0.012000000000
26.057468252000,0.009000000000
26.065154955000,0.048000000000
26.072841658000,0.080000000000
26.080528361000,0.110000000000
26.088215064000,0.146000000000
26.095901767000,0.181000000000
26.103588470000,0.220000000000
26.111275173000,0.254000000000
26.118961876000,0.276000000000
26.126648579000,0.276000000000
26.134335282000,0.271000000000
26.142021985000,0.264000000000
26.149708688000,0.242000000000
26.157395391000,0.213000000000
26.165082094000,0.178000000000
26.172768797000,0.127000000000
26.180455500000,0.053000000000
26.188142203000,-0.034000000000
26.195828906000,-0.124000000000
26.203515609000,-0.203000000000
26.211202312000,-0.264000000000
26.218889015000,-0.298000000000
26.226575718000,-0.315000000000
26.234262421000,-0.325000000000
26.241949124000,-0.323000000000
26.249635827000,-0.311000000000
26.257322530000,-0.298000000000
26.265009233000,-0.284000000000
26.272695936000,-0.267000000000
26.280382639000,-0.252000000000
26.288069342000,-0.244000000000
26.295756045000,-0.232000000000
26.303442748000,-0.225000000000
26.311129451000,-0.225000000000
26.318816154000,-0.218000000000
26.326502857000,-0.208000000000
26.334189560000,-0.208000000000
26.341876263000,-0.210000000000
26.349562966000,-0.208000000000
26.357249669000,-0.200000000000
26.364936372000,-0.200000000000
26.372623075000,-0.198000000000
26.380309778000,-0.200000000000
26.387996481000,-0.198000000000
26.395683184000,-0.193000000000
26.403369887000,-0.191000000000
26.411056590000,-0.188000000000
26.418743293000,-0.186000000000
26.426429996000,-0.181000000000
26.434116699000,-0.183000000000
26.441803402000,-0.191000000000
26.449490105000,-0.186000000000
26.457176808000,-0.171000000000
26.464863511000,-0.154000000000
26.472550214000,-0.139000000000
26.480236917000,-0.129000000000
26.487923620000,-0.115000000000
26.495610387000,-0.107000000000
26.503296672000,-0.134000000000
26.510982957000,-0.166000000000
26.518669242000,-0.169000000000
26.526355527000,-0.159000000000
26.534041812000,-0.151000000000
26.541728097000,-0.146000000000
26.549414382000,-0.144000000000
26.557100667000,-0.139000000000
26.564786952000,-0.134000000000
26.572473237000,-0.144000000000
26.580159522000,-0.169000000000
26.587845807000,-0.230000000000
26.595532092000,-0.296000000000
26.603218377000,-0.105000000000
26.610904662000,0.578000000000
26.618590947000,1.462000000000
26.626277232000,1.922000000000
26.633963517000,1.261000000000
26.641649802000,-0.210000000000
26.649336087000,-0.744000000000
26.657022372000,-0.220000000000
26.664708657000,-0.095000000000
26.672394942000,-0.291000000000
26.680081227000,-0.200000000000
26.687767512000,-0.127000000000
26.695453797000,-0.183000000000
26.703140082000,-0.159000000000
26.710826367000,-0.105000000000
26.718512652000,-0.102000000000
26.726198937000,-0.085000000000
26.733885222000,-0.048000000000
26.741571507000,-0.026000000000
26.749257792000,-0.004000000000
26.756944077000,0.026000000000
26.764630362000,0.056000000000
26.772316647000,0.085000000000
26.780002932000,0.122000000000
26.787689217000,0.159000000000
26.795375502000,0.188000000000
26.803061787000,0.213000000000
26.810748072000,0.230000000000
26.818434357000,0.232000000000
26.826120642000,0.222000000000
26.833806927000,0.208000000000
26.841493212000,0.183000000000
26.849179497000,0.154000000000
26.856865782000,0.115000000000
26.864552067000,0.053000000000
26.872238352000,-0.026000000000
26.879924637000,-0.107000000000
26.887610922000,-0.186000000000
26.895297207000,-0.252000000000
26.902983492000,-0.298000000000
26.910669777000,-0.323000000000
26.918356062000,-0.333000000000
26.926042347000,-0.335000000000
26.933728632000,-0.328000000000
26.941414917000,-0.313000000000
26.949101202000,-0.301000000000
26.956787487000,-0.284000000000
26.964473772000,-0.271000000000
26.972160057000,-0.262000000000
26.979846342000,-0.249000000000
26.987532627000,-0.240000000000
26.995218912000,-0.235000000000
27.002905197000,-0.232000000000
27.010591482000,-0.227000000000
27.018277767000,-0.225000000000
27.025964052000,-0.222000000000
27.033650337000,-0.218000000000
27.041336622000,-0.215000000000
27.049022907000,-0.215000000000
27.056709248000,-0.215000000000
27.064395673000,-0.213000000000
27.072082098000,-0.210000000000
27.079768523000,-0.208000000000
27.087454948000,-0.205000000000
27.095141373000,-0.203000000000
27.102827798000,-0.198000000000
27.110514223000,-0.195000000000
27.118200648000,-0.193000000000
27.125887073000,-0.193000000000
27.133573498000,-0.195000000000
27.141259923000,-0.200000000000
27.148946348000,-0.193000000000
27.156632773000,-0.173000000000
27.164319198000,-0.156000000000
27.172005623000,-0.146000000000
27.179692048000,-0.137000000000
27.187378473000,-0.117000000000
27.195064898000,-0.122000000000
27.202751323000,-0.159000000000
27.210437748000,-0.183000000000
27.218124173000,-0.173000000000
27.225810598000,-0.161000000000
27.233497023000,-0.161000000000
27.241183448000,-0.156000000000
27.248869873000,-0.149000000000
27.256556298000,-0.146000000000
27.264242723000,-0.144000000000
27.271929148000,-0.154000000000
27.279615573000,-0.193000000000
27.287301998000,-0.274000000000
27.294988423000,-0.291000000000
27.302674848000,0.063000000000
27.310361273000,0.874000000000
27.318047698000,1.719000000000
27.325734123000,1.910000000000
27.333420548000,0.837000000000
27.341106973000,-0.558000000000
27.348793398000,-0.622000000000
27.356479823000,-0.090000000000
27.364166248000,-0.176000000000
27.371852673000,-0.308000000000
27.379539098000,-0.171000000000
27.387225523000,-0.154000000000
27.394911948000,-0.203000000000
27.402598373000,-0.149000000000
27.410284798000,-0.110000000000
27.417971223000,-0.112000000000
27.425657648000,-0.085000000000
27.433344073000,-0.051000000000
27.441030498000,-0.034000000000
27.448716923000,-0.009000000000
27.456403348000,0.026000000000
27.464089773000,0.056000000000
27.471776198000,0.088000000000
27.479462623000,0.124000000000
27.487149048000,0.156000000000
27.494835473000,0.186000000000
27.502521898000,0.210000000000
27.510208323000,0.225000000000
27.517894748000,0.222000000000
27.525581173000,0.213000000000
27.533267598000,0.198000000000
27.540954023000,0.176000000000
27.548640448000,0.146000000000
27.556326873000,0.100000000000
27.564013298000,0.034000000000
27.571699723000,-0.046000000000
27.579386148000,-0.127000000000
27.587072573000,-0.203000000000
27.594758998000,-0.267000000000
27.602445423000,-0.311000000000
27.610131848000,-0.333000000000
27.617818283000,-0.338000000000
27.625504847000,-0.335000000000
27.633191411000,-0.325000000000
27.640877975000,-0.313000000000
27.648564539000,-0.301000000000
27.656251103000,-0.289000000000
27.663937667000,-0.279000000000
27.671624231000,-0.267000000000
27.679310795000,-0.254000000000
27.686997359000,-0.247000000000
27.694683923000,-0.242000000000
27.702370487000,-0.237000000000
27.710057051000,-0.232000000000
27.717743615000,-0.230000000000
27.725430179000,-0.227000000000
27.733116743000,-0.225000000000
27.740803307000,-0.225000000000
27.748489871000,-0.220000000000
27.756176435000,-0.220000000000
27.763862999000,-0.218000000000
27.771549563000,-0.215000000000
27.779236127000,-0.213000000000
27.786922691000,-0.210000000000
27.794609255000,-0.205000000000
27.802295819000,-0.203000000000
27.809982383000,-0.198000000000
27.817668947000,-0.195000000000
27.825355511000,-0.195000000000
27.833042075000,-0.200000000000
27.840728639000,-0.200000000000
27.848415203000,-0.191000000000
27.856101767000,-0.171000000000
27.863788331000,-0.154000000000
27.871474895000,-0.144000000000
27.879161459000,-0.132000000000
27.886848023000,-0.120000000000
27.894534587000,-0.137000000000
27.902221151000,-0.171000000000
27.909907715000,-0.181000000000
27.917594279000,-0.166000000000
27.925280843000,-0.161000000000
27.932967407000,-0.161000000000
27.940653971000,-0.154000000000
27.948340535000,-0.149000000000
27.956027099000,-0.146000000000
27.963713663000,-0.149000000000
27.971400227000,-0.166000000000
27.979086791000,-0.220000000000
27.986773355000,-0.306000000000
27.994459919000,-0.220000000000
28.002146483000,0.340000000000
28.009833047000,1.239000000000
28.017519611000,1.925000000000
28.025206175000,1.633000000000
28.032892739000,0.198000000000
28.040579303000,-0.771000000000
28.048265867000,-0.387000000000
28.055952431000,-0.061000000000
28.063638995000,-0.274000000000
28.071325559000,-0.267000000000
28.079012123000,-0.142000000000
28.086698687000,-0.183000000000
28.094385251000,-0.193000000000
28.102071815000,-0.129000000000
28.109758379000,-0.117000000000
28.117444943000,-0.110000000000
28.125131507000,-0.075000000000
28.132818071000,-0.048000000000
28.140504635000,-0.026000000000
28.148191199000,0.002000000000
28.155877763000,0.034000000000
28.163564327000,0.066000000000
28.171250891000,0.097000000000
28.178937488000,0.132000000000
28.186624191000,0.164000000000
28.194310894000,0.195000000000
28.201997597000,0.215000000000
28.209684300000,0.222000000000
28.217371003000,0.218000000000
28.225057706000,0.205000000000
28.232744409000,0.186000000000
28.240431112000,0.161000000000
28.248117815000,0.127000000000
28.255804518000,0.073000000000
28.263491221000,0.002000000000
28.271177924000,-0.080000000000
28.278864627000,-0.161000000000
28.286551330000,-0.235000000000
28.294238033000,-0.291000000000
28.301924736000,-0.323000000000
28.309611439000,-0.338000000000
28.317298142000,-0.340000000000
28.324984845000,-0.335000000000
28.332671548000,-0.325000000000
28.340358251000,-0.313000000000
28.348044954000,-0.298000000000
28.355731657000,-0.286000000000
28.363418360000,-0.271000000000
28.371105063000,-0.262000000000
28.378791766000,-0.252000000000
28.386478469000,-0.242000000000
28.394165172000,-0.237000000000
28.401851875000,-0.235000000000
28.409538578000,-0.232000000000
28.417225281000,-0.230000000000
28.424911984000,-0.227000000000
28.432598687000,-0.225000000000
28.440285390000,-0.222000000000
28.447972093000,-0.222000000000
28.455658796000,-0.220000000000
28.463345499000,-0.218000000000
28.471032202000,-0.213000000000
28.478718905000,-0.210000000000
28.486405608000,-0.205000000000
28.494092311000,-0.203000000000
28.501779014000,-0.200000000000
28.509465717000,-0.195000000000
28.517152420000,-0.195000000000
28.524839123000,-0.200000000000
28.532525826000,-0.203000000000
28.540212529000,-0.193000000000
28.547899232000,-0.176000000000
28.555585935000,-0.156000000000
28.563272638000,-0.146000000000
28.570959341000,-0.137000000000
28.578646044000,-0.120000000000
28.586332747000,-0.122000000000
28.594019450000,-0.159000000000
28.601706153000,-0.181000000000
28.609392856000,-0.169000000000
28.617079559000,-0.161000000000
28.624766262000,-0.161000000000
28.632452965000,-0.156000000000
28.640139668000,-0.151000000000
28.647826371000,-0.149000000000
28.655513074000,-0.146000000000
28.663199777000,-0.154000000000
28.670886480000,-0.191000000000
28.678573183000,-0.276000000000
28.686259886000,-0.306000000000
28.693946589000,0.039000000000
28.701633292000,0.849000000000
28.709319995000,1.714000000000
28.717006698000,1.927000000000
28.724693401000,0.852000000000
28.732380104000,-0.558000000000
28.740066867000,-0.631000000000
28.747753152000,-0.100000000000
28.755439437000,-0.183000000000
28.763125722000,-0.308000000000
28.770812007000,-0.171000000000
28.778498292000,-0.156000000000
28.786184577000,-0.205000000000
28.793870862000,-0.151000000000
28.801557147000,-0.115000000000
28.809243432000,-0.115000000000
28.816929717000,-0.088000000000
28.824616002000,-0.053000000000
28.832302287000,-0.034000000000
28.839988572000,-0.007000000000
28.847674857000,0.026000000000
28.855361142000,0.056000000000
28.863047427000,0.088000000000
28.870733712000,0.124000000000
28.878419997000,0.159000000000
28.886106282000,0.188000000000
28.893792567000,0.215000000000
28.901478852000,0.227000000000
28.909165137000,0.227000000000
28.916851422000,0.218000000000
28.924537707000,0.203000000000
28.932223992000,0.183000000000
28.939910277000,0.154000000000
28.947596562000,0.110000000000
28.955282847000,0.044000000000
28.962969132000,-0.036000000000
28.970655417000,-0.117000000000
28.978341702000,-0.193000000000
28.986027987000,-0.262000000000
28.993714272000,-0.306000000000
29.001400557000,-0.330000000000
29.009086842000,-0.338000000000
29.016773127000,-0.330000000000
29.024459412000,-0.315000000000
29.032145697000,-0.303000000000
29.039831982000,-0.291000000000
29.047518267000,-0.279000000000
29.055204552000,-0.269000000000
29.062890837000,-0.257000000000
29.070577122000,-0.247000000000
29.078263407000,-0.240000000000
29.085949692000,-0.232000000000
29.093635977000,-0.230000000000
29.101322262000,-0.227000000000
29.109008547000,-0.218000000000
29.116694832000,-0.215000000000
29.124381117000,-0.220000000000
29.132067402000,-0.218000000000
29.139753687000,-0.218000000000
29.147439972000,-0.218000000000
29.155126257000,-0.210000000000
29.162812542000,-0.203000000000
29.170498827000,-0.205000000000
29.178185112000,-0.203000000000
29.185871397000,-0.198000000000
29.193557682000,-0.191000000000
29.201243967000,-0.193000000000
29.208930252000,-0.203000000000
29.216616537000,-0.203000000000
29.224302822000,-0.188000000000
29.231989107000,-0.171000000000
29.239675392000,-0.149000000000
29.247361677000,-0.139000000000
29.255047962000,-0.134000000000
29.262734247000,-0.117000000000
29.270420532000,-0.117000000000
29.278106817000,-0.154000000000
29.285793102000,-0.171000000000
29.293479387000,-0.159000000000
29.301165728000,-0.154000000000
29.308852431000,-0.159000000000
29.316539134000,-0.154000000000
29.324225837000,-0.146000000000
29.331912540000,-0.142000000000
