time,LSB
0.000000000000,1.702000000000
0.007687121000,0.303000000000
0.015374242000,-0.712000000000
0.023061363000,-0.387000000000
0.030748484000,-0.041000000000
0.038435605000,-0.230000000000
0.046122726000,-0.235000000000
0.053809847000,-0.115000000000
0.061496968000,-0.149000000000
0.069184089000,-0.159000000000
0.076871210000,-0.097000000000
0.084558331000,-0.085000000000
0.092245452000,-0.080000000000
0.099932573000,-0.046000000000
0.107619694000,-0.017000000000
0.115306815000,0.002000000000
0.122993936000,0.029000000000
0.130681057000,0.061000000000
0.138368178000,0.093000000000
0.146055299000,0.124000000000
0.153742420000,0.159000000000
0.161429609000,0.188000000000
0.169116870000,0.213000000000
0.176804131000,0.232000000000
0.184491392000,0.240000000000
0.192178653000,0.235000000000
0.199865914000,0.225000000000
0.207553175000,0.208000000000
0.215240436000,0.188000000000
0.222927697000,0.159000000000
0.230614958000,0.117000000000
0.238302219000,0.053000000000
0.245989480000,-0.017000000000
0.253676741000,-0.093000000000
0.261364002000,-0.166000000000
0.269051263000,-0.225000000000
0.276738524000,-0.264000000000
0.284425785000,-0.284000000000
0.292113046000,-0.291000000000
0.299800307000,-0.286000000000
0.307487568000,-0.279000000000
0.315174829000,-0.267000000000
0.322862090000,-0.252000000000
0.330549351000,-0.237000000000
0.338236612000,-0.230000000000
0.345923873000,-0.220000000000
0.353611134000,-0.213000000000
0.361298395000,-0.208000000000
0.368985656000,-0.205000000000
0.376672917000,-0.203000000000
0.384360178000,-0.203000000000
0.392047439000,-0.200000000000
0.399734700000,-0.198000000000
0.407421961000,-0.198000000000
0.415109222000,-0.198000000000
0.422796483000,-0.198000000000
0.430483744000,-0.195000000000
0.438171005000,-0.195000000000
0.445858266000,-0.193000000000
0.453545527000,-0.191000000000
0.461232788000,-0.188000000000
0.468920049000,-0.186000000000
0.476607310000,-0.181000000000
0.484294571000,-0.178000000000
0.491981832000,-0.176000000000
0.499669093000,-0.171000000000
0.507356354000,-0.171000000000
0.515043615000,-0.176000000000
0.522730876000,-0.173000000000
0.530418137000,-0.161000000000
0.538105398000,-0.142000000000
0.545792659000,-0.124000000000
0.553479920000,-0.115000000000
0.561167181000,-0.105000000000
0.568854442000,-0.102000000000
0.576541703000,-0.124000000000
0.584228964000,-0.154000000000
0.591916225000,-0.159000000000
0.599603486000,-0.146000000000
0.607290747000,-0.142000000000
0.614978008000,-0.139000000000
0.622665269000,-0.132000000000
0.630352530000,-0.129000000000
0.638039791000,-0.129000000000
0.645727052000,-0.139000000000
0.653414313000,-0.176000000000
0.661101574000,-0.259000000000
0.668788835000,-0.271000000000
0.676476096000,0.097000000000
0.684163357000,0.916000000000
0.691850618000,1.758000000000
0.699537879000,1.915000000000
0.707225140000,0.813000000000
0.714912401000,-0.546000000000
0.722599680000,-0.578000000000
0.730286871000,-0.073000000000
0.737974062000,-0.161000000000
0.745661253000,-0.271000000000
0.753348444000,-0.142000000000
0.761035635000,-0.132000000000
0.768722826000,-0.173000000000
0.776410017000,-0.122000000000
0.784097208000,-0.090000000000
0.791784399000,-0.088000000000
0.799471590000,-0.058000000000
0.807158781000,-0.026000000000
0.814845972000,-0.012000000000
0.822533163000,0.014000000000
0.830220354000,0.048000000000
0.837907545000,0.080000000000
0.845594736000,0.110000000000
0.853281927000,0.144000000000
0.860969118000,0.176000000000
0.868656309000,0.203000000000
0.876343500000,0.222000000000
0.884030691000,0.232000000000
0.891717882000,0.235000000000
0.899405073000,0.225000000000
0.907092264000,0.210000000000
0.914779455000,0.191000000000
0.922466646000,0.166000000000
0.930153837000,0.124000000000
0.937841028000,0.068000000000
0.945528219000,-0.002000000000
0.953215410000,-0.075000000000
0.960902601000,-0.149000000000
0.968589792000,-0.213000000000
0.976276983000,-0.257000000000
0.983964174000,-0.279000000000
0.991651365000,-0.289000000000
0.999338556000,-0.286000000000
1.007025747000,-0.279000000000
1.014712938000,-0.269000000000
1.022400129000,-0.257000000000
1.030087320000,-0.244000000000
1.037774511000,-0.232000000000
1.045461702000,-0.222000000000
1.053148893000,-0.215000000000
1.060836084000,-0.208000000000
1.068523275000,-0.203000000000
1.076210466000,-0.200000000000
1.083897657000,-0.198000000000
1.091584848000,-0.195000000000
1.099272039000,-0.195000000000
1.106959230000,-0.193000000000
1.114646421000,-0.193000000000
1.122333612000,-0.193000000000
1.130020803000,-0.193000000000
1.137707994000,-0.191000000000
1.145395185000,-0.191000000000
1.153082376000,-0.188000000000
1.160769567000,-0.186000000000
1.168456758000,-0.183000000000
1.176143949000,-0.181000000000
1.183831140000,-0.176000000000
1.191518331000,-0.171000000000
1.199205522000,-0.171000000000
1.206892713000,-0.176000000000
1.214579904000,-0.173000000000
1.222267095000,-0.161000000000
1.229954286000,-0.142000000000
1.237641477000,-0.127000000000
1.245328668000,-0.117000000000
1.253015859000,-0.107000000000
1.260703050000,-0.097000000000
1.268390241000,-0.115000000000
1.276077432000,-0.146000000000
1.283764664000,-0.159000000000
1.291451855000,-0.144000000000
1.299139046000,-0.137000000000
1.306826237000,-0.134000000000
1.314513428000,-0.132000000000
1.322200619000,-0.127000000000
1.329887810000,-0.122000000000
1.337575001000,-0.129000000000
1.345262192000,-0.161000000000
1.352949383000,-0.237000000000
1.360636574000,-0.286000000000
1.368323765000,-0.019000000000
1.376010956000,0.720000000000
1.383698147000,1.606000000000
1.391385338000,1.989000000000
1.399072529000,1.141000000000
1.406759720000,-0.330000000000
1.414446911000,-0.671000000000
1.422134102000,-0.142000000000
1.429821293000,-0.107000000000
1.437508484000,-0.274000000000
1.445195675000,-0.166000000000
1.452882866000,-0.117000000000
1.460570057000,-0.169000000000
1.468257248000,-0.134000000000
1.475944439000,-0.088000000000
1.483631630000,-0.085000000000
1.491318821000,-0.066000000000
1.499006012000,-0.029000000000
1.506693203000,-0.009000000000
1.514380394000,0.014000000000
1.522067585000,0.051000000000
1.529754776000,0.080000000000
1.537441967000,0.107000000000
1.545129158000,0.142000000000
1.552816349000,0.176000000000
1.560503540000,0.203000000000
1.568190731000,0.227000000000
1.575877922000,0.240000000000
1.583565113000,0.240000000000
1.591252304000,0.232000000000
1.598939495000,0.220000000000
1.606626686000,0.200000000000
1.614313877000,0.176000000000
1.622001068000,0.137000000000
1.629688259000,0.083000000000
1.637375450000,0.014000000000
1.645062641000,-0.061000000000
1.652749832000,-0.137000000000
1.660437023000,-0.203000000000
1.668124214000,-0.249000000000
1.675811405000,-0.276000000000
1.683498596000,-0.289000000000
1.691185787000,-0.291000000000
1.698872978000,-0.284000000000
1.706560169000,-0.271000000000
1.714247360000,-0.259000000000
1.721934551000,-0.249000000000
1.729621742000,-0.237000000000
1.737308933000,-0.225000000000
1.744996124000,-0.215000000000
1.752683315000,-0.208000000000
1.760370506000,-0.203000000000
1.768057697000,-0.200000000000
1.775744888000,-0.198000000000
1.783432079000,-0.198000000000
1.791119270000,-0.195000000000
1.798806461000,-0.195000000000
1.806493652000,-0.195000000000
1.814180843000,-0.193000000000
1.821868034000,-0.191000000000
1.829555225000,-0.193000000000
1.837242416000,-0.193000000000
1.844929648000,-0.191000000000
1.852616909000,-0.188000000000
1.860304170000,-0.186000000000
1.867991431000,-0.181000000000
1.875678692000,-0.178000000000
1.883365953000,-0.173000000000
1.891053214000,-0.173000000000
1.898740475000,-0.176000000000
1.906427736000,-0.178000000000
1.914114997000,-0.171000000000
1.921802258000,-0.151000000000
1.929489519000,-0.134000000000
1.937176780000,-0.122000000000
1.944864041000,-0.112000000000
1.952551302000,-0.105000000000
1.960238563000,-0.115000000000
1.967925824000,-0.149000000000
1.975613085000,-0.164000000000
1.983300346000,-0.154000000000
1.990987607000,-0.144000000000
1.998674868000,-0.144000000000
2.006362129000,-0.139000000000
2.014049390000,-0.137000000000
2.021736651000,-0.132000000000
2.029423912000,-0.134000000000
2.037111173000,-0.159000000000
2.044798434000,-0.222000000000
2.052485695000,-0.296000000000
2.060172956000,-0.134000000000
2.067860217000,0.502000000000
2.075547478000,1.401000000000
2.083234739000,1.981000000000
2.090922000000,1.469000000000
2.098609261000,-0.014000000000
2.106296522000,-0.734000000000
2.113983783000,-0.269000000000
2.121671044000,-0.066000000000
2.129358305000,-0.264000000000
2.137045566000,-0.210000000000
2.144732827000,-0.120000000000
2.152420088000,-0.169000000000
2.160107349000,-0.156000000000
2.167794610000,-0.100000000000
2.175481871000,-0.095000000000
2.183169132000,-0.080000000000
2.190856393000,-0.044000000000
2.198543654000,-0.019000000000
2.206230915000,0.002000000000
2.213918176000,0.034000000000
2.221605437000,0.063000000000
2.229292698000,0.093000000000
2.236979959000,0.127000000000
2.244667220000,0.161000000000
2.252354481000,0.191000000000
2.260041742000,0.215000000000
2.267729003000,0.230000000000
2.275416264000,0.235000000000
2.283103525000,0.227000000000
2.290790786000,0.215000000000
2.298478047000,0.198000000000
2.306165308000,0.176000000000
2.313852569000,0.144000000000
2.321539830000,0.095000000000
2.329227091000,0.029000000000
2.336914352000,-0.046000000000
2.344601613000,-0.122000000000
2.352288874000,-0.193000000000
2.359976135000,-0.247000000000
2.367663396000,-0.279000000000
2.375350657000,-0.293000000000
2.383037918000,-0.293000000000
2.390725179000,-0.286000000000
2.398412440000,-0.276000000000
2.406099715000,-0.269000000000
2.413786836000,-0.259000000000
2.421473957000,-0.244000000000
2.429161078000,-0.235000000000
2.436848199000,-0.222000000000
2.444535320000,-0.215000000000
2.452222441000,-0.208000000000
2.459909562000,-0.205000000000
2.467596683000,-0.203000000000
2.475283804000,-0.200000000000
2.482970925000,-0.198000000000
2.490658046000,-0.198000000000
2.498345167000,-0.198000000000
2.506032288000,-0.195000000000
2.513719409000,-0.195000000000
2.521406530000,-0.195000000000
2.529093651000,-0.195000000000
2.536780772000,-0.193000000000
2.544467893000,-0.195000000000
2.552155014000,-0.191000000000
2.559842135000,-0.181000000000
2.567529256000,-0.178000000000
2.575216377000,-0.181000000000
2.582903498000,-0.171000000000
2.590590619000,-0.161000000000
2.598277740000,-0.164000000000
2.605964861000,-0.171000000000
2.613651982000,-0.169000000000
2.621339103000,-0.156000000000
2.629026224000,-0.139000000000
2.636713345000,-0.122000000000
2.644400466000,-0.107000000000
2.652087587000,-0.095000000000
2.659774708000,-0.095000000000
2.667461829000,-0.117000000000
2.675148950000,-0.144000000000
2.682836071000,-0.151000000000
2.690523192000,-0.137000000000
2.698210313000,-0.127000000000
2.705897434000,-0.132000000000
2.713584555000,-0.132000000000
2.721271676000,-0.124000000000
2.728958797000,-0.117000000000
2.736645918000,-0.127000000000
2.744333039000,-0.161000000000
2.752020160000,-0.237000000000
2.759707281000,-0.276000000000
2.767394402000,0.026000000000
2.775081523000,0.813000000000
2.782768644000,1.680000000000
2.790455765000,1.964000000000
2.798142886000,1.028000000000
2.805830007000,-0.396000000000
2.813517128000,-0.634000000000
2.821204249000,-0.115000000000
2.828891370000,-0.122000000000
2.836578491000,-0.262000000000
2.844265612000,-0.149000000000
2.851952733000,-0.120000000000
2.859639854000,-0.156000000000
2.867326975000,-0.110000000000
2.875014096000,-0.078000000000
2.882701217000,-0.083000000000
2.890388338000,-0.048000000000
2.898075459000,-0.007000000000
2.905762580000,0.009000000000
2.913449701000,0.029000000000
2.921136822000,0.066000000000
2.928823943000,0.097000000000
2.936511064000,0.129000000000
2.944198185000,0.164000000000
2.951885306000,0.198000000000
2.959572427000,0.227000000000
2.967259612000,0.252000000000
2.974946733000,0.264000000000
2.982633854000,0.262000000000
2.990320975000,0.252000000000
2.998008096000,0.237000000000
3.005695217000,0.218000000000
3.013382338000,0.191000000000
3.021069459000,0.156000000000
3.028756580000,0.097000000000
3.036443701000,0.019000000000
3.044130822000,-0.058000000000
3.051817943000,-0.132000000000
3.059505064000,-0.195000000000
3.067192185000,-0.254000000000
3.074879306000,-0.289000000000
3.082566427000,-0.289000000000
3.090253548000,-0.286000000000
3.097940669000,-0.289000000000
3.105627790000,-0.281000000000
3.113314911000,-0.264000000000
3.121002032000,-0.252000000000
3.128689153000,-0.244000000000
3.136376274000,-0.230000000000
3.144063395000,-0.210000000000
3.151750516000,-0.200000000000
3.159437637000,-0.195000000000
3.167124758000,-0.195000000000
3.174811879000,-0.203000000000
3.182499000000,-0.198000000000
3.190186121000,-0.186000000000
3.197873242000,-0.186000000000
3.205560363000,-0.188000000000
3.213247484000,-0.181000000000
3.220934605000,-0.181000000000
3.228621726000,-0.191000000000
3.236308847000,-0.186000000000
3.243995968000,-0.171000000000
3.251683089000,-0.169000000000
3.259370210000,-0.176000000000
3.267057331000,-0.178000000000
3.274744452000,-0.178000000000
3.282431573000,-0.178000000000
3.290118694000,-0.178000000000
3.297805815000,-0.171000000000
3.305492936000,-0.151000000000
3.313180057000,-0.132000000000
3.320867178000,-0.122000000000
3.328554299000,-0.112000000000
3.336241420000,-0.102000000000
3.343928541000,-0.115000000000
3.351615662000,-0.149000000000
3.359302783000,-0.164000000000
3.366989904000,-0.149000000000
3.374677025000,-0.142000000000
3.382364146000,-0.139000000000
3.390051267000,-0.137000000000
3.397738388000,-0.132000000000
3.405425509000,-0.129000000000
3.413112630000,-0.132000000000
3.420799751000,-0.151000000000
3.428486872000,-0.205000000000
3.436173993000,-0.281000000000
3.443861114000,-0.132000000000
3.451548235000,0.514000000000
3.459235356000,1.401000000000
3.466922477000,1.920000000000
3.474609598000,1.388000000000
3.482296719000,-0.044000000000
3.489983840000,-0.727000000000
3.497670961000,-0.274000000000
3.505358082000,-0.080000000000
3.513045203000,-0.257000000000
3.520732324000,-0.181000000000
3.528419513000,-0.100000000000
3.536106634000,-0.156000000000
3.543793755000,-0.137000000000
3.551480876000,-0.080000000000
3.559167997000,-0.078000000000
3.566855118000,-0.066000000000
3.574542239000,-0.029000000000
3.582229360000,-0.007000000000
3.589916481000,0.014000000000
3.597603602000,0.048000000000
3.605290723000,0.080000000000
3.612977844000,0.110000000000
3.620664965000,0.146000000000
3.628352086000,0.181000000000
3.636039207000,0.208000000000
3.643726328000,0.230000000000
3.651413449000,0.244000000000
3.659100570000,0.247000000000
3.666787691000,0.235000000000
3.674474812000,0.220000000000
3.682161933000,0.200000000000
3.689849054000,0.173000000000
3.697536175000,0.137000000000
3.705223296000,0.080000000000
3.712910417000,0.007000000000
3.720597538000,-0.068000000000
3.728284659000,-0.146000000000
3.735971780000,-0.215000000000
3.743658901000,-0.262000000000
3.751346022000,-0.291000000000
3.759033143000,-0.303000000000
3.766720264000,-0.306000000000
3.774407385000,-0.301000000000
3.782094506000,-0.291000000000
3.789781627000,-0.281000000000
3.797468748000,-0.267000000000
3.805155869000,-0.252000000000
3.812842990000,-0.240000000000
3.820530111000,-0.230000000000
3.828217232000,-0.220000000000
3.835904353000,-0.213000000000
3.843591474000,-0.208000000000
3.851278595000,-0.203000000000
3.858965716000,-0.200000000000
3.866652837000,-0.198000000000
3.874339958000,-0.195000000000
3.882027079000,-0.195000000000
3.889714200000,-0.195000000000
3.897401321000,-0.195000000000
3.905088442000,-0.198000000000
3.912775563000,-0.198000000000
3.920462684000,-0.193000000000
3.928149805000,-0.193000000000
3.935836926000,-0.193000000000
3.943524047000,-0.191000000000
3.951211168000,-0.186000000000
3.958898289000,-0.181000000000
3.966585410000,-0.181000000000
3.974272531000,-0.186000000000
3.981959652000,-0.186000000000
3.989646773000,-0.176000000000
3.997333894000,-0.156000000000
4.005021015000,-0.142000000000
4.012708136000,-0.132000000000
4.020395257000,-0.120000000000
4.028082378000,-0.110000000000
4.035769499000,-0.122000000000
4.043456620000,-0.156000000000
4.051143741000,-0.166000000000
4.058830862000,-0.154000000000
4.066517983000,-0.149000000000
4.074205104000,-0.149000000000
4.081892225000,-0.142000000000
4.089579410000,-0.137000000000
4.097266531000,-0.134000000000
4.104953652000,-0.137000000000
4.112640773000,-0.156000000000
4.120327894000,-0.222000000000
4.128015015000,-0.296000000000
4.135702136000,-0.132000000000
4.143389257000,0.511000000000
4.151076378000,1.423000000000
4.158763499000,2.025000000000
4.166450620000,1.535000000000
4.174137741000,0.024000000000
4.181824862000,-0.747000000000
4.189511983000,-0.276000000000
4.197199104000,-0.051000000000
4.204886225000,-0.264000000000
4.212573346000,-0.222000000000
4.220260467000,-0.122000000000
4.227947588000,-0.171000000000
4.235634709000,-0.161000000000
4.243321830000,-0.100000000000
4.251008951000,-0.093000000000
4.258696072000,-0.080000000000
4.266383193000,-0.044000000000
4.274070314000,-0.019000000000
4.281757435000,0.000000000000
4.289444556000,0.034000000000
4.297131677000,0.068000000000
4.304818798000,0.102000000000
4.312505919000,0.137000000000
4.320193040000,0.176000000000
4.327880161000,0.210000000000
4.335567282000,0.235000000000
4.343254403000,0.249000000000
4.350941524000,0.254000000000
4.358628645000,0.252000000000
4.366315766000,0.240000000000
4.374002887000,0.222000000000
4.381690008000,0.195000000000
4.389377129000,0.159000000000
4.397064250000,0.102000000000
4.404751371000,0.031000000000
4.412438492000,-0.048000000000
4.420125613000,-0.129000000000
4.427812734000,-0.200000000000
4.435499855000,-0.257000000000
4.443186976000,-0.286000000000
4.450874097000,-0.298000000000
4.458561218000,-0.301000000000
4.466248339000,-0.296000000000
4.473935460000,-0.286000000000
4.481622581000,-0.274000000000
4.489309702000,-0.262000000000
4.496996823000,-0.247000000000
4.504683944000,-0.235000000000
4.512371065000,-0.225000000000
4.520058186000,-0.215000000000
4.527745307000,-0.205000000000
4.535432428000,-0.200000000000
4.543119549000,-0.195000000000
4.550806670000,-0.195000000000
4.558493791000,-0.195000000000
4.566180912000,-0.193000000000
4.573868033000,-0.191000000000
4.581555154000,-0.188000000000
4.589242275000,-0.188000000000
4.596929396000,-0.191000000000
4.604616517000,-0.188000000000
4.612303638000,-0.186000000000
4.619990759000,-0.186000000000
4.627677880000,-0.183000000000
4.635365001000,-0.181000000000
4.643052122000,-0.176000000000
4.650739307000,-0.173000000000
4.658426428000,-0.169000000000
4.666113549000,-0.164000000000
4.673800670000,-0.161000000000
4.681487791000,-0.164000000000
4.689174912000,-0.164000000000
4.696862033000,-0.161000000000
4.704549154000,-0.144000000000
4.712236275000,-0.122000000000
4.719923396000,-0.105000000000
4.727610517000,-0.097000000000
4.735297638000,-0.095000000000
4.742984759000,-0.097000000000
4.750671880000,-0.122000000000
4.758359001000,-0.146000000000
4.766046122000,-0.146000000000
4.773733243000,-0.134000000000
4.781420364000,-0.132000000000
4.789107485000,-0.129000000000
4.796794606000,-0.122000000000
4.804481727000,-0.120000000000
4.812168848000,-0.120000000000
4.819855969000,-0.127000000000
4.827543090000,-0.159000000000
4.835230211000,-0.237000000000
4.842917332000,-0.274000000000
4.850604453000,0.017000000000
4.858291574000,0.778000000000
4.865978695000,1.670000000000
4.873665816000,2.064000000000
4.881352937000,1.217000000000
4.889040058000,-0.303000000000
4.896727179000,-0.683000000000
4.904414300000,-0.139000000000
4.912101421000,-0.097000000000
4.919788542000,-0.279000000000
4.927475663000,-0.176000000000
4.935162784000,-0.122000000000
4.942849905000,-0.173000000000
4.950537026000,-0.137000000000
4.958224147000,-0.088000000000
4.965911268000,-0.088000000000
4.973598389000,-0.068000000000
4.981285510000,-0.031000000000
4.988972631000,-0.009000000000
4.996659752000,0.014000000000
5.004346873000,0.048000000000
5.012033994000,0.083000000000
5.019721115000,0.115000000000
5.027408236000,0.154000000000
5.035095357000,0.188000000000
5.042782478000,0.220000000000
5.050469599000,0.247000000000
5.058156720000,0.262000000000
5.065843841000,0.264000000000
5.073530962000,0.257000000000
5.081218083000,0.244000000000
5.088905204000,0.230000000000
5.096592325000,0.200000000000
5.104279446000,0.156000000000
5.111966567000,0.095000000000
5.119653688000,0.019000000000
5.127340809000,-0.061000000000
5.135027930000,-0.144000000000
5.142715051000,-0.215000000000
5.150402172000,-0.264000000000
5.158089293000,-0.291000000000
5.165776414000,-0.303000000000
5.173463535000,-0.306000000000
5.181150656000,-0.298000000000
5.188837777000,-0.289000000000
5.196524898000,-0.276000000000
5.204212019000,-0.264000000000
5.211899204000,-0.252000000000
5.219586325000,-0.240000000000
5.227273446000,-0.230000000000
5.234960567000,-0.220000000000
5.242647688000,-0.210000000000
5.250334809000,-0.205000000000
5.258021930000,-0.200000000000
5.265709051000,-0.195000000000
5.273396172000,-0.195000000000
5.281083293000,-0.193000000000
5.288770414000,-0.193000000000
5.296457535000,-0.191000000000
5.304144656000,-0.193000000000
5.311831777000,-0.191000000000
5.319518898000,-0.188000000000
5.327206019000,-0.188000000000
5.334893140000,-0.186000000000
5.342580261000,-0.186000000000
5.350267382000,-0.186000000000
5.357954503000,-0.181000000000
5.365641624000,-0.173000000000
5.373328745000,-0.171000000000
5.381015866000,-0.166000000000
5.388702987000,-0.164000000000
5.396390108000,-0.156000000000
5.404077229000,-0.156000000000
5.411764350000,-0.159000000000
5.419451471000,-0.156000000000
5.427138592000,-0.144000000000
5.434825713000,-0.120000000000
5.442512834000,-0.100000000000
5.450199955000,-0.093000000000
5.457887076000,-0.093000000000
5.465574197000,-0.090000000000
5.473261318000,-0.110000000000
5.480948439000,-0.146000000000
5.488635560000,-0.154000000000
5.496322681000,-0.142000000000
5.504009802000,-0.137000000000
5.511696923000,-0.137000000000
5.519384044000,-0.129000000000
5.527071165000,-0.124000000000
5.534758286000,-0.122000000000
5.542445407000,-0.122000000000
5.550132528000,-0.132000000000
5.557819649000,-0.169000000000
5.565506770000,-0.252000000000
5.573193891000,-0.281000000000
5.580881012000,0.044000000000
5.588568133000,0.832000000000
5.596255254000,1.719000000000
5.603942375000,2.052000000000
5.611629496000,1.126000000000
5.619316617000,-0.377000000000
5.627003738000,-0.666000000000
5.634690859000,-0.122000000000
5.642377980000,-0.115000000000
5.650065101000,-0.284000000000
5.657752222000,-0.171000000000
5.665439343000,-0.127000000000
5.673126464000,-0.178000000000
5.680813585000,-0.139000000000
5.688500706000,-0.093000000000
5.696187827000,-0.090000000000
5.703874948000,-0.071000000000
5.711562069000,-0.034000000000
5.719249190000,-0.012000000000
5.726936311000,0.012000000000
5.734623432000,0.046000000000
5.742310553000,0.080000000000
5.749997674000,0.112000000000
5.757684795000,0.149000000000
5.765371916000,0.188000000000
5.773059101000,0.220000000000
5.780746222000,0.244000000000
5.788433343000,0.259000000000
5.796120464000,0.264000000000
5.803807585000,0.257000000000
5.811494706000,0.242000000000
5.819181827000,0.222000000000
5.826868948000,0.195000000000
5.834556069000,0.156000000000
5.842243190000,0.095000000000
5.849930311000,0.019000000000
5.857617432000,-0.061000000000
5.865304553000,-0.144000000000
5.872991674000,-0.215000000000
5.880678795000,-0.264000000000
5.888365916000,-0.291000000000
5.896053037000,-0.303000000000
5.903740158000,-0.303000000000
5.911427279000,-0.298000000000
5.919114400000,-0.291000000000
5.926801521000,-0.279000000000
5.934488642000,-0.264000000000
5.942175763000,-0.252000000000
5.949862884000,-0.240000000000
5.957550005000,-0.230000000000
5.965237126000,-0.222000000000
5.972924247000,-0.213000000000
5.980611368000,-0.205000000000
5.988298489000,-0.200000000000
5.995985610000,-0.195000000000
6.003672731000,-0.193000000000
6.011359852000,-0.195000000000
6.019046973000,-0.195000000000
6.026734094000,-0.191000000000
6.034421215000,-0.193000000000
6.042108336000,-0.193000000000
6.049795457000,-0.188000000000
6.057482578000,-0.188000000000
6.065169699000,-0.188000000000
6.072856820000,-0.186000000000
6.080543941000,-0.183000000000
6.088231062000,-0.181000000000
6.095918183000,-0.178000000000
6.103605304000,-0.173000000000
6.111292425000,-0.169000000000
6.118979546000,-0.166000000000
6.126666667000,-0.161000000000
6.134353788000,-0.159000000000
6.142040909000,-0.159000000000
6.149728030000,-0.159000000000
6.157415151000,-0.154000000000
6.165102272000,-0.134000000000
6.172789393000,-0.107000000000
6.180476514000,-0.095000000000
6.188163635000,-0.095000000000
6.195850756000,-0.093000000000
6.203537877000,-0.097000000000
6.211224998000,-0.132000000000
6.218912119000,-0.156000000000
6.226599240000,-0.149000000000
6.234286361000,-0.137000000000
6.241973482000,-0.137000000000
6.249660603000,-0.134000000000
6.257347724000,-0.129000000000
6.265034845000,-0.129000000000
6.272721966000,-0.124000000000
6.280409087000,-0.124000000000
6.288096208000,-0.144000000000
6.295783329000,-0.195000000000
6.303470450000,-0.279000000000
6.311157571000,-0.210000000000
6.318844692000,0.296000000000
6.326531813000,1.178000000000
6.334218998000,1.947000000000
6.341906189000,1.864000000000
6.349593380000,0.526000000000
6.357280571000,-0.673000000000
6.364967762000,-0.467000000000
6.372654953000,-0.041000000000
6.380342144000,-0.210000000000
6.388029335000,-0.264000000000
6.395716526000,-0.132000000000
6.403403717000,-0.154000000000
6.411090908000,-0.176000000000
6.418778099000,-0.117000000000
6.426465290000,-0.093000000000
6.434152481000,-0.093000000000
6.441839672000,-0.058000000000
6.449526863000,-0.026000000000
6.457214054000,-0.009000000000
6.464901245000,0.022000000000
6.472588436000,0.056000000000
6.480275627000,0.090000000000
6.487962818000,0.127000000000
6.495650009000,0.164000000000
6.503337200000,0.198000000000
6.511024391000,0.230000000000
6.518711582000,0.254000000000
6.526398773000,0.264000000000
6.534085964000,0.262000000000
6.541773155000,0.254000000000
6.549460346000,0.237000000000
6.557147537000,0.218000000000
6.564834728000,0.186000000000
6.572521919000,0.137000000000
6.580209110000,0.071000000000
6.587896301000,-0.004000000000
6.595583492000,-0.088000000000
6.603270683000,-0.169000000000
6.610957874000,-0.232000000000
6.618645065000,-0.276000000000
6.626332256000,-0.296000000000
6.634019447000,-0.303000000000
6.641706638000,-0.301000000000
6.649393829000,-0.293000000000
6.657081020000,-0.284000000000
6.664768211000,-0.271000000000
6.672455402000,-0.257000000000
6.680142593000,-0.244000000000
6.687829784000,-0.235000000000
6.695516975000,-0.227000000000
6.703204166000,-0.215000000000
6.710891357000,-0.203000000000
6.718578548000,-0.198000000000
6.726265739000,-0.195000000000
6.733952930000,-0.191000000000
6.741640121000,-0.188000000000
6.749327312000,-0.191000000000
6.757014503000,-0.191000000000
6.764701694000,-0.188000000000
6.772388885000,-0.186000000000
6.780076076000,-0.183000000000
6.787763267000,-0.183000000000
6.795450458000,-0.181000000000
6.803137649000,-0.178000000000
6.810824840000,-0.173000000000
6.818512031000,-0.173000000000
6.826199222000,-0.171000000000
6.833886413000,-0.166000000000
6.841573604000,-0.164000000000
6.849260795000,-0.161000000000
6.856947986000,-0.156000000000
6.864635177000,-0.151000000000
6.872322368000,-0.149000000000
6.880009559000,-0.149000000000
6.887696750000,-0.146000000000
6.895383986000,-0.129000000000
6.903071177000,-0.102000000000
6.910758368000,-0.085000000000
6.918445559000,-0.083000000000
6.926132750000,-0.080000000000
6.933819941000,-0.083000000000
6.941507132000,-0.110000000000
6.949194323000,-0.142000000000
6.956881514000,-0.139000000000
6.964568705000,-0.127000000000
6.972255896000,-0.127000000000
6.979943087000,-0.127000000000
6.987630278000,-0.122000000000
6.995317469000,-0.117000000000
7.003004660000,-0.115000000000
7.010691851000,-0.112000000000
7.018379042000,-0.127000000000
7.026066233000,-0.171000000000
7.033753424000,-0.259000000000
7.041440615000,-0.235000000000
7.049127806000,0.208000000000
7.056814997000,1.068000000000
7.064502188000,1.886000000000
7.072189379000,1.949000000000
7.079876570000,0.737000000000
7.087563761000,-0.585000000000
7.095250952000,-0.521000000000
7.102938143000,-0.041000000000
7.110625334000,-0.171000000000
7.118312525000,-0.259000000000
7.125999716000,-0.120000000000
7.133686907000,-0.122000000000
7.141374098000,-0.159000000000
7.149061289000,-0.105000000000
7.156748480000,-0.073000000000
7.164435671000,-0.071000000000
7.172122862000,-0.041000000000
7.179810053000,-0.009000000000
7.187497244000,0.012000000000
7.195184435000,0.044000000000
7.202871626000,0.078000000000
7.210558817000,0.105000000000
7.218246008000,0.139000000000
7.225933199000,0.181000000000
7.233620390000,0.222000000000
7.241307581000,0.257000000000
7.248994772000,0.274000000000
7.256681963000,0.289000000000
7.264369154000,0.293000000000
7.272056345000,0.281000000000
7.279743536000,0.264000000000
7.287430727000,0.249000000000
7.295117918000,0.218000000000
7.302805109000,0.166000000000
7.310492300000,0.100000000000
7.318179491000,0.022000000000
7.325866682000,-0.063000000000
7.333553873000,-0.146000000000
7.341241064000,-0.218000000000
7.348928255000,-0.262000000000
7.356615446000,-0.284000000000
7.364302637000,-0.291000000000
7.371989828000,-0.293000000000
7.379677019000,-0.298000000000
7.387364210000,-0.289000000000
7.395051401000,-0.271000000000
7.402738592000,-0.252000000000
7.410425783000,-0.235000000000
7.418112974000,-0.222000000000
7.425800165000,-0.218000000000
7.433487356000,-0.213000000000
7.441174547000,-0.205000000000
7.448861738000,-0.200000000000
7.456548970000,-0.193000000000
7.464235952000,-0.186000000000
7.471922934000,-0.183000000000
7.479609916000,-0.183000000000
7.487296898000,-0.176000000000
7.494983880000,-0.173000000000
7.502670862000,-0.181000000000
7.510357844000,-0.186000000000
7.518044826000,-0.186000000000
7.525731808000,-0.186000000000
7.533418790000,-0.183000000000
7.541105772000,-0.176000000000
7.548792754000,-0.169000000000
7.556479736000,-0.171000000000
7.564166718000,-0.171000000000
7.571853700000,-0.166000000000
7.579540682000,-0.159000000000
7.587227664000,-0.154000000000
7.594914646000,-0.151000000000
7.602601628000,-0.154000000000
7.610288610000,-0.154000000000
7.617975592000,-0.146000000000
7.625662574000,-0.134000000000
7.633349556000,-0.112000000000
7.641036538000,-0.093000000000
7.648723520000,-0.088000000000
7.656410502000,-0.085000000000
7.664097484000,-0.085000000000
7.671784466000,-0.117000000000
7.679471448000,-0.149000000000
7.687158430000,-0.146000000000
7.694845412000,-0.132000000000
7.702532394000,-0.132000000000
7.710219376000,-0.129000000000
7.717906358000,-0.122000000000
7.725593340000,-0.122000000000
7.733280322000,-0.122000000000
7.740967304000,-0.122000000000
7.748654286000,-0.134000000000
7.756341268000,-0.176000000000
7.764028250000,-0.259000000000
7.771715232000,-0.215000000000
7.779402214000,0.274000000000
7.787089196000,1.146000000000
7.794776178000,1.873000000000
7.802463160000,1.771000000000
7.810150142000,0.507000000000
7.817837124000,-0.646000000000
7.825524106000,-0.467000000000
7.833211088000,-0.053000000000
7.840898070000,-0.195000000000
7.848585052000,-0.227000000000
7.856272034000,-0.102000000000
7.863959016000,-0.127000000000
7.871645998000,-0.149000000000
7.879332980000,-0.090000000000
7.887019962000,-0.068000000000
7.894706944000,-0.063000000000
7.902393926000,-0.031000000000
7.910080908000,-0.004000000000
7.917767890000,0.017000000000
7.925454872000,0.051000000000
7.933141854000,0.083000000000
7.940828836000,0.115000000000
7.948515818000,0.151000000000
7.956202800000,0.188000000000
7.963889782000,0.222000000000
7.971576764000,0.254000000000
7.979263746000,0.274000000000
7.986950728000,0.284000000000
7.994637710000,0.281000000000
8.002324692000,0.269000000000
8.010011674000,0.249000000000
8.017698693000,0.225000000000
8.025385814000,0.195000000000
8.033072935000,0.146000000000
8.040760056000,0.078000000000
8.048447177000,-0.002000000000
8.056134298000,-0.088000000000
8.063821419000,-0.171000000000
8.071508540000,-0.237000000000
8.079195661000,-0.279000000000
8.086882782000,-0.301000000000
8.094569903000,-0.311000000000
8.102257024000,-0.311000000000
8.109944145000,-0.306000000000
8.117631266000,-0.293000000000
8.125318387000,-0.281000000000
8.133005508000,-0.269000000000
8.140692629000,-0.257000000000
8.148379750000,-0.242000000000
8.156066871000,-0.227000000000
8.163753992000,-0.222000000000
8.171441113000,-0.218000000000
8.179128234000,-0.208000000000
8.186815355000,-0.200000000000
8.194502476000,-0.200000000000
8.202189597000,-0.198000000000
8.209876718000,-0.195000000000
8.217563839000,-0.195000000000
8.225250960000,-0.193000000000
8.232938081000,-0.191000000000
8.240625202000,-0.191000000000
8.248312323000,-0.193000000000
8.255999444000,-0.191000000000
8.263686565000,-0.188000000000
8.271373686000,-0.188000000000
8.279060807000,-0.186000000000
8.286747928000,-0.186000000000
8.294435049000,-0.181000000000
8.302122170000,-0.176000000000
8.309809291000,-0.171000000000
8.317496412000,-0.169000000000
8.325183533000,-0.164000000000
8.332870654000,-0.161000000000
8.340557775000,-0.161000000000
8.348244896000,-0.161000000000
8.355932017000,-0.154000000000
8.363619138000,-0.129000000000
8.371306259000,-0.107000000000
8.378993380000,-0.100000000000
8.386680501000,-0.097000000000
8.394367622000,-0.095000000000
8.402054743000,-0.105000000000
8.409741864000,-0.139000000000
8.417428985000,-0.159000000000
8.425116106000,-0.149000000000
8.432803227000,-0.142000000000
8.440490348000,-0.139000000000
8.448177469000,-0.137000000000
8.455864590000,-0.134000000000
8.463551711000,-0.129000000000
8.471238832000,-0.124000000000
8.478925953000,-0.132000000000
8.486613074000,-0.159000000000
8.494300195000,-0.225000000000
8.501987316000,-0.286000000000
8.509674437000,-0.083000000000
8.517361558000,0.595000000000
8.525048679000,1.504000000000
8.532735800000,2.055000000000
8.540422921000,1.484000000000
8.548110042000,-0.036000000000
8.555797163000,-0.734000000000
8.563484284000,-0.252000000000
8.571171405000,-0.063000000000
8.578858590000,-0.269000000000
8.586545711000,-0.213000000000
8.594232832000,-0.122000000000
8.601919953000,-0.171000000000
8.609607074000,-0.159000000000
8.617294195000,-0.105000000000
8.624981316000,-0.097000000000
8.632668437000,-0.083000000000
8.640355558000,-0.046000000000
8.648042679000,-0.022000000000
8.655729800000,0.000000000000
8.663416921000,0.031000000000
8.671104042000,0.063000000000
8.678791163000,0.097000000000
8.686478284000,0.134000000000
8.694165405000,0.171000000000
8.701852526000,0.208000000000
8.709539647000,0.237000000000
8.717226768000,0.259000000000
8.724913889000,0.267000000000
8.732601010000,0.264000000000
8.740288131000,0.254000000000
8.747975252000,0.237000000000
8.755662373000,0.213000000000
8.763349494000,0.176000000000
8.771036615000,0.120000000000
8.778723736000,0.046000000000
8.786410857000,-0.034000000000
8.794097978000,-0.117000000000
8.801785099000,-0.195000000000
8.809472220000,-0.254000000000
8.817159341000,-0.289000000000
8.824846462000,-0.306000000000
8.832533583000,-0.311000000000
8.840220704000,-0.306000000000
8.847907825000,-0.301000000000
8.855594946000,-0.291000000000
8.863282067000,-0.274000000000
8.870969188000,-0.262000000000
8.878656309000,-0.249000000000
8.886343430000,-0.237000000000
8.894030551000,-0.227000000000
8.901717672000,-0.215000000000
8.909404793000,-0.208000000000
8.917091914000,-0.203000000000
8.924779035000,-0.200000000000
8.932466156000,-0.198000000000
8.940153277000,-0.198000000000
8.947840398000,-0.195000000000
8.955527519000,-0.195000000000
8.963214640000,-0.195000000000
8.970901761000,-0.195000000000
8.978588882000,-0.193000000000
8.986276003000,-0.191000000000
8.993963124000,-0.191000000000
9.001650245000,-0.188000000000
9.009337366000,-0.186000000000
9.017024487000,-0.183000000000
9.024711608000,-0.181000000000
9.032398729000,-0.178000000000
9.040085850000,-0.173000000000
9.047772971000,-0.169000000000
9.055460092000,-0.164000000000
9.063147213000,-0.161000000000
9.070834334000,-0.159000000000
9.078521455000,-0.161000000000
9.086208576000,-0.159000000000
9.093895697000,-0.146000000000
9.101582818000,-0.120000000000
9.109269939000,-0.097000000000
9.116957060000,-0.095000000000
9.124644181000,-0.095000000000
9.132331302000,-0.093000000000
9.140018487000,-0.110000000000
9.147705608000,-0.144000000000
9.155392729000,-0.154000000000
9.163079850000,-0.142000000000
9.170766971000,-0.137000000000
9.178454092000,-0.137000000000
9.186141213000,-0.132000000000
9.193828334000,-0.129000000000
9.201515455000,-0.127000000000
9.209202576000,-0.122000000000
9.216889697000,-0.132000000000
9.224576818000,-0.166000000000
9.232263939000,-0.240000000000
9.239951060000,-0.269000000000
9.247638181000,0.029000000000
9.255325302000,0.788000000000
9.263012423000,1.680000000000
9.270699544000,2.069000000000
9.278386665000,1.227000000000
9.286073786000,-0.296000000000
9.293760907000,-0.695000000000
9.301448028000,-0.154000000000
9.309135149000,-0.105000000000
9.316822270000,-0.286000000000
9.324509391000,-0.186000000000
9.332196512000,-0.129000000000
9.339883633000,-0.181000000000
9.347570754000,-0.149000000000
9.355257875000,-0.100000000000
9.362944996000,-0.097000000000
9.370632117000,-0.075000000000
9.378319238000,-0.036000000000
9.386006359000,-0.017000000000
9.393693480000,0.004000000000
9.401380601000,0.041000000000
9.409067722000,0.075000000000
9.416754843000,0.107000000000
9.424441964000,0.144000000000
9.432129085000,0.183000000000
9.439816206000,0.218000000000
9.447503327000,0.249000000000
9.455190448000,0.267000000000
9.462877569000,0.274000000000
9.470564690000,0.269000000000
9.478251811000,0.259000000000
9.485938932000,0.242000000000
9.493626053000,0.218000000000
9.501313174000,0.176000000000
9.509000295000,0.115000000000
9.516687416000,0.039000000000
9.524374537000,-0.044000000000
9.532061658000,-0.129000000000
9.539748779000,-0.205000000000
9.547435900000,-0.262000000000
9.555123021000,-0.293000000000
9.562810142000,-0.306000000000
9.570497263000,-0.311000000000
9.578184384000,-0.306000000000
9.585871505000,-0.298000000000
9.593558626000,-0.284000000000
9.601245747000,-0.271000000000
9.608932868000,-0.259000000000
9.616619989000,-0.244000000000
9.624307110000,-0.235000000000
9.631994231000,-0.227000000000
9.639681352000,-0.218000000000
9.647368473000,-0.208000000000
9.655055594000,-0.203000000000
9.662742715000,-0.200000000000
9.670429836000,-0.198000000000
9.678116957000,-0.195000000000
9.685804078000,-0.195000000000
9.693491199000,-0.193000000000
9.701178384000,-0.193000000000
9.708865505000,-0.193000000000
9.716552626000,-0.191000000000
9.724239747000,-0.188000000000
9.731926868000,-0.188000000000
9.739613989000,-0.186000000000
9.747301110000,-0.186000000000
9.754988231000,-0.181000000000
9.762675352000,-0.178000000000
9.770362473000,-0.176000000000
9.778049594000,-0.171000000000
9.785736715000,-0.166000000000
9.793423836000,-0.161000000000
9.801110957000,-0.156000000000
9.808798078000,-0.154000000000
9.816485199000,-0.154000000000
9.824172320000,-0.156000000000
9.831859441000,-0.149000000000
9.839546562000,-0.127000000000
9.847233683000,-0.105000000000
9.854920804000,-0.093000000000
9.862607925000,-0.090000000000
9.870295046000,-0.088000000000
9.877982167000,-0.093000000000
9.885669288000,-0.124000000000
9.893356409000,-0.151000000000
9.901043530000,-0.144000000000
9.908730651000,-0.134000000000
9.916417772000,-0.134000000000
9.924104893000,-0.132000000000
9.931792014000,-0.124000000000
9.939479135000,-0.122000000000
9.947166256000,-0.120000000000
9.954853377000,-0.122000000000
9.962540498000,-0.139000000000
9.970227619000,-0.193000000000
9.977914740000,-0.271000000000
9.985601861000,-0.188000000000
9.993288982000,0.340000000000
10.000976103000,1.219000000000
10.008663224000,1.969000000000
10.016350345000,1.842000000000
10.024037466000,0.477000000000
10.031724587000,-0.683000000000
10.039411708000,-0.443000000000
10.047098829000,-0.039000000000
10.054785950000,-0.218000000000
10.062473071000,-0.259000000000
10.070160192000,-0.129000000000
10.077847313000,-0.154000000000
10.085534434000,-0.176000000000
10.093221555000,-0.115000000000
10.100908676000,-0.095000000000
10.108595797000,-0.093000000000
10.116282918000,-0.058000000000
10.123970039000,-0.029000000000
10.131657160000,-0.009000000000
10.139344281000,0.022000000000
10.147031402000,0.056000000000
10.154718523000,0.088000000000
10.162405644000,0.124000000000
10.170092765000,0.164000000000
10.177779886000,0.200000000000
10.185467007000,0.232000000000
10.193154128000,0.259000000000
10.200841249000,0.274000000000
10.208528370000,0.276000000000
10.216215491000,0.269000000000
10.223902612000,0.254000000000
10.231589733000,0.235000000000
10.239276854000,0.203000000000
10.246963975000,0.154000000000
10.254651096000,0.088000000000
10.262338285000,0.009000000000
10.270025406000,-0.075000000000
10.277712527000,-0.159000000000
10.285399648000,-0.227000000000
10.293086769000,-0.274000000000
10.300773890000,-0.298000000000
10.308461011000,-0.306000000000
10.316148132000,-0.306000000000
10.323835253000,-0.301000000000
10.331522374000,-0.289000000000
10.339209495000,-0.274000000000
10.346896616000,-0.264000000000
10.354583737000,-0.252000000000
10.362270858000,-0.240000000000
10.369957979000,-0.227000000000
10.377645100000,-0.218000000000
10.385332221000,-0.210000000000
10.393019342000,-0.205000000000
10.400706463000,-0.200000000000
10.408393584000,-0.195000000000
10.416080705000,-0.195000000000
10.423767826000,-0.195000000000
10.431454947000,-0.191000000000
10.439142068000,-0.188000000000
10.446829189000,-0.188000000000
10.454516310000,-0.188000000000
10.462203431000,-0.186000000000
10.469890552000,-0.183000000000
10.477577673000,-0.181000000000
10.485264794000,-0.181000000000
10.492951915000,-0.183000000000
10.500639036000,-0.181000000000
10.508326157000,-0.173000000000
10.516013278000,-0.171000000000
10.523700399000,-0.169000000000
10.531387520000,-0.164000000000
10.539074641000,-0.156000000000
10.546761762000,-0.149000000000
10.554448883000,-0.151000000000
10.562136004000,-0.156000000000
10.569823125000,-0.151000000000
10.577510246000,-0.134000000000
10.585197367000,-0.112000000000
10.592884488000,-0.093000000000
10.600571609000,-0.088000000000
10.608258730000,-0.085000000000
10.615945851000,-0.088000000000
10.623632972000,-0.115000000000
10.631320093000,-0.144000000000
10.639007214000,-0.144000000000
10.646694335000,-0.132000000000
10.654381456000,-0.134000000000
10.662068577000,-0.132000000000
10.669755698000,-0.124000000000
10.677442819000,-0.120000000000
10.685129940000,-0.117000000000
10.692817061000,-0.122000000000
10.700504182000,-0.137000000000
10.708191303000,-0.166000000000
10.715878424000,-0.237000000000
10.723565545000,-0.254000000000
10.731252666000,0.090000000000
10.738939787000,0.894000000000
10.746626908000,1.761000000000
10.754314029000,2.025000000000
10.762001150000,1.038000000000
10.769688271000,-0.421000000000
10.777375392000,-0.631000000000
10.785062513000,-0.102000000000
10.792749634000,-0.134000000000
10.800436755000,-0.276000000000
10.808123876000,-0.149000000000
10.815810997000,-0.120000000000
10.823498182000,-0.166000000000
10.831185303000,-0.120000000000
10.838872424000,-0.085000000000
10.846559545000,-0.088000000000
10.854246666000,-0.061000000000
10.861933787000,-0.019000000000
10.869620908000,0.004000000000
10.877308029000,0.026000000000
10.884995150000,0.056000000000
10.892682271000,0.090000000000
10.900369392000,0.127000000000
10.908056513000,0.166000000000
10.915743634000,0.208000000000
10.923430755000,0.247000000000
10.931117876000,0.274000000000
10.938804997000,0.291000000000
10.946492118000,0.296000000000
10.954179239000,0.291000000000
10.961866360000,0.281000000000
10.969553481000,0.267000000000
10.977240602000,0.232000000000
10.984927723000,0.183000000000
10.992614844000,0.124000000000
11.000301965000,0.046000000000
11.007989086000,-0.041000000000
11.015676207000,-0.127000000000
11.023363328000,-0.203000000000
11.031050449000,-0.257000000000
11.038737570000,-0.284000000000
11.046424691000,-0.298000000000
11.054111812000,-0.306000000000
11.061798933000,-0.293000000000
11.069486054000,-0.284000000000
11.077173175000,-0.286000000000
11.084860296000,-0.276000000000
11.092547417000,-0.257000000000
11.100234538000,-0.242000000000
11.107921659000,-0.227000000000
11.115608780000,-0.213000000000
11.123295901000,-0.205000000000
11.130983022000,-0.200000000000
11.138670143000,-0.195000000000
11.146357264000,-0.191000000000
11.154044385000,-0.188000000000
11.161731506000,-0.186000000000
11.169418627000,-0.186000000000
11.177105748000,-0.188000000000
11.184792869000,-0.183000000000
11.192479990000,-0.173000000000
11.200167111000,-0.181000000000
11.207854232000,-0.188000000000
11.215541353000,-0.183000000000
11.223228474000,-0.176000000000
11.230915595000,-0.173000000000
11.238602716000,-0.171000000000
11.246289837000,-0.166000000000
11.253976958000,-0.164000000000
11.261664079000,-0.159000000000
11.269351200000,-0.156000000000
11.277038321000,-0.156000000000
11.284725442000,-0.149000000000
11.292412563000,-0.134000000000
11.300099684000,-0.112000000000
11.307786805000,-0.097000000000
11.315473926000,-0.095000000000
11.323161047000,-0.088000000000
11.330848168000,-0.088000000000
11.338535289000,-0.120000000000
11.346222410000,-0.151000000000
11.353909531000,-0.146000000000
11.361596652000,-0.134000000000
11.369283773000,-0.134000000000
11.376970894000,-0.132000000000
11.384658079000,-0.124000000000
11.392345200000,-0.122000000000
11.400032321000,-0.120000000000
11.407719442000,-0.115000000000
11.415406563000,-0.129000000000
11.423093684000,-0.169000000000
11.430780805000,-0.244000000000
11.438467926000,-0.252000000000
11.446155047000,0.127000000000
11.453842168000,0.952000000000
11.461529289000,1.780000000000
11.469216410000,1.944000000000
11.476903531000,0.879000000000
11.484590652000,-0.507000000000
11.492277773000,-0.595000000000
11.499964894000,-0.088000000000
11.507652015000,-0.156000000000
11.515339136000,-0.259000000000
11.523026257000,-0.124000000000
11.530713378000,-0.117000000000
11.538400499000,-0.159000000000
11.546087620000,-0.105000000000
11.553774741000,-0.073000000000
11.561461862000,-0.075000000000
11.569148983000,-0.046000000000
11.576836104000,-0.009000000000
11.584523225000,0.009000000000
11.592210346000,0.036000000000
11.599897467000,0.071000000000
11.607584588000,0.102000000000
11.615271709000,0.137000000000
11.622958830000,0.176000000000
11.630645951000,0.213000000000
11.638333072000,0.242000000000
11.646020193000,0.269000000000
11.653707314000,0.284000000000
11.661394435000,0.286000000000
11.669081556000,0.276000000000
11.676768677000,0.262000000000
11.684455798000,0.240000000000
11.692142919000,0.210000000000
11.699830040000,0.166000000000
11.707517161000,0.100000000000
11.715204282000,0.022000000000
11.722891403000,-0.063000000000
11.730578524000,-0.146000000000
11.738265645000,-0.218000000000
11.745952766000,-0.267000000000
11.753639887000,-0.291000000000
11.761327008000,-0.303000000000
11.769014129000,-0.303000000000
11.776701250000,-0.298000000000
11.784388371000,-0.289000000000
11.792075492000,-0.276000000000
11.799762613000,-0.264000000000
11.807449734000,-0.252000000000
11.815136855000,-0.240000000000
11.822823976000,-0.227000000000
11.830511097000,-0.218000000000
11.838198218000,-0.210000000000
11.845885339000,-0.203000000000
11.853572460000,-0.198000000000
11.861259581000,-0.193000000000
11.868946702000,-0.191000000000
11.876633823000,-0.191000000000
11.884320944000,-0.188000000000
11.892008065000,-0.188000000000
11.899695186000,-0.188000000000
11.907382307000,-0.186000000000
11.915069428000,-0.186000000000
11.922756549000,-0.186000000000
11.930443670000,-0.186000000000
11.938130791000,-0.183000000000
11.945817976000,-0.181000000000
11.953505097000,-0.178000000000
11.961192218000,-0.176000000000
11.968879339000,-0.171000000000
11.976566460000,-0.169000000000
11.984253581000,-0.166000000000
11.991940702000,-0.161000000000
11.999627823000,-0.159000000000
12.007314944000,-0.161000000000
12.015002065000,-0.161000000000
12.022689186000,-0.149000000000
12.030376307000,-0.124000000000
12.038063428000,-0.102000000000
12.045750549000,-0.097000000000
12.053437670000,-0.095000000000
12.061124791000,-0.095000000000
12.068811912000,-0.115000000000
12.076499033000,-0.149000000000
12.084186154000,-0.159000000000
12.091873275000,-0.146000000000
12.099560396000,-0.142000000000
12.107247517000,-0.142000000000
12.114934638000,-0.134000000000
12.122621759000,-0.132000000000
12.130308880000,-0.129000000000
12.137996001000,-0.127000000000
12.145683122000,-0.134000000000
12.153370243000,-0.171000000000
12.161057364000,-0.249000000000
12.168744485000,-0.279000000000
12.176431606000,0.022000000000
12.184118727000,0.788000000000
12.191805848000,1.682000000000
12.199492969000,2.064000000000
12.207180090000,1.207000000000
12.214867211000,-0.313000000000
12.222554332000,-0.690000000000
12.230241453000,-0.149000000000
12.237928574000,-0.107000000000
12.245615695000,-0.289000000000
12.253302816000,-0.188000000000
12.260989937000,-0.134000000000
12.268677058000,-0.186000000000
12.276364179000,-0.151000000000
12.284051300000,-0.105000000000
12.291738421000,-0.102000000000
12.299425542000,-0.080000000000
12.307112663000,-0.044000000000
12.314799784000,-0.024000000000
12.322486905000,0.000000000000
12.330174026000,0.034000000000
12.337861147000,0.068000000000
12.345548268000,0.102000000000
12.353235389000,0.139000000000
12.360922510000,0.178000000000
12.368609631000,0.213000000000
12.376296752000,0.244000000000
12.383983873000,0.264000000000
12.391670994000,0.271000000000
12.399358115000,0.267000000000
12.407045236000,0.257000000000
12.414732357000,0.240000000000
12.422419478000,0.215000000000
12.430106599000,0.173000000000
12.437793720000,0.112000000000
12.445480841000,0.036000000000
12.453167962000,-0.046000000000
12.460855083000,-0.132000000000
12.468542204000,-0.208000000000
12.476229325000,-0.264000000000
12.483916446000,-0.296000000000
12.491603567000,-0.311000000000
12.499290688000,-0.313000000000
12.506977873000,-0.311000000000
12.514664994000,-0.303000000000
12.522352115000,-0.289000000000
12.530039236000,-0.276000000000
12.537726357000,-0.264000000000
12.545413478000,-0.252000000000
12.553100599000,-0.242000000000
12.560787720000,-0.230000000000
12.568474841000,-0.220000000000
12.576161962000,-0.213000000000
12.583849083000,-0.208000000000
12.591536204000,-0.205000000000
12.599223325000,-0.200000000000
12.606910446000,-0.198000000000
12.614597567000,-0.198000000000
12.622284688000,-0.198000000000
12.629971809000,-0.195000000000
12.637658930000,-0.195000000000
12.645346051000,-0.195000000000
12.653033172000,-0.191000000000
12.660720293000,-0.191000000000
12.668407414000,-0.188000000000
12.676094535000,-0.188000000000
12.683781656000,-0.183000000000
12.691468777000,-0.178000000000
12.699155898000,-0.176000000000
12.706843019000,-0.171000000000
12.714530140000,-0.169000000000
12.722217261000,-0.164000000000
12.729904382000,-0.161000000000
12.737591503000,-0.159000000000
12.745278624000,-0.161000000000
12.752965745000,-0.159000000000
12.760652866000,-0.142000000000
12.768339987000,-0.115000000000
12.776027108000,-0.100000000000
12.783714229000,-0.097000000000
12.791401350000,-0.093000000000
12.799088471000,-0.095000000000
12.806775592000,-0.127000000000
12.814462713000,-0.156000000000
12.822149834000,-0.154000000000
12.829836955000,-0.139000000000
12.837524076000,-0.139000000000
12.845211197000,-0.137000000000
12.852898318000,-0.132000000000
12.860585439000,-0.132000000000
12.868272560000,-0.127000000000
12.875959681000,-0.124000000000
12.883646802000,-0.139000000000
12.891333923000,-0.181000000000
12.899021044000,-0.262000000000
12.906708165000,-0.249000000000
12.914395286000,0.149000000000
12.922082407000,0.970000000000
12.929769528000,1.820000000000
12.937456649000,2.023000000000
12.945143770000,0.935000000000
12.952830891000,-0.507000000000
12.960518012000,-0.609000000000
12.968205133000,-0.083000000000
12.975892254000,-0.156000000000
12.983579375000,-0.291000000000
12.991266496000,-0.161000000000
12.998953617000,-0.144000000000
13.006640738000,-0.191000000000
13.014327859000,-0.139000000000
13.022014980000,-0.102000000000
13.029702101000,-0.102000000000
13.037389222000,-0.075000000000
13.045076343000,-0.041000000000
13.052763464000,-0.022000000000
13.060450585000,0.004000000000
13.068137770000,0.039000000000
13.075824891000,0.073000000000
13.083512012000,0.110000000000
13.091199133000,0.149000000000
13.098886254000,0.188000000000
13.106573375000,0.222000000000
13.114260496000,0.249000000000
13.121947617000,0.269000000000
13.129634738000,0.274000000000
13.137321859000,0.269000000000
13.145008980000,0.257000000000
13.152696101000,0.240000000000
13.160383222000,0.210000000000
13.168070343000,0.169000000000
13.175757464000,0.105000000000
13.183444585000,0.024000000000
13.191131706000,-0.061000000000
13.198818827000,-0.144000000000
13.206505948000,-0.218000000000
13.214193069000,-0.269000000000
13.221880190000,-0.298000000000
13.229567311000,-0.311000000000
13.237254432000,-0.313000000000
13.244941553000,-0.308000000000
13.252628674000,-0.298000000000
13.260315795000,-0.286000000000
13.268002916000,-0.274000000000
13.275690037000,-0.259000000000
13.283377158000,-0.249000000000
13.291064279000,-0.237000000000
13.298751400000,-0.227000000000
13.306438521000,-0.220000000000
13.314125642000,-0.210000000000
13.321812763000,-0.205000000000
13.329499884000,-0.203000000000
13.337187005000,-0.200000000000
13.344874126000,-0.198000000000
13.352561247000,-0.195000000000
13.360248368000,-0.195000000000
13.367935489000,-0.193000000000
13.375622610000,-0.193000000000
13.383309731000,-0.193000000000
13.390996852000,-0.193000000000
13.398683973000,-0.191000000000
13.406371094000,-0.188000000000
13.414058215000,-0.186000000000
13.421745336000,-0.183000000000
13.429432457000,-0.181000000000
13.437119578000,-0.176000000000
13.444806699000,-0.173000000000
13.452493820000,-0.169000000000
13.460180941000,-0.164000000000
13.467868062000,-0.159000000000
13.475555183000,-0.154000000000
13.483242304000,-0.154000000000
13.490929425000,-0.156000000000
13.498616546000,-0.154000000000
13.506303667000,-0.137000000000
13.513990788000,-0.110000000000
13.521677909000,-0.095000000000
13.529365030000,-0.093000000000
13.537052151000,-0.090000000000
13.544739272000,-0.093000000000
13.552426393000,-0.117000000000
13.560113514000,-0.146000000000
13.567800635000,-0.149000000000
13.575487756000,-0.137000000000
13.583174877000,-0.137000000000
13.590861998000,-0.132000000000
13.598549119000,-0.127000000000
13.606236240000,-0.127000000000
13.613923361000,-0.122000000000
13.621610482000,-0.117000000000
13.629297671000,-0.127000000000
13.636984792000,-0.159000000000
13.644671913000,-0.232000000000
13.652359034000,-0.274000000000
13.660046155000,-0.012000000000
13.667733276000,0.720000000000
13.675420397000,1.614000000000
13.683107518000,2.077000000000
13.690794639000,1.352000000000
13.698481760000,-0.186000000000
13.706168881000,-0.717000000000
13.713856002000,-0.193000000000
13.721543123000,-0.088000000000
13.729230244000,-0.284000000000
13.736917365000,-0.198000000000
13.744604486000,-0.127000000000
13.752291607000,-0.183000000000
13.759978728000,-0.159000000000
13.767665849000,-0.102000000000
13.775352970000,-0.093000000000
13.783040091000,-0.075000000000
13.790727212000,-0.044000000000
13.798414333000,-0.022000000000
13.806101454000,0.002000000000
13.813788575000,0.039000000000
13.821475696000,0.073000000000
13.829162817000,0.102000000000
13.836849938000,0.137000000000
13.844537059000,0.178000000000
13.852224180000,0.218000000000
13.859911301000,0.254000000000
13.867598422000,0.276000000000
13.875285543000,0.284000000000
13.882972664000,0.281000000000
13.890659785000,0.276000000000
13.898346906000,0.262000000000
13.906034027000,0.237000000000
13.913721148000,0.198000000000
13.921408269000,0.139000000000
13.929095390000,0.068000000000
13.936782511000,-0.012000000000
13.944469632000,-0.105000000000
13.952156753000,-0.193000000000
13.959843874000,-0.254000000000
13.967530995000,-0.284000000000
13.975218116000,-0.296000000000
13.982905237000,-0.308000000000
13.990592358000,-0.308000000000
13.998279479000,-0.296000000000
14.005966600000,-0.281000000000
14.013653721000,-0.269000000000
14.021340842000,-0.262000000000
14.029027963000,-0.252000000000
14.036715084000,-0.237000000000
14.044402205000,-0.225000000000
14.052089326000,-0.215000000000
14.059776447000,-0.203000000000
14.067463568000,-0.198000000000
14.075150689000,-0.200000000000
14.082837810000,-0.198000000000
14.090524931000,-0.188000000000
14.098212052000,-0.186000000000
14.105899173000,-0.188000000000
14.113586294000,-0.191000000000
14.121273415000,-0.191000000000
14.128960536000,-0.188000000000
14.136647657000,-0.183000000000
14.144334778000,-0.186000000000
14.152021899000,-0.193000000000
14.159709020000,-0.186000000000
14.167396141000,-0.171000000000
14.175083262000,-0.169000000000
14.182770383000,-0.176000000000
14.190457568000,-0.176000000000
14.198144480000,-0.171000000000
14.205831392000,-0.161000000000
14.213518304000,-0.154000000000
14.221205216000,-0.154000000000
14.228892128000,-0.156000000000
14.236579040000,-0.146000000000
14.244265952000,-0.120000000000
14.251952864000,-0.095000000000
14.259639776000,-0.088000000000
14.267326688000,-0.095000000000
14.275013600000,-0.097000000000
14.282700512000,-0.112000000000
14.290387424000,-0.144000000000
14.298074336000,-0.156000000000
14.305761248000,-0.139000000000
14.313448160000,-0.129000000000
14.321135072000,-0.134000000000
14.328821984000,-0.134000000000
14.336508896000,-0.124000000000
14.344195808000,-0.124000000000
14.351882720000,-0.127000000000
14.359569632000,-0.129000000000
14.367256544000,-0.144000000000
14.374943456000,-0.203000000000
14.382630368000,-0.279000000000
14.390317280000,-0.122000000000
14.398004192000,0.519000000000
14.405691104000,1.418000000000
14.413378016000,1.996000000000
14.421064928000,1.540000000000
14.428751840000,0.088000000000
14.436438752000,-0.720000000000
14.444125664000,-0.301000000000
14.451812576000,-0.061000000000
14.459499488000,-0.252000000000
14.467186400000,-0.208000000000
14.474873312000,-0.107000000000
14.482560224000,-0.146000000000
14.490247136000,-0.137000000000
14.497934048000,-0.085000000000
14.505620960000,-0.080000000000
14.513307872000,-0.068000000000
14.520994784000,-0.029000000000
14.528681696000,-0.004000000000
14.536368608000,0.022000000000
14.544055520000,0.058000000000
14.551742432000,0.090000000000
14.559429344000,0.122000000000
14.567116256000,0.159000000000
14.574803168000,0.198000000000
14.582490080000,0.235000000000
14.590176992000,0.267000000000
14.597863904000,0.293000000000
14.605550816000,0.303000000000
14.613237728000,0.298000000000
14.620924640000,0.289000000000
14.628611552000,0.271000000000
14.636298464000,0.247000000000
14.643985376000,0.213000000000
14.651672288000,0.154000000000
14.659359200000,0.075000000000
14.667046112000,-0.009000000000
14.674733024000,-0.097000000000
14.682419936000,-0.181000000000
14.690106848000,-0.244000000000
14.697793760000,-0.286000000000
14.705480672000,-0.308000000000
14.713167584000,-0.315000000000
14.720854496000,-0.315000000000
14.728541408000,-0.308000000000
14.736228320000,-0.291000000000
14.743915232000,-0.281000000000
14.751602208000,-0.274000000000
14.759289120000,-0.262000000000
14.766976032000,-0.247000000000
14.774662944000,-0.237000000000
14.782349856000,-0.225000000000
14.790036768000,-0.215000000000
14.797723680000,-0.213000000000
14.805410592000,-0.205000000000
14.813097504000,-0.198000000000
14.820784416000,-0.195000000000
14.828471328000,-0.198000000000
14.836158240000,-0.193000000000
14.843845152000,-0.193000000000
14.851532064000,-0.193000000000
14.859218976000,-0.193000000000
14.866905888000,-0.193000000000
14.874592800000,-0.193000000000
14.882279712000,-0.193000000000
14.889966624000,-0.191000000000
14.897653536000,-0.186000000000
14.905340448000,-0.181000000000
14.913027360000,-0.181000000000
14.920714272000,-0.178000000000
14.928401184000,-0.173000000000
14.936088096000,-0.166000000000
14.943775008000,-0.166000000000
14.951461920000,-0.169000000000
14.959148832000,-0.161000000000
14.966835744000,-0.139000000000
14.974522656000,-0.115000000000
14.982209568000,-0.105000000000
14.989896480000,-0.102000000000
14.997583392000,-0.097000000000
15.005270304000,-0.110000000000
15.012957216000,-0.144000000000
15.020644128000,-0.169000000000
15.028331040000,-0.161000000000
15.036017952000,-0.149000000000
15.043704864000,-0.149000000000
15.051391776000,-0.146000000000
15.059078688000,-0.142000000000
15.066765600000,-0.139000000000
15.074452512000,-0.137000000000
15.082139424000,-0.139000000000
15.089826336000,-0.154000000000
15.097513248000,-0.205000000000
15.105200160000,-0.286000000000
15.112887072000,-0.203000000000
15.120573984000,0.345000000000
15.128260896000,1.239000000000
15.135947808000,1.942000000000
15.143634720000,1.734000000000
15.151321632000,0.364000000000
15.159008544000,-0.710000000000
15.166695456000,-0.433000000000
15.174382368000,-0.063000000000
15.182069280000,-0.235000000000
15.189756192000,-0.247000000000
15.197443104000,-0.124000000000
15.205130016000,-0.159000000000
15.212816928000,-0.171000000000
15.220503840000,-0.112000000000
15.228190752000,-0.095000000000
15.235877664000,-0.093000000000
15.243564576000,-0.056000000000
15.251251488000,-0.026000000000
15.258938400000,-0.007000000000
15.266625312000,0.022000000000
15.274312224000,0.056000000000
15.281999136000,0.088000000000
15.289686048000,0.124000000000
15.297372960000,0.164000000000
15.305059872000,0.200000000000
15.312746844000,0.232000000000
15.320433965000,0.257000000000
15.328121086000,0.269000000000
15.335808207000,0.269000000000
15.343495328000,0.262000000000
15.351182449000,0.244000000000
15.358869570000,0.222000000000
15.366556691000,0.188000000000
15.374243812000,0.139000000000
15.381930933000,0.068000000000
15.389618054000,-0.009000000000
15.397305175000,-0.090000000000
15.404992296000,-0.173000000000
15.412679417000,-0.242000000000
15.420366538000,-0.284000000000
15.428053659000,-0.306000000000
15.435740780000,-0.315000000000
15.443427901000,-0.313000000000
15.451115022000,-0.306000000000
15.458802143000,-0.296000000000
15.466489264000,-0.284000000000
15.474176385000,-0.269000000000
15.481863506000,-0.257000000000
15.489550627000,-0.244000000000
15.497237748000,-0.232000000000
15.504924869000,-0.222000000000
15.512611990000,-0.213000000000
15.520299111000,-0.208000000000
15.527986232000,-0.203000000000
15.535673353000,-0.198000000000
15.543360474000,-0.198000000000
15.551047595000,-0.195000000000
15.558734716000,-0.193000000000
15.566421837000,-0.191000000000
15.574108958000,-0.193000000000
15.581796079000,-0.193000000000
15.589483200000,-0.193000000000
15.597170321000,-0.193000000000
15.604857442000,-0.191000000000
15.612544563000,-0.188000000000
15.620231684000,-0.186000000000
15.627918805000,-0.183000000000
15.635605926000,-0.178000000000
15.643293047000,-0.176000000000
15.650980168000,-0.173000000000
15.658667289000,-0.169000000000
15.666354410000,-0.164000000000
15.674041531000,-0.161000000000
15.681728652000,-0.164000000000
15.689415773000,-0.161000000000
15.697102894000,-0.146000000000
15.704790015000,-0.122000000000
15.712477136000,-0.105000000000
15.720164257000,-0.100000000000
15.727851378000,-0.097000000000
15.735538499000,-0.097000000000
15.743225620000,-0.120000000000
15.750912741000,-0.151000000000
15.758599862000,-0.159000000000
15.766286983000,-0.146000000000
15.773974104000,-0.142000000000
15.781661225000,-0.139000000000
15.789348346000,-0.134000000000
15.797035467000,-0.132000000000
15.804722588000,-0.129000000000
15.812409709000,-0.124000000000
15.820096830000,-0.132000000000
15.827783951000,-0.164000000000
15.835471072000,-0.240000000000
15.843158193000,-0.269000000000
15.850845314000,0.019000000000
15.858532435000,0.771000000000
15.866219556000,1.663000000000
15.873906741000,2.079000000000
15.881593862000,1.276000000000
15.889280983000,-0.259000000000
15.896968104000,-0.705000000000
15.904655225000,-0.164000000000
15.912342346000,-0.095000000000
15.920029467000,-0.286000000000
15.927716588000,-0.193000000000
15.935403709000,-0.132000000000
15.943090830000,-0.186000000000
15.950777951000,-0.156000000000
15.958465072000,-0.105000000000
15.966152193000,-0.102000000000
15.973839314000,-0.083000000000
15.981526435000,-0.046000000000
15.989213556000,-0.024000000000
15.996900677000,-0.002000000000
16.004587798000,0.031000000000
16.012274919000,0.066000000000
16.019962040000,0.097000000000
16.027649161000,0.137000000000
16.035336282000,0.176000000000
16.043023403000,0.213000000000
16.050710524000,0.244000000000
16.058397645000,0.264000000000
16.066084766000,0.271000000000
16.073771887000,0.271000000000
16.081459008000,0.262000000000
16.089146129000,0.244000000000
16.096833250000,0.220000000000
16.104520371000,0.183000000000
16.112207492000,0.127000000000
16.119894613000,0.051000000000
16.127581734000,-0.031000000000
16.135268855000,-0.117000000000
16.142955976000,-0.195000000000
16.150643097000,-0.254000000000
16.158330218000,-0.289000000000
16.166017339000,-0.306000000000
16.173704460000,-0.311000000000
16.181391581000,-0.308000000000
16.189078702000,-0.298000000000
16.196765823000,-0.289000000000
16.204452944000,-0.276000000000
16.212140065000,-0.264000000000
16.219827186000,-0.252000000000
16.227514307000,-0.242000000000
16.235201428000,-0.230000000000
16.242888549000,-0.218000000000
16.250575670000,-0.210000000000
16.258262791000,-0.205000000000
16.265949912000,-0.203000000000
16.273637033000,-0.198000000000
16.281324154000,-0.198000000000
16.289011275000,-0.198000000000
16.296698396000,-0.195000000000
16.304385517000,-0.195000000000
16.312072638000,-0.193000000000
16.319759759000,-0.193000000000
16.327446880000,-0.193000000000
16.335134001000,-0.191000000000
16.342821122000,-0.191000000000
16.350508243000,-0.186000000000
16.358195364000,-0.183000000000
16.365882485000,-0.181000000000
16.373569606000,-0.176000000000
16.381256727000,-0.173000000000
16.388943848000,-0.169000000000
16.396630969000,-0.166000000000
16.404318090000,-0.159000000000
16.412005211000,-0.156000000000
16.419692332000,-0.156000000000
16.427379453000,-0.159000000000
16.435066638000,-0.154000000000
16.442753759000,-0.134000000000
16.450440880000,-0.110000000000
16.458128001000,-0.097000000000
16.465815122000,-0.097000000000
16.473502243000,-0.093000000000
16.481189364000,-0.095000000000
16.488876485000,-0.127000000000
16.496563606000,-0.154000000000
16.504250727000,-0.149000000000
16.511937848000,-0.139000000000
16.519624969000,-0.139000000000
16.527312090000,-0.137000000000
16.534999211000,-0.132000000000
16.542686332000,-0.129000000000
16.550373453000,-0.127000000000
16.558060574000,-0.122000000000
16.565747695000,-0.134000000000
16.573434816000,-0.176000000000
16.581121937000,-0.254000000000
16.588809058000,-0.237000000000
16.596496179000,0.166000000000
16.604183300000,0.982000000000
16.611870421000,1.824000000000
16.619557542000,2.020000000000
16.627244663000,0.923000000000
16.634931784000,-0.511000000000
16.642618905000,-0.602000000000
16.650306026000,-0.078000000000
16.657993147000,-0.156000000000
16.665680268000,-0.289000000000
16.673367389000,-0.159000000000
16.681054510000,-0.142000000000
16.688741631000,-0.186000000000
16.696428752000,-0.137000000000
16.704115873000,-0.100000000000
16.711802994000,-0.105000000000
16.719490115000,-0.078000000000
16.727177236000,-0.041000000000
16.734864357000,-0.022000000000
16.742551478000,0.004000000000
16.750238599000,0.039000000000
16.757925720000,0.073000000000
16.765612841000,0.105000000000
16.773299962000,0.144000000000
16.780987083000,0.183000000000
16.788674204000,0.220000000000
16.796361325000,0.249000000000
16.804048446000,0.269000000000
16.811735567000,0.274000000000
16.819422688000,0.271000000000
16.827109809000,0.259000000000
16.834796930000,0.242000000000
16.842484051000,0.215000000000
16.850171172000,0.176000000000
16.857858293000,0.115000000000
16.865545414000,0.039000000000
16.873232535000,-0.044000000000
16.880919656000,-0.129000000000
16.888606777000,-0.205000000000
16.896293898000,-0.262000000000
16.903981019000,-0.293000000000
16.911668140000,-0.306000000000
16.919355261000,-0.311000000000
16.927042382000,-0.308000000000
16.934729503000,-0.298000000000
16.942416624000,-0.284000000000
16.950103745000,-0.271000000000
16.957790866000,-0.259000000000
16.965477987000,-0.247000000000
16.973165108000,-0.235000000000
16.980852229000,-0.222000000000
16.988539350000,-0.215000000000
16.996226539000,-0.208000000000
17.003913660000,-0.203000000000
17.011600781000,-0.200000000000
17.019287902000,-0.198000000000
17.026975023000,-0.195000000000
17.034662144000,-0.195000000000
17.042349265000,-0.195000000000
17.050036386000,-0.193000000000
17.057723507000,-0.193000000000
17.065410628000,-0.193000000000
17.073097749000,-0.191000000000
17.080784870000,-0.191000000000
17.088471991000,-0.188000000000
17.096159112000,-0.186000000000
17.103846233000,-0.181000000000
17.111533354000,-0.178000000000
17.119220475000,-0.176000000000
17.126907596000,-0.173000000000
17.134594717000,-0.169000000000
17.142281838000,-0.164000000000
17.149968959000,-0.159000000000
17.157656080000,-0.154000000000
17.165343201000,-0.156000000000
17.173030322000,-0.156000000000
17.180717443000,-0.149000000000
17.188404564000,-0.132000000000
17.196091685000,-0.107000000000
17.203778806000,-0.093000000000
17.211465927000,-0.093000000000
17.219153048000,-0.090000000000
17.226840169000,-0.095000000000
17.234527290000,-0.127000000000
17.242214411000,-0.151000000000
17.249901532000,-0.144000000000
17.257588653000,-0.137000000000
17.265275774000,-0.137000000000
17.272962895000,-0.134000000000
17.280650016000,-0.129000000000
17.288337137000,-0.127000000000
17.296024258000,-0.122000000000
17.303711379000,-0.122000000000
17.311398500000,-0.137000000000
17.319085621000,-0.181000000000
17.326772742000,-0.264000000000
17.334459863000,-0.225000000000
17.342146984000,0.227000000000
17.349834105000,1.070000000000
17.357521226000,1.876000000000
17.365208347000,1.962000000000
17.372895468000,0.769000000000
17.380582589000,-0.582000000000
17.388269710000,-0.548000000000
17.395956831000,-0.056000000000
17.403643952000,-0.176000000000
17.411331073000,-0.276000000000
17.419018194000,-0.144000000000
17.426705315000,-0.144000000000
17.434392436000,-0.183000000000
17.442079557000,-0.127000000000
17.449766678000,-0.093000000000
17.457453799000,-0.093000000000
17.465140920000,-0.063000000000
17.472828041000,-0.031000000000
17.480515162000,-0.009000000000
17.488202283000,0.017000000000
17.495889404000,0.051000000000
17.503576525000,0.083000000000
17.511263646000,0.117000000000
17.518950767000,0.159000000000
17.526637888000,0.200000000000
17.534325009000,0.237000000000
17.542012130000,0.257000000000
17.549699251000,0.271000000000
17.557386436000,0.284000000000
17.565073557000,0.284000000000
17.572760678000,0.271000000000
17.580447799000,0.252000000000
17.588134920000,0.230000000000
17.595822041000,0.186000000000
17.603509162000,0.115000000000
17.611196283000,0.034000000000
17.618883404000,-0.048000000000
17.626570525000,-0.129000000000
17.634257646000,-0.200000000000
17.641944767000,-0.257000000000
17.649631888000,-0.296000000000
17.657319009000,-0.308000000000
17.665006130000,-0.306000000000
17.672693251000,-0.311000000000
17.680380372000,-0.306000000000
17.688067493000,-0.289000000000
17.695754614000,-0.274000000000
17.703441735000,-0.259000000000
17.711128856000,-0.244000000000
17.718815977000,-0.232000000000
17.726503098000,-0.225000000000
17.734190219000,-0.215000000000
17.741877340000,-0.208000000000
17.749564461000,-0.203000000000
17.757251582000,-0.198000000000
17.764938703000,-0.200000000000
17.772625824000,-0.203000000000
17.780312945000,-0.188000000000
17.788000066000,-0.178000000000
17.795687187000,-0.188000000000
17.803374308000,-0.203000000000
17.811061429000,-0.195000000000
17.818748550000,-0.183000000000
17.826435671000,-0.181000000000
17.834122792000,-0.186000000000
17.841809913000,-0.183000000000
17.849497034000,-0.178000000000
17.857184155000,-0.173000000000
17.864871276000,-0.169000000000
17.872558397000,-0.166000000000
17.880245518000,-0.166000000000
17.887932639000,-0.164000000000
17.895619760000,-0.159000000000
17.903306881000,-0.154000000000
17.910994002000,-0.137000000000
17.918681123000,-0.102000000000
17.926368244000,-0.088000000000
17.934055365000,-0.095000000000
17.941742486000,-0.095000000000
17.949429607000,-0.105000000000
17.957116728000,-0.142000000000
17.964803849000,-0.161000000000
17.972490970000,-0.151000000000
17.980178091000,-0.139000000000
17.987865212000,-0.137000000000
17.995552333000,-0.134000000000
18.003239454000,-0.127000000000
18.010926575000,-0.129000000000
18.018613696000,-0.127000000000
18.026300817000,-0.122000000000
18.033987938000,-0.142000000000
18.041675059000,-0.200000000000
18.049362180000,-0.269000000000
18.057049301000,-0.161000000000
18.064736422000,0.406000000000
18.072423543000,1.303000000000
18.080110664000,1.971000000000
18.087797785000,1.685000000000
18.095484906000,0.279000000000
18.103172027000,-0.710000000000
18.110859148000,-0.374000000000
18.118546333000,-0.046000000000
18.126233315000,-0.237000000000
18.133920297000,-0.227000000000
18.141607279000,-0.102000000000
18.149294261000,-0.134000000000
18.156981243000,-0.142000000000
18.164668225000,-0.085000000000
18.172355207000,-0.068000000000
18.180042189000,-0.058000000000
18.187729171000,-0.029000000000
18.195416153000,-0.004000000000
18.203103135000,0.019000000000
18.210790117000,0.051000000000
18.218477099000,0.085000000000
18.226164081000,0.127000000000
18.233851063000,0.169000000000
18.241538045000,0.205000000000
18.249225027000,0.240000000000
18.256912009000,0.269000000000
18.264598991000,0.293000000000
18.272285973000,0.308000000000
18.279972955000,0.306000000000
18.287659937000,0.301000000000
18.295346919000,0.289000000000
18.303033901000,0.259000000000
18.310720883000,0.225000000000
18.318407865000,0.181000000000
18.326094847000,0.105000000000
18.333781829000,0.012000000000
18.341468811000,-0.073000000000
18.349155793000,-0.154000000000
18.356842775000,-0.232000000000
18.364529757000,-0.284000000000
18.372216739000,-0.301000000000
18.379903721000,-0.303000000000
18.387590703000,-0.311000000000
18.395277685000,-0.311000000000
18.402964667000,-0.293000000000
18.410651649000,-0.276000000000
18.418338631000,-0.267000000000
18.426025613000,-0.259000000000
18.433712595000,-0.247000000000
18.441399577000,-0.232000000000
18.449086559000,-0.220000000000
18.456773541000,-0.215000000000
18.464460523000,-0.208000000000
18.472147505000,-0.200000000000
18.479834487000,-0.193000000000
18.487521469000,-0.193000000000
18.495208451000,-0.191000000000
18.502895433000,-0.191000000000
18.510582415000,-0.188000000000
18.518269397000,-0.186000000000
18.525956379000,-0.186000000000
18.533643361000,-0.183000000000
18.541330343000,-0.181000000000
18.549017325000,-0.183000000000
18.556704307000,-0.186000000000
18.564391289000,-0.178000000000
18.572078271000,-0.173000000000
18.579765253000,-0.171000000000
18.587452235000,-0.173000000000
18.595139217000,-0.173000000000
18.602826199000,-0.166000000000
18.610513181000,-0.159000000000
18.618200163000,-0.144000000000
18.625887145000,-0.120000000000
18.633574127000,-0.107000000000
18.641261109000,-0.107000000000
18.648948091000,-0.110000000000
18.656635073000,-0.127000000000
18.664322055000,-0.161000000000
18.672009037000,-0.166000000000
18.679696060000,-0.149000000000
18.687383251000,-0.146000000000
18.695070442000,-0.146000000000
18.702757633000,-0.142000000000
18.710444824000,-0.137000000000
18.718132015000,-0.134000000000
18.725819206000,-0.134000000000
18.733506397000,-0.149000000000
18.741193588000,-0.193000000000
18.748880779000,-0.274000000000
18.756567970000,-0.237000000000
18.764255161000,0.230000000000
18.771942352000,1.097000000000
18.779629543000,1.859000000000
18.787316734000,1.820000000000
18.795003925000,0.585000000000
18.802691116000,-0.644000000000
18.810378307000,-0.524000000000
18.818065498000,-0.080000000000
18.825752689000,-0.210000000000
18.833439880000,-0.259000000000
18.841127071000,-0.127000000000
18.848814262000,-0.149000000000
18.856501453000,-0.176000000000
18.864188644000,-0.120000000000
18.871875835000,-0.095000000000
18.879563026000,-0.095000000000
18.887250217000,-0.063000000000
18.894937408000,-0.034000000000
18.902624599000,-0.014000000000
18.910311790000,0.014000000000
18.917998981000,0.048000000000
18.925686172000,0.080000000000
18.933373363000,0.115000000000
18.941060554000,0.149000000000
18.948747745000,0.188000000000
18.956434936000,0.220000000000
18.964122127000,0.242000000000
18.971809318000,0.257000000000
18.979496509000,0.259000000000
18.987183700000,0.252000000000
18.994870891000,0.235000000000
19.002558082000,0.213000000000
19.010245273000,0.183000000000
19.017932464000,0.137000000000
19.025619655000,0.073000000000
19.033306846000,-0.004000000000
19.040994037000,-0.090000000000
19.048681228000,-0.171000000000
19.056368419000,-0.242000000000
19.064055610000,-0.286000000000
19.071742801000,-0.311000000000
19.079429992000,-0.320000000000
19.087117183000,-0.320000000000
19.094804374000,-0.315000000000
19.102491565000,-0.303000000000
19.110178756000,-0.291000000000
19.117865947000,-0.279000000000
19.125553138000,-0.267000000000
19.133240329000,-0.254000000000
19.140927520000,-0.242000000000
19.148614711000,-0.232000000000
19.156301902000,-0.225000000000
19.163989093000,-0.218000000000
19.171676284000,-0.215000000000
19.179363475000,-0.210000000000
19.187050666000,-0.208000000000
19.194737857000,-0.208000000000
19.202425048000,-0.205000000000
19.210112239000,-0.203000000000
19.217799430000,-0.205000000000
19.225486621000,-0.205000000000
19.233173812000,-0.203000000000
19.240861044000,-0.203000000000
19.248547817000,-0.203000000000
19.256234590000,-0.200000000000
19.263921363000,-0.198000000000
19.271608136000,-0.198000000000
19.279294909000,-0.191000000000
19.286981682000,-0.186000000000
19.294668455000,-0.183000000000
19.302355228000,-0.181000000000
19.310042001000,-0.183000000000
19.317728774000,-0.183000000000
19.325415547000,-0.171000000000
19.333102320000,-0.146000000000
19.340789093000,-0.124000000000
19.348475866000,-0.117000000000
19.356162639000,-0.112000000000
19.363849412000,-0.110000000000
19.371536185000,-0.127000000000
19.379222958000,-0.159000000000
19.386909731000,-0.171000000000
19.394596504000,-0.159000000000
19.402283277000,-0.154000000000
19.409970050000,-0.154000000000
19.417656823000,-0.146000000000
19.425343596000,-0.144000000000
19.433030369000,-0.139000000000
19.440717142000,-0.137000000000
19.448403915000,-0.146000000000
19.456090688000,-0.186000000000
19.463777461000,-0.262000000000
19.471464234000,-0.257000000000
19.479151007000,0.124000000000
19.486837780000,0.935000000000
19.494524553000,1.795000000000
19.502211326000,2.040000000000
19.509898099000,0.996000000000
19.517584872000,-0.480000000000
19.525271645000,-0.646000000000
19.532958418000,-0.105000000000
19.540645191000,-0.154000000000
19.548331964000,-0.303000000000
19.556018737000,-0.178000000000
19.563705510000,-0.151000000000
19.571392283000,-0.200000000000
19.579079056000,-0.154000000000
19.586765829000,-0.115000000000
19.594452602000,-0.112000000000
19.602139375000,-0.088000000000
19.609826148000,-0.051000000000
19.617512921000,-0.031000000000
19.625199694000,-0.004000000000
19.632886467000,0.029000000000
19.640573240000,0.063000000000
19.648260013000,0.095000000000
19.655946786000,0.132000000000
19.663633559000,0.173000000000
19.671320332000,0.208000000000
19.679007105000,0.237000000000
19.686693878000,0.257000000000
19.694380651000,0.264000000000
19.702067424000,0.262000000000
19.709754197000,0.249000000000
19.717440970000,0.232000000000
19.725127743000,0.205000000000
19.732814516000,0.164000000000
19.740501289000,0.100000000000
19.748188062000,0.024000000000
19.755874835000,-0.056000000000
19.763561608000,-0.144000000000
19.771248381000,-0.220000000000
19.778935154000,-0.271000000000
19.786621927000,-0.303000000000
19.794308700000,-0.318000000000
19.801995506000,-0.318000000000
19.809682697000,-0.313000000000
19.817369888000,-0.306000000000
19.825057079000,-0.293000000000
19.832744270000,-0.279000000000
19.840431461000,-0.267000000000
19.848118652000,-0.257000000000
19.855805843000,-0.244000000000
19.863493034000,-0.232000000000
19.871180225000,-0.225000000000
19.878867416000,-0.218000000000
19.886554607000,-0.213000000000
19.894241798000,-0.210000000000
19.901928989000,-0.208000000000
19.909616180000,-0.205000000000
19.917303371000,-0.203000000000
19.924990562000,-0.200000000000
19.932677753000,-0.200000000000
19.940364944000,-0.200000000000
19.948052135000,-0.200000000000
19.955739326000,-0.198000000000
19.963426517000,-0.195000000000
19.971113708000,-0.193000000000
19.978800899000,-0.191000000000
19.986488090000,-0.188000000000
19.994175281000,-0.183000000000
20.001862472000,-0.178000000000
20.009549663000,-0.173000000000
20.017236854000,-0.173000000000
20.024924045000,-0.176000000000
20.032611236000,-0.173000000000
20.040298427000,-0.159000000000
20.047985618000,-0.132000000000
20.055672809000,-0.112000000000
20.063360000000,-0.110000000000
20.071047191000,-0.107000000000
20.078734382000,-0.107000000000
20.086421573000,-0.129000000000
20.094108764000,-0.164000000000
20.101795955000,-0.166000000000
20.109483146000,-0.151000000000
20.117170337000,-0.146000000000
20.124857528000,-0.146000000000
20.132544719000,-0.142000000000
20.140231910000,-0.139000000000
20.147919101000,-0.134000000000
20.155606292000,-0.132000000000
20.163293483000,-0.144000000000
20.170980674000,-0.181000000000
20.178667865000,-0.259000000000
20.186355056000,-0.267000000000
20.194042247000,0.088000000000
20.201729438000,0.894000000000
20.209416629000,1.775000000000
20.217103820000,2.084000000000
20.224791011000,1.102000000000
20.232478202000,-0.416000000000
20.240165393000,-0.676000000000
20.247852584000,-0.127000000000
20.255539775000,-0.139000000000
20.263226966000,-0.306000000000
20.270914157000,-0.186000000000
20.278601348000,-0.146000000000
20.286288539000,-0.198000000000
20.293975730000,-0.159000000000
20.301662921000,-0.112000000000
20.309350112000,-0.112000000000
20.317037303000,-0.090000000000
20.324724494000,-0.053000000000
20.332411685000,-0.029000000000
20.340098876000,-0.004000000000
20.347786067000,0.026000000000
20.355473258000,0.061000000000
20.363160494000,0.097000000000
20.370847546000,0.137000000000
20.378534598000,0.176000000000
20.386221650000,0.213000000000
20.393908702000,0.244000000000
20.401595754000,0.264000000000
20.409282806000,0.269000000000
20.416969858000,0.269000000000
20.424656910000,0.259000000000
20.432343962000,0.240000000000
20.440031014000,0.215000000000
20.447718066000,0.176000000000
20.455405118000,0.117000000000
20.463092170000,0.036000000000
20.470779222000,-0.048000000000
20.478466274000,-0.137000000000
20.486153326000,-0.213000000000
20.493840378000,-0.269000000000
20.501527430000,-0.301000000000
20.509214482000,-0.315000000000
20.516901534000,-0.318000000000
20.524588586000,-0.313000000000
20.532275638000,-0.303000000000
20.539962690000,-0.291000000000
20.547649742000,-0.276000000000
20.555336794000,-0.264000000000
20.563023846000,-0.254000000000
20.570710898000,-0.242000000000
20.578397950000,-0.230000000000
20.586085002000,-0.220000000000
20.593772054000,-0.213000000000
20.601459106000,-0.205000000000
20.609146158000,-0.200000000000
20.616833210000,-0.198000000000
20.624520262000,-0.195000000000
20.632207314000,-0.195000000000
20.639894366000,-0.195000000000
20.647581418000,-0.195000000000
20.655268470000,-0.191000000000
20.662955522000,-0.191000000000
20.670642574000,-0.188000000000
20.678329626000,-0.186000000000
20.686016678000,-0.186000000000
20.693703730000,-0.186000000000
20.701390782000,-0.181000000000
20.709077834000,-0.176000000000
20.716764886000,-0.173000000000
20.724451938000,-0.166000000000
20.732138990000,-0.164000000000
20.739826042000,-0.164000000000
20.747513094000,-0.166000000000
20.755200146000,-0.159000000000
20.762887198000,-0.139000000000
20.770574250000,-0.115000000000
20.778261302000,-0.097000000000
20.785948354000,-0.095000000000
20.793635406000,-0.095000000000
20.801322458000,-0.100000000000
20.809009510000,-0.129000000000
20.816696562000,-0.156000000000
20.824383614000,-0.151000000000
20.832070666000,-0.139000000000
20.839757718000,-0.137000000000
20.847444770000,-0.132000000000
20.855131822000,-0.127000000000
20.862818874000,-0.129000000000
20.870505926000,-0.129000000000
20.878192978000,-0.122000000000
20.885880030000,-0.132000000000
20.893567082000,-0.173000000000
20.901254134000,-0.257000000000
20.908941186000,-0.259000000000
20.916628238000,0.117000000000
20.924315304000,0.935000000000
20.932002425000,1.807000000000
20.939689546000,2.072000000000
20.947376667000,1.045000000000
20.955063788000,-0.445000000000
20.962750909000,-0.641000000000
20.970438030000,-0.100000000000
20.978125151000,-0.139000000000
20.985812272000,-0.284000000000
20.993499393000,-0.159000000000
21.001186514000,-0.134000000000
21.008873635000,-0.183000000000
21.016560756000,-0.134000000000
21.024247877000,-0.090000000000
21.031934998000,-0.088000000000
21.039622119000,-0.063000000000
21.047309240000,-0.036000000000
21.054996361000,-0.019000000000
21.062683482000,0.009000000000
21.070370603000,0.046000000000
21.078057724000,0.083000000000
21.085744845000,0.122000000000
21.093431966000,0.161000000000
21.101119087000,0.200000000000
21.108806208000,0.240000000000
21.116493329000,0.271000000000
21.124180450000,0.289000000000
21.131867571000,0.293000000000
21.139554692000,0.289000000000
21.147241813000,0.276000000000
21.154928934000,0.262000000000
21.162616055000,0.237000000000
21.170303176000,0.193000000000
21.177990297000,0.127000000000
21.185677418000,0.046000000000
21.193364539000,-0.046000000000
21.201051660000,-0.129000000000
21.208738781000,-0.203000000000
21.216425902000,-0.262000000000
21.224113023000,-0.296000000000
21.231800144000,-0.306000000000
21.239487265000,-0.311000000000
21.247174386000,-0.313000000000
21.254861507000,-0.311000000000
21.262548628000,-0.301000000000
21.270235749000,-0.279000000000
21.277922870000,-0.259000000000
21.285609991000,-0.249000000000
21.293297112000,-0.237000000000
21.300984233000,-0.222000000000
21.308671354000,-0.213000000000
21.316358475000,-0.210000000000
21.324045596000,-0.208000000000
21.331732717000,-0.205000000000
21.339419838000,-0.203000000000
21.347106959000,-0.198000000000
21.354794080000,-0.188000000000
21.362481201000,-0.191000000000
21.370168322000,-0.198000000000
21.377855443000,-0.193000000000
21.385542564000,-0.188000000000
21.393229685000,-0.188000000000
21.400916806000,-0.186000000000
21.408603927000,-0.188000000000
21.416291048000,-0.188000000000
21.423978169000,-0.173000000000
21.431665290000,-0.169000000000
21.439352411000,-0.178000000000
21.447039532000,-0.176000000000
21.454726653000,-0.166000000000
21.462413774000,-0.164000000000
21.470100895000,-0.159000000000
21.477788016000,-0.132000000000
21.485475201000,-0.102000000000
21.493162322000,-0.095000000000
21.500849443000,-0.097000000000
21.508536564000,-0.093000000000
21.516223685000,-0.097000000000
21.523910806000,-0.132000000000
21.531597927000,-0.164000000000
21.539285048000,-0.159000000000
21.546972169000,-0.137000000000
21.554659290000,-0.132000000000
21.562346411000,-0.139000000000
21.570033532000,-0.137000000000
21.577720653000,-0.132000000000
21.585407774000,-0.122000000000
21.593094895000,-0.120000000000
21.600782016000,-0.137000000000
21.608469137000,-0.176000000000
21.616156258000,-0.257000000000
21.623843379000,-0.247000000000
21.631530500000,0.173000000000
21.639217621000,1.026000000000
21.646904742000,1.839000000000
21.654591863000,1.932000000000
21.662278984000,0.788000000000
21.669966105000,-0.560000000000
21.677653226000,-0.570000000000
21.685340347000,-0.080000000000
21.693027468000,-0.178000000000
21.700714589000,-0.259000000000
21.708401710000,-0.120000000000
21.716088831000,-0.129000000000
21.723775952000,-0.164000000000
21.731463073000,-0.105000000000
21.739150194000,-0.078000000000
21.746837315000,-0.080000000000
21.754524436000,-0.048000000000
21.762211557000,-0.009000000000
21.769898678000,0.012000000000
21.777585799000,0.036000000000
21.785272920000,0.071000000000
21.792960041000,0.102000000000
21.800647162000,0.142000000000
21.808334283000,0.186000000000
21.816021404000,0.225000000000
21.823708525000,0.254000000000
21.831395646000,0.281000000000
21.839082767000,0.301000000000
21.846769888000,0.306000000000
21.854457009000,0.296000000000
21.862144130000,0.279000000000
21.869831251000,0.257000000000
21.877518372000,0.230000000000
21.885205493000,0.183000000000
21.892892614000,0.115000000000
21.900579735000,0.031000000000
21.908266856000,-0.056000000000
21.915953977000,-0.144000000000
21.923641098000,-0.220000000000
21.931328219000,-0.274000000000
21.939015340000,-0.303000000000
21.946702461000,-0.318000000000
21.954389582000,-0.320000000000
21.962076703000,-0.315000000000
21.969763824000,-0.303000000000
21.977450945000,-0.293000000000
21.985138066000,-0.284000000000
21.992825187000,-0.269000000000
22.000512308000,-0.252000000000
22.008199429000,-0.242000000000
22.015886550000,-0.235000000000
22.023573671000,-0.222000000000
22.031260792000,-0.213000000000
22.038947913000,-0.208000000000
22.046635098000,-0.205000000000
22.054322219000,-0.200000000000
22.062009340000,-0.195000000000
22.069696461000,-0.195000000000
22.077383582000,-0.193000000000
22.085070703000,-0.193000000000
22.092757824000,-0.193000000000
22.100444945000,-0.193000000000
22.108132066000,-0.195000000000
22.115819187000,-0.193000000000
22.123506308000,-0.191000000000
22.131193429000,-0.188000000000
22.138880550000,-0.186000000000
22.146567671000,-0.181000000000
22.154254792000,-0.178000000000
22.161941913000,-0.176000000000
22.169629034000,-0.176000000000
22.177316155000,-0.173000000000
22.185003276000,-0.166000000000
22.192690397000,-0.146000000000
22.200377518000,-0.122000000000
22.208064639000,-0.112000000000
22.215751760000,-0.110000000000
22.223438881000,-0.107000000000
22.231126002000,-0.117000000000
22.238813123000,-0.151000000000
22.246500244000,-0.171000000000
22.254187365000,-0.161000000000
22.261874486000,-0.154000000000
22.269561607000,-0.156000000000
22.277248728000,-0.149000000000
22.284935849000,-0.142000000000
22.292622970000,-0.142000000000
22.300310091000,-0.139000000000
22.307997212000,-0.139000000000
22.315684333000,-0.156000000000
22.323371454000,-0.205000000000
22.331058575000,-0.293000000000
22.338745696000,-0.237000000000
22.346432817000,0.276000000000
22.354119938000,1.183000000000
22.361807059000,1.974000000000
22.369494180000,1.920000000000
22.377181301000,0.595000000000
22.384868422000,-0.666000000000
22.392555543000,-0.514000000000
22.400242664000,-0.066000000000
22.407929785000,-0.213000000000
22.415616906000,-0.276000000000
22.423304027000,-0.146000000000
22.430991148000,-0.161000000000
22.438678269000,-0.188000000000
22.446365390000,-0.129000000000
22.454052511000,-0.105000000000
22.461739632000,-0.105000000000
22.469426753000,-0.073000000000
22.477113874000,-0.041000000000
22.484800995000,-0.019000000000
22.492488116000,0.009000000000
22.500175237000,0.044000000000
22.507862358000,0.075000000000
22.515549479000,0.112000000000
22.523236600000,0.154000000000
22.530923721000,0.193000000000
22.538610842000,0.227000000000
22.546297963000,0.254000000000
22.553985084000,0.271000000000
22.561672205000,0.274000000000
22.569359326000,0.269000000000
22.577046447000,0.257000000000
22.584733568000,0.235000000000
22.592420689000,0.205000000000
22.600107810000,0.159000000000
22.607794995000,0.090000000000
22.615482116000,0.009000000000
22.623169237000,-0.078000000000
22.630856358000,-0.161000000000
22.638543479000,-0.235000000000
22.646230600000,-0.281000000000
22.653917721000,-0.306000000000
22.661604842000,-0.315000000000
22.669291963000,-0.315000000000
22.676979084000,-0.311000000000
22.684666205000,-0.298000000000
22.692353326000,-0.286000000000
22.700040447000,-0.271000000000
22.707727568000,-0.262000000000
22.715414689000,-0.247000000000
22.723101810000,-0.237000000000
22.730788931000,-0.227000000000
22.738476052000,-0.218000000000
22.746163173000,-0.208000000000
22.753850294000,-0.203000000000
22.761537415000,-0.200000000000
22.769224536000,-0.198000000000
22.776911657000,-0.198000000000
22.784598778000,-0.195000000000
22.792285899000,-0.193000000000
22.799973020000,-0.193000000000
22.807660141000,-0.193000000000
22.815347262000,-0.191000000000
22.823034383000,-0.191000000000
22.830721504000,-0.191000000000
22.838408625000,-0.188000000000
22.846095746000,-0.186000000000
22.853782867000,-0.186000000000
22.861469988000,-0.183000000000
22.869157109000,-0.178000000000
22.876844230000,-0.173000000000
22.884531351000,-0.169000000000
22.892218472000,-0.164000000000
22.899905593000,-0.159000000000
22.907592714000,-0.159000000000
22.915279835000,-0.161000000000
22.922966956000,-0.159000000000
22.930654077000,-0.142000000000
22.938341198000,-0.112000000000
22.946028319000,-0.097000000000
22.953715440000,-0.095000000000
22.961402561000,-0.093000000000
22.969089682000,-0.093000000000
22.976776803000,-0.122000000000
22.984463924000,-0.151000000000
22.992151045000,-0.149000000000
22.999838166000,-0.134000000000
23.007525287000,-0.134000000000
23.015212408000,-0.132000000000
23.022899529000,-0.124000000000
23.030586650000,-0.124000000000
23.038273771000,-0.122000000000
23.045960892000,-0.120000000000
23.053648013000,-0.127000000000
23.061335134000,-0.159000000000
23.069022255000,-0.232000000000
23.076709376000,-0.262000000000
23.084396497000,0.036000000000
23.092083618000,0.796000000000
23.099770739000,1.690000000000
23.107457860000,2.118000000000
23.115144981000,1.320000000000
23.122832102000,-0.244000000000
23.130519223000,-0.707000000000
23.138206344000,-0.166000000000
23.145893465000,-0.095000000000
23.153580586000,-0.291000000000
23.161267707000,-0.193000000000
23.168954892000,-0.129000000000
23.176642013000,-0.183000000000
23.184329134000,-0.151000000000
23.192016255000,-0.102000000000
23.199703376000,-0.102000000000
23.207390497000,-0.083000000000
23.215077618000,-0.046000000000
23.222764739000,-0.024000000000
23.230451860000,0.000000000000
23.238138981000,0.031000000000
23.245826102000,0.066000000000
23.253513223000,0.102000000000
23.261200344000,0.139000000000
23.268887465000,0.178000000000
23.276574586000,0.215000000000
23.284261707000,0.247000000000
23.291948828000,0.269000000000
23.299635949000,0.279000000000
23.307323070000,0.281000000000
23.315010191000,0.271000000000
23.322697312000,0.254000000000
23.330384433000,0.232000000000
23.338071554000,0.198000000000
23.345758675000,0.139000000000
23.353445796000,0.066000000000
23.361132917000,-0.019000000000
23.368820038000,-0.105000000000
23.376507159000,-0.186000000000
23.384194280000,-0.249000000000
23.391881401000,-0.289000000000
23.399568522000,-0.306000000000
23.407255643000,-0.311000000000
23.414942764000,-0.308000000000
23.422629885000,-0.301000000000
23.430317006000,-0.291000000000
23.438004127000,-0.276000000000
23.445691248000,-0.262000000000
23.453378369000,-0.252000000000
23.461065490000,-0.240000000000
23.468752611000,-0.225000000000
23.476439732000,-0.218000000000
23.484126853000,-0.210000000000
23.491813974000,-0.203000000000
23.499501095000,-0.198000000000
23.507188216000,-0.195000000000
23.514875337000,-0.193000000000
23.522562458000,-0.191000000000
23.530249579000,-0.191000000000
23.537936700000,-0.188000000000
23.545623821000,-0.191000000000
23.553310942000,-0.191000000000
23.560998063000,-0.188000000000
23.568685184000,-0.186000000000
23.576372305000,-0.183000000000
23.584059426000,-0.183000000000
23.591746547000,-0.178000000000
23.599433668000,-0.176000000000
23.607120789000,-0.173000000000
23.614807910000,-0.169000000000
23.622495031000,-0.166000000000
23.630182152000,-0.161000000000
23.637869273000,-0.154000000000
23.645556394000,-0.151000000000
23.653243515000,-0.154000000000
23.660930636000,-0.154000000000
23.668617757000,-0.142000000000
23.676304878000,-0.115000000000
23.683991999000,-0.095000000000
23.691679120000,-0.088000000000
23.699366241000,-0.088000000000
23.707053362000,-0.085000000000
23.714740483000,-0.102000000000
23.722427604000,-0.137000000000
23.730114793000,-0.149000000000
23.737801914000,-0.137000000000
23.745489035000,-0.129000000000
23.753176156000,-0.132000000000
23.760863277000,-0.124000000000
23.768550398000,-0.122000000000
23.776237519000,-0.120000000000
23.783924640000,-0.117000000000
23.791611761000,-0.117000000000
23.799298882000,-0.137000000000
23.806986003000,-0.193000000000
23.814673124000,-0.269000000000
23.822360245000,-0.166000000000
23.830047366000,0.384000000000
23.837734487000,1.273000000000
23.845421608000,2.023000000000
23.853108729000,1.881000000000
23.860795850000,0.477000000000
23.868482971000,-0.693000000000
23.876170092000,-0.433000000000
23.883857213000,-0.034000000000
23.891544334000,-0.225000000000
23.899231455000,-0.259000000000
23.906918576000,-0.127000000000
23.914605697000,-0.156000000000
23.922292818000,-0.178000000000
23.929979939000,-0.120000000000
23.937667060000,-0.097000000000
23.945354181000,-0.095000000000
23.953041302000,-0.063000000000
23.960728423000,-0.031000000000
23.968415544000,-0.009000000000
23.976102665000,0.022000000000
23.983789786000,0.056000000000
23.991476907000,0.088000000000
23.999164028000,0.124000000000
24.006851149000,0.166000000000
24.014538270000,0.205000000000
24.022225391000,0.242000000000
24.029912512000,0.269000000000
24.037599633000,0.284000000000
24.045286754000,0.289000000000
24.052973875000,0.284000000000
24.060660996000,0.279000000000
24.068348117000,0.259000000000
24.076035238000,0.230000000000
24.083722359000,0.183000000000
24.091409480000,0.120000000000
24.099096601000,0.034000000000
24.106783722000,-0.056000000000
24.114470843000,-0.139000000000
24.122157964000,-0.208000000000
24.129845085000,-0.259000000000
24.137532206000,-0.291000000000
24.145219327000,-0.301000000000
24.152906448000,-0.303000000000
24.160593569000,-0.301000000000
24.168280690000,-0.289000000000
24.175967811000,-0.274000000000
24.183654932000,-0.264000000000
24.191342053000,-0.254000000000
24.199029174000,-0.240000000000
24.206716295000,-0.227000000000
24.214403416000,-0.210000000000
24.222090537000,-0.198000000000
24.229777658000,-0.195000000000
24.237464779000,-0.195000000000
24.245151900000,-0.191000000000
24.252839021000,-0.188000000000
24.260526142000,-0.186000000000
24.268213263000,-0.183000000000
24.275900384000,-0.186000000000
24.283587505000,-0.183000000000
24.291274690000,-0.178000000000
24.298961602000,-0.178000000000
24.306648514000,-0.178000000000
24.314335426000,-0.178000000000
24.322022338000,-0.173000000000
24.329709250000,-0.173000000000
24.337396162000,-0.176000000000
24.345083074000,-0.166000000000
24.352769986000,-0.159000000000
24.360456898000,-0.159000000000
24.368143810000,-0.156000000000
24.375830722000,-0.146000000000
24.383517634000,-0.146000000000
24.391204546000,-0.149000000000
24.398891458000,-0.146000000000
24.406578370000,-0.134000000000
24.414265282000,-0.105000000000
24.421952194000,-0.078000000000
24.429639106000,-0.075000000000
24.437326018000,-0.083000000000
24.445012930000,-0.078000000000
24.452699842000,-0.088000000000
24.460386754000,-0.132000000000
24.468073666000,-0.149000000000
24.475760578000,-0.129000000000
24.483447490000,-0.120000000000
24.491134402000,-0.122000000000
24.498821314000,-0.115000000000
24.506508226000,-0.110000000000
24.514195138000,-0.110000000000
24.521882050000,-0.107000000000
24.529568962000,-0.107000000000
24.537255874000,-0.127000000000
24.544942786000,-0.183000000000
24.552629698000,-0.252000000000
24.560316610000,-0.134000000000
24.568003522000,0.448000000000
24.575690434000,1.339000000000
24.583377346000,2.001000000000
24.591064258000,1.719000000000
24.598751170000,0.320000000000
24.606438082000,-0.693000000000
24.614124994000,-0.377000000000
24.621811906000,-0.041000000000
24.629498818000,-0.218000000000
24.637185730000,-0.213000000000
24.644872642000,-0.102000000000
24.652559554000,-0.142000000000
24.660246466000,-0.149000000000
24.667933378000,-0.093000000000
24.675620290000,-0.071000000000
24.683307202000,-0.061000000000
24.690994114000,-0.024000000000
24.698681026000,0.004000000000
24.706367938000,0.019000000000
24.714054850000,0.046000000000
24.721741762000,0.088000000000
24.729428674000,0.127000000000
24.737115586000,0.166000000000
24.744802498000,0.208000000000
24.752489410000,0.247000000000
24.760176322000,0.281000000000
24.767863234000,0.306000000000
24.775550146000,0.315000000000
24.783237058000,0.313000000000
24.790923970000,0.313000000000
24.798610882000,0.298000000000
24.806297794000,0.276000000000
24.813984706000,0.254000000000
24.821671618000,0.200000000000
24.829358530000,0.120000000000
24.837045442000,0.039000000000
24.844732354000,-0.048000000000
24.852419330000,-0.142000000000
24.860106242000,-0.215000000000
24.867793154000,-0.271000000000
24.875480066000,-0.303000000000
24.883166978000,-0.308000000000
24.890853890000,-0.301000000000
24.898540802000,-0.306000000000
24.906227714000,-0.303000000000
24.913914626000,-0.284000000000
24.921601538000,-0.267000000000
24.929288450000,-0.262000000000
24.936975362000,-0.252000000000
24.944662274000,-0.235000000000
24.952349186000,-0.220000000000
24.960036098000,-0.210000000000
24.967723010000,-0.205000000000
24.975409922000,-0.198000000000
24.983096834000,-0.193000000000
24.990783746000,-0.193000000000
24.998470658000,-0.191000000000
25.006157570000,-0.186000000000
25.013844482000,-0.183000000000
25.021531394000,-0.183000000000
25.029218306000,-0.186000000000
25.036905218000,-0.183000000000
25.044592130000,-0.181000000000
25.052279042000,-0.183000000000
25.059965954000,-0.183000000000
25.067652866000,-0.176000000000
25.075339778000,-0.171000000000
25.083026690000,-0.171000000000
25.090713602000,-0.166000000000
25.098400514000,-0.166000000000
25.106087426000,-0.164000000000
25.113774338000,-0.161000000000
25.121461250000,-0.144000000000
25.129148162000,-0.120000000000
25.136835074000,-0.102000000000
25.144521986000,-0.097000000000
25.152208898000,-0.095000000000
25.159895810000,-0.102000000000
25.167582722000,-0.132000000000
25.175269634000,-0.159000000000
25.182956546000,-0.156000000000
25.190643458000,-0.144000000000
25.198330370000,-0.144000000000
25.206017282000,-0.139000000000
25.213704194000,-0.134000000000
25.221391106000,-0.132000000000
25.229078018000,-0.129000000000
25.236764930000,-0.127000000000
25.244451842000,-0.139000000000
25.252138754000,-0.176000000000
25.259825666000,-0.254000000000
25.267512578000,-0.259000000000
25.275199490000,0.122000000000
25.282886402000,0.962000000000
25.290573314000,1.805000000000
25.298260226000,1.971000000000
25.305947138000,0.903000000000
25.313634050000,-0.499000000000
25.321320962000,-0.622000000000
25.329007874000,-0.115000000000
25.336694786000,-0.166000000000
25.344381698000,-0.274000000000
25.352068610000,-0.146000000000
25.359755522000,-0.137000000000
25.367442434000,-0.178000000000
25.375129346000,-0.127000000000
25.382816258000,-0.093000000000
25.390503170000,-0.093000000000
25.398190082000,-0.066000000000
25.405876994000,-0.031000000000
25.413563966000,-0.012000000000
25.421251087000,0.014000000000
25.428938208000,0.048000000000
25.436625329000,0.080000000000
25.444312450000,0.115000000000
25.451999571000,0.154000000000
25.459686692000,0.193000000000
25.467373813000,0.225000000000
25.475060934000,0.254000000000
25.482748055000,0.274000000000
25.490435176000,0.279000000000
25.498122297000,0.274000000000
25.505809418000,0.262000000000
25.513496539000,0.242000000000
25.521183660000,0.213000000000
25.528870781000,0.169000000000
25.536557902000,0.107000000000
25.544245023000,0.031000000000
25.551932144000,-0.053000000000
25.559619265000,-0.142000000000
25.567306386000,-0.218000000000
25.574993507000,-0.271000000000
25.582680628000,-0.301000000000
25.590367749000,-0.315000000000
25.598054870000,-0.315000000000
25.605741991000,-0.313000000000
25.613429112000,-0.303000000000
25.621116233000,-0.293000000000
25.628803354000,-0.279000000000
25.636490475000,-0.267000000000
25.644177596000,-0.252000000000
25.651864717000,-0.240000000000
25.659551838000,-0.227000000000
25.667238959000,-0.218000000000
25.674926080000,-0.210000000000
25.682613201000,-0.205000000000
25.690300322000,-0.200000000000
25.697987443000,-0.198000000000
25.705674564000,-0.195000000000
25.713361685000,-0.193000000000
25.721048806000,-0.193000000000
25.728735927000,-0.193000000000
25.736423048000,-0.191000000000
25.744110169000,-0.188000000000
25.751797290000,-0.191000000000
25.759484411000,-0.191000000000
25.767171532000,-0.188000000000
25.774858653000,-0.186000000000
25.782545774000,-0.181000000000
25.790232895000,-0.178000000000
25.797920016000,-0.173000000000
25.805607137000,-0.171000000000
25.813294258000,-0.169000000000
25.820981379000,-0.166000000000
25.828668500000,-0.166000000000
25.836355621000,-0.164000000000
25.844042742000,-0.149000000000
25.851729863000,-0.122000000000
25.859416984000,-0.105000000000
25.867104105000,-0.100000000000
25.874791226000,-0.097000000000
25.882478347000,-0.097000000000
25.890165468000,-0.124000000000
25.897852589000,-0.151000000000
25.905539710000,-0.151000000000
25.913226831000,-0.142000000000
25.920913952000,-0.139000000000
25.928601073000,-0.134000000000
25.936288194000,-0.132000000000
25.943975315000,-0.127000000000
25.951662436000,-0.124000000000
25.959349557000,-0.122000000000
25.967036678000,-0.134000000000
25.974723863000,-0.171000000000
25.982410984000,-0.247000000000
25.990098105000,-0.244000000000
25.997785226000,0.132000000000
26.005472347000,0.952000000000
26.013159468000,1.829000000000
26.020846589000,2.091000000000
26.028533710000,1.043000000000
26.036220831000,-0.455000000000
26.043907952000,-0.641000000000
26.051595073000,-0.097000000000
26.059282194000,-0.144000000000
26.066969315000,-0.296000000000
26.074656436000,-0.171000000000
26.082343557000,-0.142000000000
26.090030678000,-0.191000000000
26.097717799000,-0.144000000000
26.105404920000,-0.102000000000
26.113092041000,-0.102000000000
26.120779162000,-0.078000000000
26.128466283000,-0.041000000000
26.136153404000,-0.022000000000
26.143840525000,0.004000000000
26.151527646000,0.039000000000
26.159214767000,0.073000000000
26.166901888000,0.107000000000
26.174589009000,0.146000000000
26.182276130000,0.186000000000
26.189963251000,0.220000000000
26.197650372000,0.254000000000
26.205337493000,0.274000000000
26.213024614000,0.281000000000
26.220711735000,0.281000000000
26.228398856000,0.271000000000
26.236085977000,0.254000000000
26.243773098000,0.230000000000
26.251460219000,0.191000000000
26.259147340000,0.132000000000
26.266834461000,0.056000000000
26.274521582000,-0.026000000000
26.282208703000,-0.115000000000
26.289895824000,-0.195000000000
26.297582945000,-0.254000000000
26.305270066000,-0.289000000000
26.312957187000,-0.306000000000
26.320644308000,-0.311000000000
26.328331429000,-0.308000000000
26.336018550000,-0.298000000000
26.343705671000,-0.284000000000
26.351392792000,-0.274000000000
26.359079913000,-0.259000000000
26.366767034000,-0.247000000000
26.374454155000,-0.237000000000
26.382141276000,-0.225000000000
26.389828397000,-0.215000000000
26.397515518000,-0.208000000000
26.405202639000,-0.200000000000
26.412889760000,-0.198000000000
26.420576881000,-0.195000000000
26.428264002000,-0.193000000000
26.435951123000,-0.193000000000
26.443638244000,-0.193000000000
26.451325365000,-0.191000000000
26.459012486000,-0.191000000000
26.466699607000,-0.191000000000
26.474386728000,-0.188000000000
26.482073849000,-0.186000000000
26.489760970000,-0.186000000000
26.497448091000,-0.183000000000
26.505135212000,-0.178000000000
26.512822333000,-0.173000000000
26.520509454000,-0.169000000000
26.528196575000,-0.166000000000
26.535883760000,-0.164000000000
26.543570881000,-0.166000000000
26.551258002000,-0.161000000000
26.558945123000,-0.142000000000
26.566632244000,-0.115000000000
26.574319365000,-0.100000000000
26.582006486000,-0.097000000000
26.589693607000,-0.095000000000
26.597380728000,-0.100000000000
26.605067849000,-0.129000000000
26.612754970000,-0.156000000000
26.620442091000,-0.149000000000
26.628129212000,-0.137000000000
26.635816333000,-0.137000000000
26.643503454000,-0.134000000000
26.651190575000,-0.127000000000
26.658877696000,-0.124000000000
26.666564817000,-0.122000000000
26.674251938000,-0.120000000000
26.681939059000,-0.132000000000
26.689626180000,-0.173000000000
26.697313301000,-0.257000000000
26.705000422000,-0.240000000000
26.712687543000,0.171000000000
26.720374664000,1.006000000000
26.728061785000,1.869000000000
26.735748906000,2.079000000000
26.743436027000,0.970000000000
26.751123148000,-0.502000000000
26.758810269000,-0.612000000000
26.766497390000,-0.078000000000
26.774184511000,-0.149000000000
26.781871632000,-0.286000000000
26.789558753000,-0.159000000000
26.797245874000,-0.139000000000
26.804932995000,-0.183000000000
26.812620116000,-0.132000000000
26.820307237000,-0.093000000000
26.827994358000,-0.093000000000
26.835681479000,-0.066000000000
26.843368600000,-0.031000000000
26.851055721000,-0.012000000000
26.858742842000,0.014000000000
26.866429963000,0.044000000000
26.874117084000,0.078000000000
26.881804205000,0.122000000000
26.889491326000,0.164000000000
26.897178447000,0.200000000000
26.904865568000,0.237000000000
26.912552689000,0.271000000000
26.920239810000,0.291000000000
26.927926931000,0.301000000000
26.935614052000,0.298000000000
26.943301173000,0.284000000000
26.950988294000,0.264000000000
26.958675415000,0.242000000000
26.966362536000,0.203000000000
26.974049657000,0.139000000000
26.981736778000,0.061000000000
26.989423899000,-0.022000000000
26.997111020000,-0.112000000000
27.004798141000,-0.200000000000
27.012485262000,-0.259000000000
27.020172383000,-0.289000000000
27.027859504000,-0.293000000000
27.035546625000,-0.298000000000
27.043233746000,-0.303000000000
27.050920867000,-0.298000000000
27.058607988000,-0.281000000000
27.066295109000,-0.267000000000
27.073982230000,-0.257000000000
27.081669351000,-0.242000000000
27.089356472000,-0.230000000000
27.097043661000,-0.225000000000
27.104730504000,-0.213000000000
27.112417347000,-0.203000000000
27.120104190000,-0.195000000000
27.127791033000,-0.191000000000
27.135477876000,-0.191000000000
27.143164719000,-0.188000000000
27.150851562000,-0.191000000000
27.158538405000,-0.191000000000
27.166225248000,-0.186000000000
27.173912091000,-0.188000000000
27.181598934000,-0.193000000000
27.189285777000,-0.188000000000
27.196972620000,-0.178000000000
27.204659463000,-0.171000000000
27.212346306000,-0.171000000000
27.220033149000,-0.173000000000
27.227719992000,-0.169000000000
27.235406835000,-0.166000000000
27.243093678000,-0.176000000000
27.250780521000,-0.173000000000
27.258467364000,-0.144000000000
27.266154207000,-0.115000000000
27.273841050000,-0.102000000000
27.281527893000,-0.100000000000
27.289214736000,-0.097000000000
27.296901579000,-0.105000000000
27.304588422000,-0.142000000000
27.312275265000,-0.169000000000
27.319962108000,-0.156000000000
27.327648951000,-0.142000000000
27.335335794000,-0.134000000000
27.343022637000,-0.132000000000
27.350709480000,-0.134000000000
27.358396323000,-0.129000000000
27.366083166000,-0.120000000000
27.373770009000,-0.124000000000
27.381456852000,-0.146000000000
27.389143695000,-0.193000000000
27.396830538000,-0.271000000000
27.404517381000,-0.186000000000
27.412204224000,0.379000000000
27.419891067000,1.298000000000
27.427577910000,2.008000000000
27.435264753000,1.780000000000
27.442951596000,0.374000000000
27.450638439000,-0.707000000000
27.458325282000,-0.413000000000
27.466012125000,-0.056000000000
27.473698968000,-0.237000000000
27.481385811000,-0.235000000000
27.489072654000,-0.105000000000
27.496759497000,-0.139000000000
27.504446340000,-0.151000000000
27.512133183000,-0.093000000000
27.519820026000,-0.078000000000
27.527506869000,-0.075000000000
27.535193712000,-0.034000000000
27.542880555000,0.000000000000
27.550567398000,0.017000000000
27.558254241000,0.044000000000
27.565941084000,0.085000000000
27.573627927000,0.127000000000
27.581314770000,0.169000000000
27.589001613000,0.208000000000
27.596688456000,0.237000000000
27.604375299000,0.269000000000
27.612062142000,0.303000000000
27.619748985000,0.320000000000
27.627435828000,0.320000000000
27.635122671000,0.318000000000
27.642809514000,0.303000000000
27.650496357000,0.279000000000
27.658183214000,0.249000000000
27.665870196000,0.193000000000
27.673557178000,0.112000000000
27.681244160000,0.029000000000
27.688931142000,-0.063000000000
27.696618124000,-0.161000000000
27.704305106000,-0.240000000000
27.711992088000,-0.284000000000
27.719679070000,-0.308000000000
27.727366052000,-0.315000000000
27.735053034000,-0.308000000000
27.742740016000,-0.308000000000
27.750426998000,-0.306000000000
27.758113980000,-0.291000000000
27.765800962000,-0.276000000000
27.773487944000,-0.271000000000
27.781174926000,-0.254000000000
27.788861908000,-0.230000000000
27.796548890000,-0.220000000000
27.804235872000,-0.210000000000
27.811922854000,-0.203000000000
27.819609836000,-0.205000000000
27.827296818000,-0.208000000000
27.834983800000,-0.203000000000
27.842670782000,-0.195000000000
27.850357764000,-0.193000000000
27.858044746000,-0.191000000000
27.865731728000,-0.186000000000
27.873418710000,-0.183000000000
27.881105692000,-0.188000000000
27.888792674000,-0.188000000000
27.896479656000,-0.183000000000
27.904166638000,-0.183000000000
27.911853620000,-0.183000000000
27.919540602000,-0.181000000000
27.927227584000,-0.183000000000
27.934914566000,-0.171000000000
27.942601548000,-0.146000000000
27.950288530000,-0.134000000000
27.957975512000,-0.127000000000
27.965662494000,-0.110000000000
27.973349476000,-0.107000000000
27.981036458000,-0.142000000000
27.988723440000,-0.164000000000
27.996410422000,-0.156000000000
28.004097404000,-0.146000000000
28.011784386000,-0.146000000000
28.019471368000,-0.149000000000
28.027158350000,-0.144000000000
28.034845332000,-0.134000000000
28.042532314000,-0.134000000000
28.050219296000,-0.137000000000
28.057906278000,-0.149000000000
28.065593260000,-0.200000000000
28.073280242000,-0.279000000000
28.080967224000,-0.178000000000
28.088654206000,0.401000000000
28.096341188000,1.303000000000
28.104028170000,1.954000000000
28.111715152000,1.653000000000
28.119402134000,0.257000000000
28.127089116000,-0.727000000000
28.134776098000,-0.394000000000
28.142463080000,-0.068000000000
28.150150062000,-0.244000000000
28.157837044000,-0.222000000000
28.165524026000,-0.110000000000
28.173211008000,-0.159000000000
28.180897990000,-0.161000000000
28.188584972000,-0.097000000000
28.196271954000,-0.088000000000
28.203958936000,-0.080000000000
28.211645918000,-0.041000000000
28.219332937000,-0.014000000000
28.227020058000,0.002000000000
28.234707179000,0.036000000000
28.242394300000,0.073000000000
28.250081421000,0.105000000000
28.257768542000,0.142000000000
28.265455663000,0.181000000000
28.273142784000,0.215000000000
28.280829905000,0.249000000000
28.288517026000,0.276000000000
28.296204147000,0.286000000000
28.303891268000,0.284000000000
28.311578389000,0.274000000000
28.319265510000,0.257000000000
28.326952631000,0.232000000000
28.334639752000,0.198000000000
28.342326873000,0.142000000000
28.350013994000,0.068000000000
28.357701115000,-0.014000000000
28.365388236000,-0.102000000000
28.373075357000,-0.188000000000
28.380762478000,-0.257000000000
28.388449599000,-0.298000000000
28.396136720000,-0.315000000000
28.403823841000,-0.323000000000
28.411510962000,-0.320000000000
28.419198083000,-0.313000000000
28.426885204000,-0.303000000000
28.434572325000,-0.291000000000
28.442259446000,-0.276000000000
28.449946567000,-0.264000000000
28.457633688000,-0.249000000000
28.465320809000,-0.235000000000
28.473007930000,-0.222000000000
28.480695051000,-0.215000000000
28.488382172000,-0.210000000000
28.496069293000,-0.203000000000
28.503756414000,-0.200000000000
28.511443535000,-0.200000000000
28.519130656000,-0.198000000000
28.526817777000,-0.193000000000
28.534504898000,-0.193000000000
28.542192019000,-0.195000000000
28.549879140000,-0.193000000000
28.557566261000,-0.193000000000
28.565253382000,-0.193000000000
28.572940503000,-0.191000000000
28.580627624000,-0.188000000000
28.588314745000,-0.183000000000
28.596001866000,-0.181000000000
28.603688987000,-0.181000000000
28.611376108000,-0.188000000000
28.619063229000,-0.188000000000
28.626750350000,-0.176000000000
28.634437471000,-0.154000000000
28.642124592000,-0.142000000000
28.649811713000,-0.134000000000
28.657498834000,-0.117000000000
28.665185955000,-0.107000000000
28.672873076000,-0.122000000000
28.680560197000,-0.154000000000
28.688247318000,-0.164000000000
28.695934439000,-0.151000000000
28.703621560000,-0.146000000000
28.711308681000,-0.144000000000
28.718995802000,-0.139000000000
28.726682923000,-0.134000000000
28.734370044000,-0.129000000000
28.742057165000,-0.127000000000
28.749744286000,-0.139000000000
28.757431407000,-0.181000000000
28.765118528000,-0.267000000000
28.772805649000,-0.254000000000
28.780492834000,0.164000000000
28.788179886000,1.011000000000
28.795866938000,1.873000000000
28.803553990000,2.062000000000
28.811241042000,0.943000000000
28.818928094000,-0.514000000000
28.826615146000,-0.617000000000
28.834302198000,-0.085000000000
28.841989250000,-0.159000000000
28.849676302000,-0.298000000000
28.857363354000,-0.169000000000
28.865050406000,-0.146000000000
28.872737458000,-0.193000000000
28.880424510000,-0.144000000000
28.888111562000,-0.105000000000
28.895798614000,-0.105000000000
28.903485666000,-0.080000000000
28.911172718000,-0.041000000000
28.918859770000,-0.019000000000
28.926546822000,0.004000000000
28.934233874000,0.041000000000
28.941920926000,0.075000000000
28.949607978000,0.107000000000
28.957295030000,0.146000000000
28.964982082000,0.186000000000
28.972669134000,0.222000000000
28.980356186000,0.254000000000
28.988043238000,0.271000000000
28.995730290000,0.281000000000
29.003417342000,0.279000000000
29.011104394000,0.267000000000
29.018791446000,0.249000000000
29.026478498000,0.222000000000
29.034165550000,0.181000000000
29.041852602000,0.117000000000
29.049539654000,0.039000000000
29.057226706000,-0.046000000000
29.064913758000,-0.134000000000
29.072600810000,-0.210000000000
29.080287862000,-0.267000000000
29.087974914000,-0.298000000000
29.095661966000,-0.311000000000
29.103349018000,-0.313000000000
29.111036070000,-0.308000000000
29.118723122000,-0.298000000000
29.126410174000,-0.286000000000
29.134097226000,-0.271000000000
29.141784278000,-0.259000000000
29.149471330000,-0.247000000000
29.157158382000,-0.237000000000
29.164845434000,-0.225000000000
29.172532486000,-0.218000000000
29.180219538000,-0.210000000000
29.187906590000,-0.205000000000
29.195593642000,-0.200000000000
29.203280694000,-0.198000000000
29.210967746000,-0.198000000000
29.218654798000,-0.195000000000
29.226341850000,-0.195000000000
29.234028902000,-0.195000000000
29.241715954000,-0.193000000000
29.249403006000,-0.193000000000
29.257090058000,-0.193000000000
29.264777110000,-0.191000000000
29.272464162000,-0.188000000000
29.280151214000,-0.186000000000
29.287838266000,-0.183000000000
29.295525318000,-0.181000000000
29.303212370000,-0.186000000000
29.310899422000,-0.186000000000
29.318586474000,-0.178000000000
29.326273526000,-0.161000000000
29.333960578000,-0.139000000000
29.341647648000,-0.124000000000
