time,LSB
0.000000000000,-0.116000000000
0.007686285000,-0.124000000000
0.015372570000,-0.124000000000
0.023058855000,-0.121000000000
0.030745140000,-0.119000000000
0.038431425000,-0.119000000000
0.046117710000,-0.124000000000
0.053803995000,-0.124000000000
0.061490280000,-0.119000000000
0.069176565000,-0.114000000000
0.076862850000,-0.114000000000
0.084549135000,-0.114000000000
0.092235420000,-0.114000000000
0.099921705000,-0.111000000000
0.107607990000,-0.109000000000
0.115294275000,-0.109000000000
0.122980560000,-0.107000000000
0.130666845000,-0.102000000000
0.138353130000,-0.099000000000
0.146039415000,-0.097000000000
0.153725700000,-0.099000000000
0.161412045000,-0.097000000000
0.169098330000,-0.092000000000
0.176784615000,-0.092000000000
0.184470900000,-0.094000000000
0.192157185000,-0.094000000000
0.199843470000,-0.094000000000
0.207529755000,-0.099000000000
0.215216040000,-0.109000000000
0.222902325000,-0.114000000000
0.230588610000,-0.102000000000
0.238274895000,-0.082000000000
0.245961180000,-0.063000000000
0.253647465000,-0.055000000000
0.261333750000,-0.053000000000
0.269020035000,-0.051000000000
0.276706320000,-0.065000000000
0.284392605000,-0.085000000000
0.292078890000,-0.085000000000
0.299765175000,-0.082000000000
0.307451460000,-0.085000000000
0.315137745000,-0.082000000000
0.322824030000,-0.080000000000
0.330510315000,-0.090000000000
0.338196600000,-0.133000000000
0.345882885000,-0.128000000000
0.353569170000,0.199000000000
0.361255455000,0.861000000000
0.368941740000,1.182000000000
0.376628025000,0.557000000000
0.384314310000,-0.391000000000
0.392000595000,-0.576000000000
0.399686880000,-0.253000000000
0.407373165000,-0.204000000000
0.415059450000,-0.233000000000
0.422745735000,-0.116000000000
0.430432020000,-0.094000000000
0.438118305000,-0.136000000000
0.445804590000,-0.104000000000
0.453490875000,-0.077000000000
0.461177160000,-0.090000000000
0.468863445000,-0.082000000000
0.476549730000,-0.063000000000
0.484236015000,-0.058000000000
0.491922300000,-0.055000000000
0.499608585000,-0.046000000000
0.507294870000,-0.041000000000
0.514981155000,-0.034000000000
0.522667440000,-0.024000000000
0.530353725000,-0.017000000000
0.538040010000,-0.012000000000
0.545726295000,0.000000000000
0.553412580000,0.009000000000
0.561098865000,0.019000000000
0.568785150000,0.036000000000
0.576471435000,0.048000000000
0.584157720000,0.058000000000
0.591844005000,0.077000000000
0.599530290000,0.097000000000
0.607216575000,0.109000000000
0.614902860000,0.116000000000
0.622589145000,0.121000000000
0.630275430000,0.126000000000
0.637961715000,0.124000000000
0.645648000000,0.109000000000
0.653334285000,0.082000000000
0.661020570000,0.041000000000
0.668706855000,-0.014000000000
0.676393140000,-0.065000000000
0.684079425000,-0.102000000000
0.691765710000,-0.136000000000
0.699451995000,-0.163000000000
0.707138280000,-0.172000000000
0.714824565000,-0.175000000000
0.722510906000,-0.175000000000
0.730197609000,-0.170000000000
0.737884312000,-0.167000000000
0.745571015000,-0.163000000000
0.753257718000,-0.155000000000
0.760944421000,-0.148000000000
0.768631124000,-0.143000000000
0.776317827000,-0.138000000000
0.784004530000,-0.138000000000
0.791691233000,-0.136000000000
0.799377936000,-0.131000000000
0.807064639000,-0.131000000000
0.814751342000,-0.133000000000
0.822438045000,-0.128000000000
0.830124748000,-0.126000000000
0.837811451000,-0.128000000000
0.845498154000,-0.128000000000
0.853184857000,-0.126000000000
0.860871560000,-0.126000000000
0.868558263000,-0.126000000000
0.876244966000,-0.126000000000
0.883931669000,-0.124000000000
0.891618372000,-0.124000000000
0.899305075000,-0.121000000000
0.906991778000,-0.116000000000
0.914678481000,-0.116000000000
0.922365184000,-0.116000000000
0.930051887000,-0.114000000000
0.937738590000,-0.114000000000
0.945425293000,-0.111000000000
0.953111996000,-0.109000000000
0.960798699000,-0.109000000000
0.968485402000,-0.107000000000
0.976172105000,-0.104000000000
0.983858808000,-0.104000000000
0.991545511000,-0.104000000000
0.999232214000,-0.099000000000
1.006918917000,-0.099000000000
1.014605620000,-0.094000000000
1.022292323000,-0.094000000000
1.029979026000,-0.097000000000
1.037665729000,-0.094000000000
1.045352432000,-0.090000000000
1.053039135000,-0.090000000000
1.060725838000,-0.092000000000
1.068412541000,-0.090000000000
1.076099244000,-0.085000000000
1.083785947000,-0.085000000000
1.091472650000,-0.090000000000
1.099159353000,-0.090000000000
1.106846056000,-0.094000000000
1.114532759000,-0.107000000000
1.122219462000,-0.109000000000
1.129906165000,-0.097000000000
1.137592868000,-0.080000000000
1.145279571000,-0.060000000000
1.152966274000,-0.053000000000
1.160652977000,-0.055000000000
1.168339680000,-0.048000000000
1.176026383000,-0.053000000000
1.183713086000,-0.077000000000
1.191399789000,-0.087000000000
1.199086492000,-0.080000000000
1.206773195000,-0.082000000000
1.214459898000,-0.085000000000
1.222146601000,-0.077000000000
1.229833304000,-0.085000000000
1.237520007000,-0.124000000000
1.245206710000,-0.141000000000
1.252893413000,0.131000000000
1.260580116000,0.785000000000
1.268266819000,1.194000000000
1.275953522000,0.661000000000
1.283640285000,-0.335000000000
1.291326779000,-0.632000000000
1.299013273000,-0.301000000000
1.306699767000,-0.199000000000
1.314386261000,-0.243000000000
1.322072755000,-0.133000000000
1.329759249000,-0.092000000000
1.337445743000,-0.131000000000
1.345132237000,-0.107000000000
1.352818731000,-0.072000000000
1.360505225000,-0.075000000000
1.368191719000,-0.070000000000
1.375878213000,-0.058000000000
1.383564707000,-0.055000000000
1.391251201000,-0.051000000000
1.398937695000,-0.041000000000
1.406624189000,-0.036000000000
1.414310683000,-0.029000000000
1.421997177000,-0.019000000000
1.429683671000,-0.009000000000
1.437370165000,0.000000000000
1.445056659000,0.009000000000
1.452743153000,0.021000000000
1.460429647000,0.034000000000
1.468116141000,0.043000000000
1.475802635000,0.055000000000
1.483489129000,0.068000000000
1.491175623000,0.082000000000
1.498862117000,0.107000000000
1.506548611000,0.119000000000
1.514235105000,0.119000000000
1.521921599000,0.128000000000
1.529608093000,0.133000000000
1.537294587000,0.124000000000
1.544981081000,0.109000000000
1.552667575000,0.094000000000
1.560354069000,0.060000000000
1.568040563000,0.009000000000
1.575727057000,-0.036000000000
1.583413551000,-0.077000000000
1.591100045000,-0.124000000000
1.598786539000,-0.155000000000
1.606473033000,-0.163000000000
1.614159527000,-0.170000000000
1.621846021000,-0.180000000000
1.629532515000,-0.175000000000
1.637219009000,-0.160000000000
1.644905503000,-0.158000000000
1.652591997000,-0.153000000000
1.660278491000,-0.143000000000
1.667964985000,-0.138000000000
1.675651479000,-0.131000000000
1.683337973000,-0.126000000000
1.691024467000,-0.131000000000
1.698710961000,-0.131000000000
1.706397455000,-0.124000000000
1.714083949000,-0.121000000000
1.721770443000,-0.124000000000
1.729456937000,-0.126000000000
1.737143431000,-0.126000000000
1.744829925000,-0.126000000000
1.752516419000,-0.126000000000
1.760202913000,-0.124000000000
1.767889407000,-0.121000000000
1.775575901000,-0.126000000000
1.783262395000,-0.124000000000
1.790948889000,-0.116000000000
1.798635383000,-0.114000000000
1.806321877000,-0.116000000000
1.814008371000,-0.119000000000
1.821694865000,-0.119000000000
1.829381359000,-0.114000000000
1.837067853000,-0.114000000000
1.844754406000,-0.114000000000
1.852440482000,-0.109000000000
1.860126558000,-0.109000000000
1.867812634000,-0.107000000000
1.875498710000,-0.097000000000
1.883184786000,-0.102000000000
1.890870862000,-0.111000000000
1.898556938000,-0.109000000000
1.906243014000,-0.102000000000
1.913929090000,-0.092000000000
1.921615166000,-0.090000000000
1.929301242000,-0.094000000000
1.936987318000,-0.099000000000
1.944673394000,-0.102000000000
1.952359470000,-0.107000000000
1.960045546000,-0.104000000000
1.967731622000,-0.104000000000
1.975417698000,-0.094000000000
1.983103774000,-0.072000000000
1.990789850000,-0.063000000000
1.998475926000,-0.055000000000
2.006162002000,-0.043000000000
2.013848078000,-0.058000000000
2.021534154000,-0.090000000000
2.029220230000,-0.092000000000
2.036906306000,-0.085000000000
2.044592382000,-0.087000000000
2.052278458000,-0.090000000000
2.059964534000,-0.085000000000
2.067650610000,-0.085000000000
2.075336686000,-0.094000000000
2.083022762000,-0.070000000000
2.090708838000,0.197000000000
2.098394914000,0.793000000000
2.106080990000,1.082000000000
2.113767066000,0.406000000000
2.121453142000,-0.552000000000
2.129139218000,-0.698000000000
2.136825294000,-0.357000000000
2.144511370000,-0.291000000000
2.152197446000,-0.284000000000
2.159883522000,-0.119000000000
2.167569598000,-0.053000000000
2.175255674000,-0.090000000000
2.182941750000,-0.070000000000
2.190627826000,-0.034000000000
2.198313902000,-0.041000000000
2.205999978000,-0.046000000000
2.213686054000,-0.036000000000
2.221372130000,-0.026000000000
2.229058206000,-0.017000000000
2.236744282000,-0.007000000000
2.244430358000,0.000000000000
2.252116434000,0.009000000000
2.259802510000,0.021000000000
2.267488586000,0.029000000000
2.275174662000,0.036000000000
2.282860738000,0.041000000000
2.290546814000,0.053000000000
2.298232890000,0.065000000000
2.305918966000,0.072000000000
2.313605042000,0.094000000000
2.321291118000,0.126000000000
2.328977194000,0.141000000000
2.336663270000,0.155000000000
2.344349346000,0.167000000000
2.352035422000,0.170000000000
2.359721498000,0.170000000000
2.367407574000,0.170000000000
2.375093650000,0.167000000000
2.382779726000,0.153000000000
2.390465802000,0.111000000000
2.398151878000,0.051000000000
2.405838007000,-0.002000000000
2.413524292000,-0.058000000000
2.421210577000,-0.116000000000
2.428896862000,-0.158000000000
2.436583147000,-0.187000000000
2.444269432000,-0.204000000000
2.451955717000,-0.206000000000
2.459642002000,-0.199000000000
2.467328287000,-0.192000000000
2.475014572000,-0.187000000000
2.482700857000,-0.177000000000
2.490387142000,-0.165000000000
2.498073427000,-0.153000000000
2.505759712000,-0.143000000000
2.513445997000,-0.133000000000
2.521132282000,-0.131000000000
2.528818567000,-0.131000000000
2.536504852000,-0.121000000000
2.544191137000,-0.114000000000
2.551877422000,-0.124000000000
2.559563707000,-0.126000000000
2.567249992000,-0.116000000000
2.574936277000,-0.128000000000
2.582622562000,-0.145000000000
2.590308847000,-0.136000000000
2.597995132000,-0.126000000000
2.605681417000,-0.136000000000
2.613367702000,-0.143000000000
2.621053987000,-0.133000000000
2.628740272000,-0.128000000000
2.636426557000,-0.133000000000
2.644112842000,-0.128000000000
2.651799127000,-0.124000000000
2.659485412000,-0.133000000000
2.667171697000,-0.128000000000
2.674857982000,-0.116000000000
2.682544267000,-0.119000000000
2.690230552000,-0.121000000000
2.697916837000,-0.114000000000
2.705603122000,-0.114000000000
2.713289407000,-0.116000000000
2.720975692000,-0.111000000000
2.728661977000,-0.114000000000
2.736348262000,-0.124000000000
2.744034547000,-0.121000000000
2.751720832000,-0.114000000000
2.759407117000,-0.102000000000
2.767093402000,-0.085000000000
2.774779687000,-0.075000000000
2.782465972000,-0.070000000000
2.790152257000,-0.063000000000
2.797838542000,-0.072000000000
2.805524827000,-0.090000000000
2.813211112000,-0.094000000000
2.820897397000,-0.094000000000
2.828583682000,-0.099000000000
2.836269967000,-0.097000000000
2.843956252000,-0.090000000000
2.851642537000,-0.092000000000
2.859328822000,-0.114000000000
2.867015107000,-0.104000000000
2.874701392000,0.165000000000
2.882387677000,0.773000000000
2.890073962000,1.082000000000
2.897760247000,0.420000000000
2.905446532000,-0.552000000000
2.913132817000,-0.710000000000
2.920819102000,-0.357000000000
2.928505387000,-0.291000000000
2.936191672000,-0.289000000000
2.943877957000,-0.114000000000
2.951564242000,-0.053000000000
2.959250527000,-0.097000000000
2.966936868000,-0.070000000000
2.974623153000,-0.041000000000
2.982309438000,-0.051000000000
2.989995723000,-0.043000000000
2.997682008000,-0.029000000000
3.005368293000,-0.031000000000
3.013054578000,-0.021000000000
3.020740863000,-0.007000000000
3.028427148000,-0.004000000000
3.036113433000,0.002000000000
3.043799718000,0.009000000000
3.051486003000,0.017000000000
3.059172288000,0.031000000000
3.066858573000,0.038000000000
3.074544858000,0.043000000000
3.082231143000,0.060000000000
3.089917428000,0.080000000000
3.097603713000,0.092000000000
3.105289998000,0.109000000000
3.112976283000,0.128000000000
3.120662568000,0.148000000000
3.128348853000,0.165000000000
3.136035138000,0.172000000000
3.143721423000,0.177000000000
3.151407708000,0.177000000000
3.159093993000,0.175000000000
3.166780278000,0.153000000000
3.174466563000,0.109000000000
3.182152848000,0.048000000000
3.189839133000,-0.012000000000
3.197525418000,-0.065000000000
3.205211703000,-0.116000000000
3.212897988000,-0.160000000000
3.220584273000,-0.189000000000
3.228270558000,-0.201000000000
3.235956843000,-0.204000000000
3.243643128000,-0.204000000000
3.251329413000,-0.199000000000
3.259015698000,-0.192000000000
3.266701983000,-0.184000000000
3.274388268000,-0.170000000000
3.282074553000,-0.158000000000
3.289760838000,-0.153000000000
3.297447123000,-0.145000000000
3.305133408000,-0.136000000000
3.312819693000,-0.131000000000
3.320505978000,-0.128000000000
3.328192263000,-0.124000000000
3.335878548000,-0.124000000000
3.343564833000,-0.128000000000
3.351251118000,-0.126000000000
3.358937403000,-0.126000000000
3.366623688000,-0.131000000000
3.374309973000,-0.131000000000
3.381996258000,-0.131000000000
3.389682543000,-0.133000000000
3.397368828000,-0.131000000000
3.405055113000,-0.126000000000
3.412741398000,-0.124000000000
3.420427683000,-0.124000000000
3.428113968000,-0.124000000000
3.435800253000,-0.124000000000
3.443486538000,-0.119000000000
3.451172823000,-0.114000000000
3.458859108000,-0.114000000000
3.466545393000,-0.116000000000
3.474231678000,-0.116000000000
3.481917963000,-0.111000000000
3.489604248000,-0.109000000000
3.497290533000,-0.107000000000
3.504976818000,-0.109000000000
3.512663103000,-0.119000000000
3.520349388000,-0.128000000000
3.528035729000,-0.126000000000
3.535722084000,-0.114000000000
3.543408439000,-0.092000000000
3.551094794000,-0.072000000000
3.558781149000,-0.068000000000
3.566467504000,-0.068000000000
3.574153859000,-0.068000000000
3.581840214000,-0.085000000000
3.589526569000,-0.099000000000
3.597212924000,-0.097000000000
3.604899279000,-0.097000000000
3.612585634000,-0.094000000000
3.620271989000,-0.092000000000
3.627958344000,-0.092000000000
3.635644699000,-0.111000000000
3.643331054000,-0.165000000000
3.651017409000,-0.094000000000
3.658703764000,0.369000000000
3.666390119000,1.024000000000
3.674076474000,1.087000000000
3.681762829000,0.238000000000
3.689449184000,-0.571000000000
3.697135539000,-0.501000000000
3.704821894000,-0.197000000000
3.712508249000,-0.226000000000
3.720194604000,-0.209000000000
3.727880959000,-0.099000000000
3.735567314000,-0.116000000000
3.743253669000,-0.136000000000
3.750940024000,-0.092000000000
3.758626379000,-0.080000000000
3.766312734000,-0.090000000000
3.773999089000,-0.077000000000
3.781685444000,-0.065000000000
3.789371799000,-0.063000000000
3.797058154000,-0.048000000000
3.804744509000,-0.041000000000
3.812430864000,-0.041000000000
3.820117219000,-0.034000000000
3.827803574000,-0.024000000000
3.835489929000,-0.019000000000
3.843176284000,-0.012000000000
3.850862639000,0.000000000000
3.858548994000,0.012000000000
3.866235349000,0.024000000000
3.873921704000,0.041000000000
3.881608059000,0.058000000000
3.889294414000,0.077000000000
3.896980769000,0.099000000000
3.904667124000,0.111000000000
3.912353479000,0.119000000000
3.920039834000,0.128000000000
3.927726189000,0.141000000000
3.935412544000,0.143000000000
3.943098899000,0.128000000000
3.950785254000,0.102000000000
3.958471609000,0.065000000000
3.966157964000,0.009000000000
3.973844319000,-0.041000000000
3.981530674000,-0.082000000000
3.989217029000,-0.124000000000
3.996903384000,-0.153000000000
4.004589739000,-0.170000000000
4.012276094000,-0.180000000000
4.019962449000,-0.180000000000
4.027648804000,-0.172000000000
4.035335159000,-0.167000000000
4.043021514000,-0.160000000000
4.050707869000,-0.153000000000
4.058394224000,-0.153000000000
4.066080579000,-0.148000000000
4.073766934000,-0.141000000000
4.081453289000,-0.136000000000
4.089139681000,-0.136000000000
4.096825897000,-0.138000000000
4.104512113000,-0.133000000000
4.112198329000,-0.128000000000
4.119884545000,-0.131000000000
4.127570761000,-0.126000000000
4.135256977000,-0.121000000000
4.142943193000,-0.126000000000
4.150629409000,-0.131000000000
4.158315625000,-0.126000000000
4.166001841000,-0.128000000000
4.173688057000,-0.131000000000
4.181374273000,-0.126000000000
4.189060489000,-0.126000000000
4.196746705000,-0.119000000000
4.204432921000,-0.109000000000
4.212119137000,-0.119000000000
4.219805353000,-0.119000000000
4.227491569000,-0.109000000000
4.235177785000,-0.109000000000
4.242864001000,-0.114000000000
4.250550217000,-0.116000000000
4.258236433000,-0.121000000000
4.265922649000,-0.121000000000
4.273608865000,-0.121000000000
4.281295081000,-0.111000000000
4.288981297000,-0.087000000000
4.296667513000,-0.068000000000
4.304353729000,-0.072000000000
4.312039945000,-0.070000000000
4.319726161000,-0.063000000000
4.327412377000,-0.080000000000
4.335098593000,-0.097000000000
4.342784809000,-0.092000000000
4.350471025000,-0.092000000000
4.358157241000,-0.097000000000
4.365843457000,-0.087000000000
4.373529673000,-0.090000000000
4.381215889000,-0.107000000000
4.388902105000,-0.128000000000
4.396588321000,-0.080000000000
4.404274537000,0.301000000000
4.411960753000,0.963000000000
4.419646969000,1.092000000000
4.427333185000,0.243000000000
4.435019401000,-0.625000000000
4.442705617000,-0.591000000000
4.450391833000,-0.270000000000
4.458078049000,-0.265000000000
4.465764265000,-0.226000000000
4.473450481000,-0.094000000000
4.481136697000,-0.094000000000
4.488822913000,-0.111000000000
4.496509129000,-0.070000000000
4.504195345000,-0.058000000000
4.511881561000,-0.065000000000
4.519567777000,-0.053000000000
4.527253993000,-0.041000000000
4.534940209000,-0.038000000000
4.542626425000,-0.031000000000
4.550312641000,-0.024000000000
4.557998857000,-0.019000000000
4.565685073000,-0.004000000000
4.573371289000,0.009000000000
4.581057505000,0.014000000000
4.588743721000,0.019000000000
4.596429937000,0.031000000000
4.604116153000,0.055000000000
4.611802369000,0.070000000000
4.619488585000,0.075000000000
4.627174801000,0.094000000000
4.634861017000,0.128000000000
4.642547233000,0.150000000000
4.650233455000,0.160000000000
4.657919949000,0.172000000000
4.665606443000,0.187000000000
4.673292937000,0.194000000000
4.680979431000,0.184000000000
4.688665925000,0.163000000000
4.696352419000,0.133000000000
4.704038913000,0.085000000000
4.711725407000,0.021000000000
4.719411901000,-0.043000000000
4.727098395000,-0.102000000000
4.734784889000,-0.148000000000
4.742471383000,-0.180000000000
4.750157877000,-0.201000000000
4.757844371000,-0.206000000000
4.765530865000,-0.197000000000
4.773217359000,-0.192000000000
4.780903853000,-0.197000000000
4.788590347000,-0.194000000000
4.796276841000,-0.180000000000
4.803963335000,-0.165000000000
4.811649829000,-0.150000000000
4.819336323000,-0.136000000000
4.827022817000,-0.136000000000
4.834709311000,-0.141000000000
4.842395805000,-0.131000000000
4.850082299000,-0.126000000000
4.857768793000,-0.131000000000
4.865455287000,-0.124000000000
4.873141781000,-0.116000000000
4.880828275000,-0.126000000000
4.888514769000,-0.136000000000
4.896201263000,-0.133000000000
4.903887757000,-0.128000000000
4.911574251000,-0.128000000000
4.919260745000,-0.128000000000
4.926947239000,-0.126000000000
4.934633733000,-0.124000000000
4.942320227000,-0.128000000000
4.950006721000,-0.126000000000
4.957693215000,-0.116000000000
4.965379709000,-0.124000000000
4.973066203000,-0.141000000000
4.980752697000,-0.138000000000
4.988439191000,-0.133000000000
4.996125685000,-0.131000000000
5.003812179000,-0.111000000000
5.011498673000,-0.087000000000
5.019185167000,-0.075000000000
5.026871661000,-0.075000000000
5.034558155000,-0.082000000000
5.042244649000,-0.102000000000
5.049931143000,-0.109000000000
5.057617637000,-0.102000000000
5.065304131000,-0.107000000000
5.072990625000,-0.109000000000
5.080677119000,-0.094000000000
5.088363613000,-0.094000000000
5.096050107000,-0.109000000000
5.103736601000,-0.133000000000
5.111423095000,-0.077000000000
5.119109589000,0.301000000000
5.126796083000,0.931000000000
5.134482577000,1.026000000000
5.142169071000,0.158000000000
5.149855565000,-0.693000000000
5.157542059000,-0.622000000000
5.165228553000,-0.294000000000
5.172915047000,-0.294000000000
5.180601541000,-0.243000000000
5.188288035000,-0.087000000000
5.195974529000,-0.077000000000
5.203661023000,-0.107000000000
5.211347577000,-0.070000000000
5.219033932000,-0.053000000000
5.226720287000,-0.063000000000
5.234406642000,-0.048000000000
5.242092997000,-0.034000000000
5.249779352000,-0.036000000000
5.257465707000,-0.031000000000
5.265152062000,-0.017000000000
5.272838417000,-0.009000000000
5.280524772000,-0.007000000000
5.288211127000,0.002000000000
5.295897482000,0.021000000000
5.303583837000,0.031000000000
5.311270192000,0.034000000000
5.318956547000,0.046000000000
5.326642902000,0.070000000000
5.334329257000,0.094000000000
5.342015612000,0.111000000000
5.349701967000,0.131000000000
5.357388322000,0.153000000000
5.365074677000,0.175000000000
5.372761032000,0.187000000000
5.380447387000,0.192000000000
5.388133742000,0.192000000000
5.395820097000,0.187000000000
5.403506452000,0.175000000000
5.411192807000,0.138000000000
5.418879162000,0.077000000000
5.426565517000,0.012000000000
5.434251872000,-0.051000000000
5.441938227000,-0.104000000000
5.449624582000,-0.153000000000
5.457310937000,-0.187000000000
5.464997292000,-0.201000000000
5.472683647000,-0.209000000000
5.480370002000,-0.209000000000
5.488056357000,-0.204000000000
5.495742712000,-0.194000000000
5.503429067000,-0.187000000000
5.511115422000,-0.180000000000
5.518801777000,-0.172000000000
5.526488132000,-0.158000000000
5.534174487000,-0.145000000000
5.541860842000,-0.141000000000
5.549547197000,-0.133000000000
5.557233552000,-0.126000000000
5.564919907000,-0.124000000000
5.572606262000,-0.126000000000
5.580292617000,-0.126000000000
5.587978972000,-0.128000000000
5.595665327000,-0.131000000000
5.603351682000,-0.133000000000
5.611038037000,-0.131000000000
5.618724392000,-0.131000000000
5.626410747000,-0.131000000000
5.634097102000,-0.131000000000
5.641783457000,-0.131000000000
5.649469812000,-0.128000000000
5.657156167000,-0.131000000000
5.664842522000,-0.131000000000
5.672528877000,-0.131000000000
5.680215232000,-0.138000000000
5.687901587000,-0.143000000000
5.695587942000,-0.138000000000
5.703274297000,-0.138000000000
5.710960652000,-0.136000000000
5.718647007000,-0.109000000000
5.726333362000,-0.087000000000
5.734019717000,-0.085000000000
5.741706072000,-0.080000000000
5.749392427000,-0.085000000000
5.757078782000,-0.109000000000
5.764765137000,-0.116000000000
5.772451525000,-0.109000000000
5.780137950000,-0.109000000000
5.787824375000,-0.109000000000
5.795510800000,-0.104000000000
5.803197225000,-0.109000000000
5.810883650000,-0.131000000000
5.818570075000,-0.165000000000
5.826256500000,-0.007000000000
5.833942925000,0.569000000000
5.841629350000,1.136000000000
5.849315775000,0.861000000000
5.857002200000,-0.150000000000
5.864688625000,-0.703000000000
5.872375050000,-0.430000000000
5.880061475000,-0.223000000000
5.887747900000,-0.279000000000
5.895434325000,-0.187000000000
5.903120750000,-0.090000000000
5.910807175000,-0.126000000000
5.918493600000,-0.124000000000
5.926180025000,-0.082000000000
5.933866450000,-0.085000000000
5.941552875000,-0.087000000000
5.949239300000,-0.068000000000
5.956925725000,-0.063000000000
5.964612150000,-0.063000000000
5.972298575000,-0.051000000000
5.979985000000,-0.041000000000
5.987671425000,-0.036000000000
5.995357850000,-0.029000000000
6.003044275000,-0.017000000000
6.010730700000,-0.007000000000
6.018417125000,0.002000000000
6.026103550000,0.012000000000
6.033789975000,0.019000000000
6.041476400000,0.034000000000
6.049162825000,0.060000000000
6.056849250000,0.082000000000
6.064535675000,0.097000000000
6.072222100000,0.121000000000
6.079908525000,0.141000000000
6.087594950000,0.148000000000
6.095281375000,0.158000000000
6.102967800000,0.167000000000
6.110654225000,0.165000000000
6.118340650000,0.143000000000
6.126027075000,0.099000000000
6.133713500000,0.036000000000
6.141399925000,-0.026000000000
6.149086350000,-0.077000000000
6.156772775000,-0.124000000000
6.164459200000,-0.163000000000
6.172145625000,-0.187000000000
6.179832050000,-0.194000000000
6.187518475000,-0.194000000000
6.195204900000,-0.194000000000
6.202891325000,-0.192000000000
6.210577750000,-0.180000000000
6.218264175000,-0.170000000000
6.225950600000,-0.170000000000
6.233637025000,-0.165000000000
6.241323450000,-0.160000000000
6.249009875000,-0.153000000000
6.256696300000,-0.145000000000
6.264382725000,-0.143000000000
6.272069150000,-0.141000000000
6.279755575000,-0.138000000000
6.287442000000,-0.136000000000
6.295128425000,-0.136000000000
6.302814850000,-0.136000000000
6.310501275000,-0.136000000000
6.318187700000,-0.133000000000
6.325874125000,-0.133000000000
6.333560556000,-0.136000000000
6.341246841000,-0.136000000000
6.348933126000,-0.131000000000
6.356619411000,-0.131000000000
6.364305696000,-0.133000000000
6.371991981000,-0.138000000000
6.379678266000,-0.148000000000
6.387364551000,-0.150000000000
6.395050836000,-0.138000000000
6.402737121000,-0.114000000000
6.410423406000,-0.092000000000
6.418109691000,-0.087000000000
6.425795976000,-0.085000000000
6.433482261000,-0.085000000000
6.441168546000,-0.099000000000
6.448854831000,-0.116000000000
6.456541116000,-0.114000000000
6.464227401000,-0.114000000000
6.471913686000,-0.116000000000
6.479599971000,-0.111000000000
6.487286256000,-0.107000000000
6.494972541000,-0.114000000000
6.502658826000,-0.158000000000
6.510345111000,-0.170000000000
6.518031396000,0.121000000000
6.525717681000,0.785000000000
6.533403966000,1.189000000000
6.541090251000,0.649000000000
6.548776536000,-0.350000000000
6.556462821000,-0.627000000000
6.564149106000,-0.284000000000
6.571835391000,-0.201000000000
6.579521676000,-0.248000000000
6.587207961000,-0.136000000000
6.594894246000,-0.099000000000
6.602580531000,-0.143000000000
6.610266816000,-0.114000000000
6.617953101000,-0.082000000000
6.625639386000,-0.092000000000
6.633325671000,-0.090000000000
6.641011956000,-0.070000000000
6.648698241000,-0.063000000000
6.656384526000,-0.058000000000
6.664070811000,-0.053000000000
6.671757096000,-0.048000000000
6.679443381000,-0.038000000000
6.687129666000,-0.029000000000
6.694815951000,-0.021000000000
6.702502236000,-0.012000000000
6.710188521000,0.000000000000
6.717874806000,0.012000000000
6.725561091000,0.019000000000
6.733247376000,0.036000000000
6.740933661000,0.060000000000
6.748619946000,0.080000000000
6.756306231000,0.099000000000
6.763992516000,0.121000000000
6.771678801000,0.131000000000
6.779365086000,0.141000000000
6.787051371000,0.150000000000
6.794737656000,0.150000000000
6.802423941000,0.136000000000
6.810110226000,0.107000000000
6.817796511000,0.060000000000
6.825482796000,0.004000000000
6.833169081000,-0.051000000000
6.840855366000,-0.097000000000
6.848541651000,-0.133000000000
6.856227936000,-0.155000000000
6.863914221000,-0.167000000000
6.871600506000,-0.172000000000
6.879286791000,-0.170000000000
6.886973076000,-0.165000000000
6.894659417000,-0.160000000000
6.902346120000,-0.158000000000
6.910032823000,-0.153000000000
6.917719526000,-0.143000000000
6.925406229000,-0.138000000000
6.933092932000,-0.136000000000
6.940779635000,-0.133000000000
6.948466338000,-0.128000000000
6.956153041000,-0.128000000000
6.963839744000,-0.128000000000
6.971526447000,-0.121000000000
6.979213150000,-0.119000000000
6.986899853000,-0.121000000000
6.994586556000,-0.119000000000
7.002273259000,-0.116000000000
7.009959962000,-0.114000000000
7.017646665000,-0.114000000000
7.025333368000,-0.116000000000
7.033020071000,-0.119000000000
7.040706774000,-0.124000000000
7.048393477000,-0.131000000000
7.056080180000,-0.136000000000
7.063766883000,-0.131000000000
7.071453586000,-0.116000000000
7.079140289000,-0.092000000000
7.086826992000,-0.080000000000
7.094513695000,-0.075000000000
7.102200398000,-0.065000000000
7.109887101000,-0.075000000000
7.117573804000,-0.104000000000
7.125260507000,-0.111000000000
7.132947210000,-0.102000000000
7.140633913000,-0.099000000000
7.148320616000,-0.104000000000
7.156007319000,-0.102000000000
7.163694022000,-0.099000000000
7.171380725000,-0.119000000000
7.179067428000,-0.170000000000
7.186754131000,-0.065000000000
7.194440834000,0.447000000000
7.202127537000,1.087000000000
7.209814240000,1.034000000000
7.217500943000,0.107000000000
7.225187646000,-0.615000000000
7.232874349000,-0.452000000000
7.240561052000,-0.194000000000
7.248247755000,-0.245000000000
7.255934458000,-0.189000000000
7.263621161000,-0.094000000000
7.271307864000,-0.128000000000
7.278994567000,-0.138000000000
7.286681270000,-0.092000000000
7.294367973000,-0.092000000000
7.302054676000,-0.099000000000
7.309741379000,-0.075000000000
7.317428082000,-0.058000000000
7.325114785000,-0.053000000000
7.332801488000,-0.048000000000
7.340488191000,-0.046000000000
7.348174894000,-0.041000000000
7.355861597000,-0.026000000000
7.363548300000,-0.012000000000
7.371235003000,-0.004000000000
7.378921706000,0.000000000000
7.386608409000,0.014000000000
7.394295112000,0.029000000000
7.401981815000,0.038000000000
7.409668518000,0.055000000000
7.417355221000,0.075000000000
7.425041924000,0.092000000000
7.432728627000,0.107000000000
7.440415330000,0.119000000000
7.448102033000,0.128000000000
7.455788800000,0.131000000000
7.463475085000,0.133000000000
7.471161370000,0.133000000000
7.478847655000,0.114000000000
7.486533940000,0.065000000000
7.494220225000,0.004000000000
7.501906510000,-0.043000000000
7.509592795000,-0.092000000000
7.517279080000,-0.138000000000
7.524965365000,-0.167000000000
7.532651650000,-0.177000000000
7.540337935000,-0.184000000000
7.548024220000,-0.192000000000
7.555710505000,-0.189000000000
7.563396790000,-0.175000000000
7.571083075000,-0.160000000000
7.578769360000,-0.163000000000
7.586455645000,-0.170000000000
7.594141930000,-0.163000000000
7.601828215000,-0.148000000000
7.609514500000,-0.145000000000
7.617200785000,-0.150000000000
7.624887070000,-0.145000000000
7.632573355000,-0.136000000000
7.640259640000,-0.133000000000
7.647945925000,-0.143000000000
7.655632210000,-0.143000000000
7.663318495000,-0.131000000000
7.671004780000,-0.131000000000
7.678691065000,-0.143000000000
7.686377350000,-0.148000000000
7.694063635000,-0.136000000000
7.701749920000,-0.131000000000
7.709436205000,-0.136000000000
7.717122490000,-0.136000000000
7.724808775000,-0.128000000000
7.732495060000,-0.128000000000
7.740181345000,-0.128000000000
7.747867630000,-0.131000000000
7.755553915000,-0.145000000000
7.763240200000,-0.141000000000
7.770926485000,-0.128000000000
7.778612770000,-0.121000000000
7.786299055000,-0.104000000000
7.793985340000,-0.087000000000
7.801671625000,-0.077000000000
7.809357910000,-0.077000000000
7.817044195000,-0.094000000000
7.824730480000,-0.114000000000
7.832416765000,-0.114000000000
7.840103050000,-0.102000000000
7.847789335000,-0.102000000000
7.855475620000,-0.107000000000
7.863161905000,-0.104000000000
7.870848190000,-0.104000000000
7.878534475000,-0.124000000000
7.886220760000,-0.107000000000
7.893907045000,0.175000000000
7.901593330000,0.795000000000
7.909279615000,1.102000000000
7.916965900000,0.433000000000
7.924652185000,-0.547000000000
7.932338470000,-0.710000000000
7.940024755000,-0.355000000000
7.947711040000,-0.279000000000
7.955397325000,-0.274000000000
7.963083610000,-0.119000000000
7.970769895000,-0.075000000000
7.978456180000,-0.116000000000
7.986142465000,-0.082000000000
7.993828750000,-0.048000000000
8.001515035000,-0.058000000000
8.009201320000,-0.053000000000
8.016887661000,-0.034000000000
8.024573946000,-0.029000000000
8.032260231000,-0.026000000000
8.039946516000,-0.017000000000
8.047632801000,-0.007000000000
8.055319086000,0.002000000000
8.063005371000,0.009000000000
8.070691656000,0.021000000000
8.078377941000,0.036000000000
8.086064226000,0.043000000000
8.093750511000,0.053000000000
8.101436796000,0.068000000000
8.109123081000,0.075000000000
8.116809366000,0.087000000000
8.124495651000,0.119000000000
8.132181936000,0.145000000000
8.139868221000,0.153000000000
8.147554506000,0.155000000000
8.155240791000,0.160000000000
8.162927076000,0.163000000000
8.170613361000,0.163000000000
8.178299646000,0.153000000000
8.185985931000,0.124000000000
8.193672216000,0.077000000000
8.201358501000,0.021000000000
8.209044786000,-0.038000000000
8.216731071000,-0.092000000000
8.224417356000,-0.138000000000
8.232103641000,-0.170000000000
8.239789926000,-0.187000000000
8.247476211000,-0.194000000000
8.255162496000,-0.192000000000
8.262848781000,-0.184000000000
8.270535066000,-0.175000000000
8.278221351000,-0.165000000000
8.285907636000,-0.158000000000
8.293593921000,-0.145000000000
8.301280206000,-0.138000000000
8.308966491000,-0.136000000000
8.316652776000,-0.131000000000
8.324339061000,-0.128000000000
8.332025346000,-0.126000000000
8.339711631000,-0.124000000000
8.347397916000,-0.126000000000
8.355084201000,-0.128000000000
8.362770486000,-0.128000000000
8.370456771000,-0.126000000000
8.378143056000,-0.131000000000
8.385829341000,-0.136000000000
8.393515626000,-0.136000000000
8.401201911000,-0.133000000000
8.408888196000,-0.133000000000
8.416574481000,-0.128000000000
8.424260766000,-0.124000000000
8.431947051000,-0.121000000000
8.439633336000,-0.124000000000
8.447319621000,-0.126000000000
8.455005906000,-0.121000000000
8.462692191000,-0.116000000000
8.470378476000,-0.114000000000
8.478064761000,-0.116000000000
8.485751046000,-0.124000000000
8.493437331000,-0.128000000000
8.501123616000,-0.128000000000
8.508809901000,-0.119000000000
8.516496186000,-0.097000000000
8.524182471000,-0.080000000000
8.531868756000,-0.075000000000
8.539555041000,-0.065000000000
8.547241326000,-0.060000000000
8.554927611000,-0.082000000000
8.562613896000,-0.099000000000
8.570300181000,-0.092000000000
8.577986522000,-0.087000000000
8.585672807000,-0.094000000000
8.593359092000,-0.094000000000
8.601045377000,-0.087000000000
8.608731662000,-0.099000000000
8.616417947000,-0.148000000000
8.624104232000,-0.116000000000
8.631790517000,0.282000000000
8.639476802000,0.944000000000
8.647163087000,1.077000000000
8.654849372000,0.245000000000
8.662535657000,-0.627000000000
8.670221942000,-0.579000000000
8.677908227000,-0.233000000000
8.685594512000,-0.245000000000
8.693280797000,-0.228000000000
8.700967082000,-0.090000000000
8.708653367000,-0.085000000000
8.716339652000,-0.116000000000
8.724025937000,-0.080000000000
8.731712222000,-0.063000000000
8.739398507000,-0.070000000000
8.747084792000,-0.055000000000
8.754771077000,-0.046000000000
8.762457362000,-0.046000000000
8.770143647000,-0.038000000000
8.777829932000,-0.029000000000
8.785516217000,-0.024000000000
8.793202502000,-0.017000000000
8.800888787000,-0.004000000000
8.808575072000,-0.002000000000
8.816261357000,0.000000000000
8.823947642000,0.014000000000
8.831633927000,0.029000000000
8.839320212000,0.038000000000
8.847006497000,0.051000000000
8.854692782000,0.063000000000
8.862379067000,0.080000000000
8.870065352000,0.097000000000
8.877751637000,0.111000000000
8.885437922000,0.121000000000
8.893124207000,0.128000000000
8.900810492000,0.131000000000
8.908496777000,0.136000000000
8.916183062000,0.136000000000
8.923869347000,0.109000000000
8.931555632000,0.063000000000
8.939241917000,0.014000000000
8.946928202000,-0.036000000000
8.954614487000,-0.085000000000
8.962300772000,-0.119000000000
8.969987057000,-0.141000000000
8.977673342000,-0.155000000000
8.985359627000,-0.160000000000
8.993045912000,-0.163000000000
9.000732197000,-0.160000000000
9.008418482000,-0.153000000000
9.016104767000,-0.145000000000
9.023791052000,-0.143000000000
9.031477337000,-0.138000000000
9.039163622000,-0.131000000000
9.046849907000,-0.128000000000
9.054536192000,-0.128000000000
9.062222477000,-0.124000000000
9.069908762000,-0.121000000000
9.077595047000,-0.121000000000
9.085281332000,-0.124000000000
9.092967617000,-0.121000000000
9.100653902000,-0.121000000000
9.108340187000,-0.124000000000
9.116026472000,-0.126000000000
9.123712757000,-0.121000000000
9.131399042000,-0.116000000000
9.139085383000,-0.116000000000
9.146771668000,-0.111000000000
9.154457953000,-0.109000000000
9.162144238000,-0.116000000000
9.169830523000,-0.121000000000
9.177516808000,-0.114000000000
9.185203093000,-0.114000000000
9.192889378000,-0.116000000000
9.200575663000,-0.114000000000
9.208261948000,-0.107000000000
9.215948233000,-0.104000000000
9.223634518000,-0.104000000000
9.231320803000,-0.102000000000
9.239007088000,-0.099000000000
9.246693373000,-0.099000000000
9.254379658000,-0.099000000000
9.262065943000,-0.097000000000
9.269752228000,-0.094000000000
9.277438513000,-0.094000000000
9.285124798000,-0.092000000000
9.292811083000,-0.090000000000
9.300497368000,-0.087000000000
9.308183653000,-0.085000000000
9.315869938000,-0.092000000000
9.323556223000,-0.104000000000
9.331242508000,-0.111000000000
9.338928793000,-0.109000000000
9.346615078000,-0.099000000000
9.354301363000,-0.077000000000
9.361987648000,-0.063000000000
9.369673933000,-0.058000000000
9.377360218000,-0.048000000000
9.385046503000,-0.046000000000
9.392732788000,-0.070000000000
9.400419073000,-0.087000000000
9.408105358000,-0.080000000000
9.415791643000,-0.077000000000
9.423477928000,-0.082000000000
9.431164213000,-0.082000000000
9.438850498000,-0.082000000000
9.446536783000,-0.104000000000
9.454223068000,-0.155000000000
9.461909353000,-0.060000000000
9.469595638000,0.433000000000
9.477281923000,1.065000000000
9.484968208000,1.046000000000
9.492654493000,0.155000000000
9.500340778000,-0.586000000000
9.508027063000,-0.450000000000
9.515713348000,-0.172000000000
9.523399633000,-0.218000000000
9.531085918000,-0.187000000000
9.538772203000,-0.087000000000
9.546458488000,-0.107000000000
9.554144773000,-0.119000000000
9.561831058000,-0.082000000000
9.569517343000,-0.075000000000
9.577203628000,-0.082000000000
9.584889913000,-0.068000000000
9.592576198000,-0.058000000000
9.600262483000,-0.055000000000
9.607948768000,-0.048000000000
9.615635053000,-0.038000000000
9.623321338000,-0.034000000000
9.631007623000,-0.026000000000
9.638693908000,-0.019000000000
9.646380193000,-0.014000000000
9.654066478000,-0.007000000000
9.661752763000,0.004000000000
9.669439048000,0.012000000000
9.677125333000,0.014000000000
9.684811618000,0.024000000000
9.692497903000,0.038000000000
9.700184244000,0.053000000000
9.707870947000,0.063000000000
9.715557650000,0.070000000000
9.723244353000,0.077000000000
9.730931056000,0.085000000000
9.738617759000,0.087000000000
9.746304462000,0.090000000000
9.753991165000,0.085000000000
9.761677868000,0.075000000000
9.769364571000,0.053000000000
9.777051274000,0.014000000000
9.784737977000,-0.029000000000
9.792424680000,-0.065000000000
9.800111383000,-0.099000000000
9.807798086000,-0.124000000000
9.815484789000,-0.138000000000
9.823171492000,-0.145000000000
9.830858195000,-0.150000000000
9.838544898000,-0.150000000000
9.846231601000,-0.145000000000
9.853918304000,-0.143000000000
9.861605007000,-0.143000000000
9.869291710000,-0.136000000000
9.876978413000,-0.133000000000
9.884665116000,-0.131000000000
9.892351819000,-0.128000000000
9.900038522000,-0.128000000000
9.907725225000,-0.128000000000
9.915411928000,-0.128000000000
9.923098631000,-0.128000000000
9.930785334000,-0.128000000000
9.938472037000,-0.124000000000
9.946158740000,-0.126000000000
9.953845443000,-0.128000000000
9.961532146000,-0.124000000000
9.969218849000,-0.119000000000
9.976905552000,-0.121000000000
9.984592255000,-0.126000000000
9.992278958000,-0.126000000000
9.999965661000,-0.121000000000
10.007652364000,-0.121000000000
10.015339067000,-0.124000000000
10.023025770000,-0.126000000000
10.030712473000,-0.124000000000
10.038399176000,-0.121000000000
10.046085879000,-0.116000000000
10.053772582000,-0.109000000000
10.061459285000,-0.104000000000
10.069145988000,-0.104000000000
10.076832691000,-0.109000000000
10.084519394000,-0.109000000000
10.092206097000,-0.109000000000
10.099892800000,-0.109000000000
10.107579503000,-0.109000000000
10.115266206000,-0.107000000000
10.122952909000,-0.102000000000
10.130639612000,-0.094000000000
10.138326315000,-0.094000000000
10.146013018000,-0.104000000000
10.153699721000,-0.114000000000
10.161386424000,-0.111000000000
10.169073127000,-0.107000000000
10.176759830000,-0.102000000000
10.184446533000,-0.082000000000
10.192133236000,-0.068000000000
10.199819939000,-0.070000000000
10.207506642000,-0.063000000000
10.215193345000,-0.048000000000
10.222880048000,-0.072000000000
10.230566751000,-0.099000000000
10.238253454000,-0.090000000000
10.245940157000,-0.077000000000
10.253626860000,-0.092000000000
10.261313623000,-0.090000000000
10.268999908000,-0.082000000000
10.276686193000,-0.104000000000
10.284372478000,-0.131000000000
10.292058763000,-0.026000000000
10.299745048000,0.452000000000
10.307431333000,1.065000000000
10.315117618000,0.966000000000
10.322803903000,0.004000000000
10.330490188000,-0.683000000000
10.338176473000,-0.479000000000
10.345862758000,-0.209000000000
10.353549043000,-0.257000000000
10.361235328000,-0.189000000000
10.368921613000,-0.072000000000
10.376607898000,-0.097000000000
10.384294183000,-0.107000000000
10.391980468000,-0.065000000000
10.399666753000,-0.065000000000
10.407353038000,-0.068000000000
10.415039323000,-0.043000000000
10.422725608000,-0.036000000000
10.430411893000,-0.034000000000
10.438098178000,-0.024000000000
10.445784463000,-0.021000000000
10.453470748000,-0.019000000000
10.461157033000,-0.007000000000
10.468843318000,0.000000000000
10.476529603000,0.007000000000
10.484215888000,0.019000000000
10.491902173000,0.034000000000
10.499588458000,0.041000000000
10.507274743000,0.048000000000
10.514961028000,0.060000000000
10.522647313000,0.070000000000
10.530333598000,0.080000000000
10.538019883000,0.099000000000
10.545706168000,0.111000000000
10.553392453000,0.114000000000
10.561078738000,0.126000000000
10.568765023000,0.131000000000
10.576451308000,0.124000000000
10.584137593000,0.114000000000
10.591823878000,0.102000000000
10.599510163000,0.065000000000
10.607196448000,0.014000000000
10.614882733000,-0.031000000000
10.622569018000,-0.077000000000
10.630255303000,-0.119000000000
10.637941588000,-0.153000000000
10.645627873000,-0.165000000000
10.653314158000,-0.158000000000
10.661000443000,-0.160000000000
10.668686728000,-0.163000000000
10.676373013000,-0.153000000000
10.684059298000,-0.153000000000
10.691745583000,-0.148000000000
10.699431868000,-0.138000000000
10.707118153000,-0.133000000000
10.714804438000,-0.128000000000
10.722490723000,-0.126000000000
10.730177008000,-0.128000000000
10.737863293000,-0.126000000000
10.745549578000,-0.124000000000
10.753235863000,-0.136000000000
10.760922148000,-0.136000000000
10.768608433000,-0.128000000000
10.776294718000,-0.128000000000
10.783981003000,-0.136000000000
10.791667288000,-0.138000000000
10.799353573000,-0.136000000000
10.807039858000,-0.136000000000
10.814726143000,-0.133000000000
10.822412488000,-0.131000000000
10.830098773000,-0.138000000000
10.837785058000,-0.133000000000
10.845471343000,-0.124000000000
10.853157628000,-0.131000000000
10.860843913000,-0.136000000000
10.868530198000,-0.131000000000
10.876216483000,-0.121000000000
10.883902768000,-0.119000000000
10.891589053000,-0.121000000000
10.899275338000,-0.121000000000
10.906961623000,-0.126000000000
10.914647908000,-0.126000000000
10.922334193000,-0.121000000000
10.930020478000,-0.126000000000
10.937706763000,-0.126000000000
10.945393048000,-0.104000000000
10.953079333000,-0.092000000000
10.960765618000,-0.092000000000
10.968451903000,-0.077000000000
10.976138188000,-0.068000000000
10.983824473000,-0.085000000000
10.991510758000,-0.107000000000
10.999197043000,-0.107000000000
11.006883328000,-0.102000000000
11.014569613000,-0.099000000000
11.022255898000,-0.097000000000
11.029942183000,-0.094000000000
11.037628468000,-0.107000000000
11.045314753000,-0.119000000000
11.053001038000,0.048000000000
11.060687323000,0.576000000000
11.068373608000,1.056000000000
11.076059893000,0.669000000000
11.083746178000,-0.367000000000
11.091432463000,-0.795000000000
11.099118748000,-0.450000000000
11.106805033000,-0.282000000000
11.114491318000,-0.311000000000
11.122177603000,-0.150000000000
11.129863888000,-0.046000000000
11.137550173000,-0.090000000000
11.145236458000,-0.082000000000
11.152922743000,-0.036000000000
11.160609028000,-0.038000000000
11.168295313000,-0.043000000000
11.175981598000,-0.029000000000
11.183667883000,-0.019000000000
11.191354168000,-0.019000000000
11.199040453000,-0.007000000000
11.206726738000,0.002000000000
11.214413023000,0.004000000000
11.222099308000,0.012000000000
11.229785593000,0.024000000000
11.237471878000,0.036000000000
11.245158163000,0.046000000000
11.252844448000,0.055000000000
11.260530733000,0.065000000000
11.268217018000,0.075000000000
11.275903303000,0.085000000000
11.283589588000,0.104000000000
11.291275873000,0.121000000000
11.298962158000,0.131000000000
11.306648443000,0.138000000000
11.314334728000,0.143000000000
11.322021013000,0.148000000000
11.329707298000,0.150000000000
11.337393583000,0.145000000000
11.345079868000,0.131000000000
11.352766153000,0.097000000000
11.360452438000,0.048000000000
11.368138723000,-0.012000000000
11.375825008000,-0.070000000000
11.383511349000,-0.119000000000
11.391197843000,-0.155000000000
11.398884337000,-0.177000000000
11.406570831000,-0.184000000000
11.414257325000,-0.184000000000
11.421943819000,-0.184000000000
11.429630313000,-0.182000000000
11.437316807000,-0.170000000000
11.445003301000,-0.158000000000
11.452689795000,-0.153000000000
11.460376289000,-0.148000000000
11.468062783000,-0.136000000000
11.475749277000,-0.128000000000
11.483435771000,-0.128000000000
11.491122265000,-0.126000000000
11.498808759000,-0.128000000000
11.506495253000,-0.131000000000
11.514181747000,-0.128000000000
11.521868241000,-0.133000000000
11.529554735000,-0.136000000000
11.537241229000,-0.131000000000
11.544927723000,-0.128000000000
11.552614217000,-0.133000000000
11.560300711000,-0.138000000000
11.567987205000,-0.133000000000
11.575673699000,-0.133000000000
11.583360193000,-0.133000000000
11.591046687000,-0.128000000000
11.598733181000,-0.126000000000
11.606419675000,-0.128000000000
11.614106169000,-0.131000000000
11.621792663000,-0.128000000000
11.629479157000,-0.126000000000
11.637165651000,-0.126000000000
11.644852145000,-0.121000000000
11.652538639000,-0.119000000000
11.660225133000,-0.121000000000
11.667911627000,-0.116000000000
11.675598121000,-0.114000000000
11.683284615000,-0.126000000000
11.690971109000,-0.136000000000
11.698657603000,-0.136000000000
11.706344097000,-0.133000000000
11.714030591000,-0.119000000000
11.721717085000,-0.092000000000
11.729403579000,-0.082000000000
11.737090073000,-0.082000000000
11.744776567000,-0.070000000000
11.752463061000,-0.072000000000
11.760149555000,-0.099000000000
11.767836049000,-0.107000000000
11.775522543000,-0.097000000000
11.783209037000,-0.099000000000
11.790895531000,-0.099000000000
11.798582025000,-0.090000000000
11.806268519000,-0.094000000000
11.813955013000,-0.133000000000
11.821641507000,-0.165000000000
11.829328001000,0.041000000000
11.837014495000,0.647000000000
11.844700989000,1.143000000000
11.852387483000,0.756000000000
11.860073977000,-0.255000000000
11.867760471000,-0.678000000000
11.875446965000,-0.355000000000
11.883133459000,-0.194000000000
11.890819953000,-0.253000000000
11.898506447000,-0.150000000000
11.906192941000,-0.080000000000
11.913879435000,-0.121000000000
11.921565929000,-0.111000000000
11.929252423000,-0.075000000000
11.936938917000,-0.075000000000
11.944625471000,-0.077000000000
11.952311965000,-0.065000000000
11.959998459000,-0.053000000000
11.967684953000,-0.043000000000
11.975371447000,-0.038000000000
11.983057941000,-0.038000000000
11.990744435000,-0.031000000000
11.998430929000,-0.021000000000
12.006117423000,-0.014000000000
12.013803917000,-0.007000000000
12.021490411000,0.000000000000
12.029176905000,0.007000000000
12.036863399000,0.017000000000
12.044549893000,0.029000000000
12.052236387000,0.043000000000
12.059922881000,0.058000000000
12.067609375000,0.070000000000
12.075295869000,0.082000000000
12.082982363000,0.094000000000
12.090668857000,0.104000000000
12.098355351000,0.109000000000
12.106041845000,0.109000000000
12.113728339000,0.107000000000
12.121414833000,0.094000000000
12.129101327000,0.068000000000
12.136787821000,0.029000000000
12.144474315000,-0.014000000000
12.152160809000,-0.060000000000
12.159847303000,-0.097000000000
12.167533797000,-0.126000000000
12.175220291000,-0.148000000000
12.182906785000,-0.158000000000
12.190593279000,-0.163000000000
12.198279773000,-0.165000000000
12.205966267000,-0.160000000000
12.213652761000,-0.158000000000
12.221339255000,-0.155000000000
12.229025749000,-0.145000000000
12.236712243000,-0.138000000000
12.244398737000,-0.138000000000
12.252085231000,-0.138000000000
12.259771725000,-0.133000000000
12.267458219000,-0.131000000000
12.275144713000,-0.131000000000
12.282831207000,-0.128000000000
12.290517701000,-0.128000000000
12.298204195000,-0.128000000000
12.305890689000,-0.128000000000
12.313577183000,-0.128000000000
12.321263677000,-0.126000000000
12.328950171000,-0.126000000000
12.336636665000,-0.128000000000
12.344323159000,-0.126000000000
12.352009653000,-0.119000000000
12.359696147000,-0.119000000000
12.367382641000,-0.124000000000
12.375069135000,-0.121000000000
12.382755629000,-0.119000000000
12.390442123000,-0.119000000000
12.398128617000,-0.119000000000
12.405815111000,-0.116000000000
12.413501605000,-0.111000000000
12.421188099000,-0.107000000000
12.428874593000,-0.104000000000
12.436561087000,-0.104000000000
12.444247581000,-0.107000000000
12.451934075000,-0.107000000000
12.459620569000,-0.102000000000
12.467307063000,-0.102000000000
12.474993557000,-0.109000000000
12.482680051000,-0.119000000000
12.490366545000,-0.121000000000
12.498053039000,-0.116000000000
12.505739589000,-0.102000000000
12.513425874000,-0.082000000000
12.521112159000,-0.065000000000
12.528798444000,-0.063000000000
12.536484729000,-0.058000000000
12.544171014000,-0.060000000000
12.551857299000,-0.085000000000
12.559543584000,-0.094000000000
12.567229869000,-0.087000000000
12.574916154000,-0.087000000000
12.582602439000,-0.092000000000
12.590288724000,-0.087000000000
12.597975009000,-0.090000000000
12.605661294000,-0.124000000000
12.613347579000,-0.155000000000
12.621033864000,0.058000000000
12.628720149000,0.671000000000
12.636406434000,1.163000000000
12.644092719000,0.761000000000
12.651779004000,-0.248000000000
12.659465289000,-0.664000000000
12.667151574000,-0.345000000000
12.674837859000,-0.189000000000
12.682524144000,-0.243000000000
12.690210429000,-0.141000000000
12.697896714000,-0.082000000000
12.705582999000,-0.126000000000
12.713269284000,-0.109000000000
12.720955569000,-0.075000000000
12.728641854000,-0.082000000000
12.736328139000,-0.077000000000
12.744014424000,-0.058000000000
12.751700709000,-0.053000000000
12.759386994000,-0.048000000000
12.767073279000,-0.041000000000
12.774759564000,-0.034000000000
12.782445849000,-0.024000000000
12.790132134000,-0.017000000000
12.797818419000,-0.014000000000
12.805504704000,-0.007000000000
12.813190989000,0.004000000000
12.820877274000,0.014000000000
12.828563559000,0.024000000000
12.836249844000,0.034000000000
12.843936129000,0.046000000000
12.851622414000,0.060000000000
12.859308699000,0.075000000000
12.866994984000,0.082000000000
12.874681269000,0.090000000000
12.882367554000,0.097000000000
12.890053839000,0.099000000000
12.897740124000,0.104000000000
12.905426409000,0.104000000000
12.913112694000,0.090000000000
12.920798979000,0.058000000000
12.928485264000,0.021000000000
12.936171549000,-0.021000000000
12.943857834000,-0.065000000000
12.951544119000,-0.104000000000
12.959230404000,-0.133000000000
12.966916689000,-0.150000000000
12.974602974000,-0.160000000000
12.982289259000,-0.165000000000
12.989975544000,-0.160000000000
12.997661829000,-0.155000000000
13.005348114000,-0.153000000000
13.013034399000,-0.145000000000
13.020720684000,-0.141000000000
13.028406969000,-0.138000000000
13.036093254000,-0.133000000000
13.043779539000,-0.136000000000
13.051465824000,-0.138000000000
13.059152109000,-0.133000000000
13.066838450000,-0.131000000000
13.074525153000,-0.128000000000
13.082211856000,-0.126000000000
13.089898559000,-0.121000000000
13.097585262000,-0.126000000000
13.105271965000,-0.133000000000
13.112958668000,-0.133000000000
13.120645371000,-0.128000000000
13.128332074000,-0.124000000000
13.136018777000,-0.121000000000
13.143705480000,-0.124000000000
13.151392183000,-0.121000000000
13.159078886000,-0.119000000000
13.166765589000,-0.121000000000
13.174452292000,-0.124000000000
13.182138995000,-0.119000000000
13.189825698000,-0.111000000000
13.197512401000,-0.114000000000
13.205199104000,-0.116000000000
13.212885807000,-0.114000000000
13.220572510000,-0.109000000000
13.228259213000,-0.104000000000
13.235945916000,-0.104000000000
13.243632619000,-0.109000000000
13.251319322000,-0.107000000000
13.259006025000,-0.107000000000
13.266692728000,-0.102000000000
13.274379431000,-0.097000000000
13.282066134000,-0.102000000000
13.289752837000,-0.111000000000
13.297439540000,-0.111000000000
13.305126243000,-0.107000000000
13.312812946000,-0.102000000000
13.320499649000,-0.085000000000
13.328186352000,-0.068000000000
13.335873055000,-0.060000000000
13.343559758000,-0.058000000000
13.351246461000,-0.060000000000
13.358933164000,-0.075000000000
13.366619867000,-0.092000000000
13.374306570000,-0.097000000000
13.381993273000,-0.090000000000
13.389679976000,-0.082000000000
13.397366679000,-0.085000000000
13.405053382000,-0.087000000000
13.412740085000,-0.090000000000
13.420426788000,-0.109000000000
13.428113491000,-0.014000000000
13.435800194000,0.447000000000
13.443486897000,1.039000000000
13.451173600000,0.910000000000
13.458860303000,-0.070000000000
13.466547006000,-0.737000000000
13.474233709000,-0.510000000000
13.481920412000,-0.255000000000
13.489607115000,-0.294000000000
13.497293818000,-0.189000000000
13.504980521000,-0.055000000000
13.512667224000,-0.087000000000
13.520353927000,-0.099000000000
13.528040630000,-0.051000000000
13.535727333000,-0.046000000000
13.543414036000,-0.051000000000
13.551100739000,-0.034000000000
13.558787442000,-0.024000000000
13.566474145000,-0.024000000000
13.574160848000,-0.014000000000
13.581847551000,-0.002000000000
13.589534254000,0.004000000000
13.597220957000,0.000000000000
13.604907660000,0.004000000000
13.612594363000,0.019000000000
13.620281066000,0.034000000000
13.627967833000,0.046000000000
13.635654118000,0.055000000000
13.643340403000,0.063000000000
13.651026688000,0.075000000000
13.658712973000,0.094000000000
13.666399258000,0.107000000000
13.674085543000,0.116000000000
13.681771828000,0.126000000000
13.689458113000,0.138000000000
13.697144398000,0.145000000000
13.704830683000,0.145000000000
13.712516968000,0.141000000000
13.720203253000,0.136000000000
13.727889538000,0.111000000000
13.735575823000,0.065000000000
13.743262108000,0.012000000000
13.750948393000,-0.041000000000
13.758634678000,-0.090000000000
13.766320963000,-0.128000000000
13.774007248000,-0.153000000000
13.781693533000,-0.167000000000
13.789379818000,-0.177000000000
13.797066103000,-0.175000000000
13.804752388000,-0.167000000000
13.812438673000,-0.160000000000
13.820124958000,-0.153000000000
13.827811243000,-0.145000000000
13.835497528000,-0.136000000000
13.843183813000,-0.124000000000
13.850870098000,-0.119000000000
13.858556383000,-0.116000000000
13.866242668000,-0.116000000000
13.873928953000,-0.121000000000
13.881615238000,-0.124000000000
13.889301523000,-0.126000000000
13.896987808000,-0.131000000000
13.904674093000,-0.133000000000
13.912360378000,-0.133000000000
13.920046663000,-0.131000000000
13.927732948000,-0.128000000000
13.935419233000,-0.138000000000
13.943105518000,-0.141000000000
13.950791803000,-0.131000000000
13.958478088000,-0.133000000000
13.966164373000,-0.136000000000
13.973850658000,-0.128000000000
13.981536943000,-0.126000000000
13.989223228000,-0.131000000000
13.996909513000,-0.128000000000
14.004595798000,-0.124000000000
14.012282083000,-0.121000000000
14.019968368000,-0.121000000000
14.027654653000,-0.119000000000
14.035340938000,-0.119000000000
14.043027223000,-0.126000000000
14.050713508000,-0.131000000000
14.058399793000,-0.126000000000
14.066086078000,-0.124000000000
14.073772363000,-0.114000000000
14.081458648000,-0.094000000000
14.089144933000,-0.082000000000
14.096831218000,-0.075000000000
14.104517503000,-0.075000000000
14.112203788000,-0.090000000000
14.119890073000,-0.107000000000
14.127576358000,-0.104000000000
14.135262643000,-0.104000000000
14.142948928000,-0.107000000000
14.150635213000,-0.104000000000
14.158321498000,-0.102000000000
14.166007783000,-0.104000000000
14.173694068000,-0.124000000000
14.181380353000,-0.055000000000
14.189066694000,0.350000000000
14.196752979000,0.951000000000
14.204439264000,0.929000000000
14.212125549000,-0.012000000000
14.219811834000,-0.768000000000
14.227498119000,-0.588000000000
14.235184404000,-0.289000000000
14.242870689000,-0.328000000000
14.250556974000,-0.238000000000
14.258243259000,-0.070000000000
14.265929544000,-0.080000000000
14.273615829000,-0.104000000000
14.281302114000,-0.058000000000
14.288988399000,-0.046000000000
14.296674684000,-0.058000000000
14.304360969000,-0.043000000000
14.312047254000,-0.034000000000
14.319733539000,-0.026000000000
14.327419824000,-0.017000000000
14.335106109000,-0.009000000000
14.342792394000,-0.007000000000
14.350478679000,0.002000000000
14.358164964000,0.014000000000
14.365851249000,0.024000000000
14.373537534000,0.034000000000
14.381223819000,0.041000000000
14.388910104000,0.053000000000
14.396596389000,0.070000000000
14.404282674000,0.082000000000
14.411968959000,0.094000000000
14.419655244000,0.114000000000
14.427341529000,0.131000000000
14.435027814000,0.141000000000
14.442714099000,0.153000000000
14.450400384000,0.160000000000
14.458086669000,0.163000000000
14.465772954000,0.160000000000
14.473459239000,0.150000000000
14.481145524000,0.116000000000
14.488831809000,0.065000000000
14.496518094000,0.012000000000
14.504204379000,-0.048000000000
14.511890664000,-0.109000000000
14.519576949000,-0.150000000000
14.527263234000,-0.172000000000
14.534949519000,-0.187000000000
14.542635804000,-0.192000000000
14.550322089000,-0.187000000000
14.558008374000,-0.177000000000
14.565694659000,-0.170000000000
14.573380944000,-0.165000000000
14.581067229000,-0.153000000000
14.588753514000,-0.143000000000
14.596439799000,-0.138000000000
14.604126084000,-0.131000000000
14.611812369000,-0.124000000000
14.619498654000,-0.126000000000
14.627184939000,-0.124000000000
14.634871224000,-0.116000000000
14.642557509000,-0.121000000000
14.650243794000,-0.131000000000
14.657930079000,-0.128000000000
14.665616364000,-0.128000000000
14.673302649000,-0.136000000000
14.680988934000,-0.136000000000
14.688675219000,-0.131000000000
14.696361504000,-0.128000000000
14.704047789000,-0.128000000000
14.711734074000,-0.126000000000
14.719420359000,-0.128000000000
14.727106644000,-0.128000000000
14.734792929000,-0.124000000000
14.742479214000,-0.121000000000
14.750165555000,-0.124000000000
14.757851840000,-0.119000000000
14.765538125000,-0.114000000000
14.773224410000,-0.111000000000
14.780910695000,-0.109000000000
14.788596980000,-0.111000000000
14.796283265000,-0.114000000000
14.803969550000,-0.107000000000
14.811655835000,-0.109000000000
14.819342120000,-0.121000000000
14.827028405000,-0.131000000000
14.834714690000,-0.131000000000
14.842400975000,-0.124000000000
14.850087260000,-0.099000000000
14.857773545000,-0.077000000000
14.865459830000,-0.075000000000
14.873146115000,-0.068000000000
14.880832400000,-0.063000000000
14.888518685000,-0.082000000000
14.896204970000,-0.097000000000
14.903891255000,-0.094000000000
14.911577540000,-0.094000000000
14.919263825000,-0.097000000000
14.926950110000,-0.092000000000
14.934636395000,-0.090000000000
14.942322680000,-0.107000000000
14.950008965000,-0.158000000000
14.957695250000,-0.099000000000
14.965381535000,0.347000000000
14.973067820000,1.004000000000
14.980754105000,1.082000000000
14.988440390000,0.231000000000
14.996126675000,-0.598000000000
15.003812960000,-0.520000000000
15.011499245000,-0.192000000000
15.019185530000,-0.216000000000
15.026871815000,-0.204000000000
15.034558100000,-0.092000000000
15.042244385000,-0.107000000000
15.049930670000,-0.133000000000
15.057616955000,-0.090000000000
15.065303240000,-0.077000000000
15.072989525000,-0.085000000000
15.080675810000,-0.068000000000
15.088362095000,-0.055000000000
15.096048380000,-0.058000000000
15.103734665000,-0.051000000000
15.111420950000,-0.038000000000
15.119107235000,-0.034000000000
15.126793520000,-0.031000000000
15.134479805000,-0.021000000000
15.142166090000,-0.014000000000
15.149852375000,-0.007000000000
15.157538660000,0.002000000000
15.165224945000,0.012000000000
15.172911230000,0.019000000000
15.180597515000,0.036000000000
15.188283800000,0.053000000000
15.195970085000,0.065000000000
15.203656370000,0.075000000000
15.211342655000,0.090000000000
15.219028940000,0.102000000000
15.226715225000,0.104000000000
15.234401510000,0.104000000000
15.242087795000,0.107000000000
15.249774080000,0.102000000000
15.257460365000,0.080000000000
15.265146650000,0.041000000000
15.272832935000,-0.004000000000
15.280519220000,-0.048000000000
15.288205505000,-0.090000000000
15.295891790000,-0.126000000000
15.303578075000,-0.150000000000
15.311264416000,-0.163000000000
15.318950980000,-0.167000000000
15.326637544000,-0.167000000000
15.334324108000,-0.165000000000
15.342010672000,-0.160000000000
15.349697236000,-0.155000000000
15.357383800000,-0.155000000000
15.365070364000,-0.148000000000
15.372756928000,-0.141000000000
15.380443492000,-0.136000000000
15.388130056000,-0.133000000000
15.395816620000,-0.133000000000
15.403503184000,-0.131000000000
15.411189748000,-0.131000000000
15.418876312000,-0.128000000000
15.426562876000,-0.128000000000
15.434249440000,-0.126000000000
15.441936004000,-0.126000000000
15.449622568000,-0.128000000000
15.457309132000,-0.126000000000
15.464995696000,-0.124000000000
15.472682260000,-0.124000000000
15.480368824000,-0.126000000000
15.488055388000,-0.121000000000
15.495741952000,-0.119000000000
15.503428516000,-0.119000000000
15.511115080000,-0.116000000000
15.518801644000,-0.114000000000
15.526488208000,-0.114000000000
15.534174772000,-0.114000000000
15.541861336000,-0.111000000000
15.549547900000,-0.109000000000
15.557234464000,-0.111000000000
15.564921028000,-0.121000000000
15.572607592000,-0.133000000000
15.580294156000,-0.131000000000
15.587980720000,-0.116000000000
15.595667284000,-0.094000000000
15.603353848000,-0.077000000000
15.611040412000,-0.072000000000
15.618726976000,-0.065000000000
15.626413540000,-0.065000000000
15.634100104000,-0.087000000000
15.641786668000,-0.099000000000
15.649473232000,-0.097000000000
15.657159796000,-0.099000000000
15.664846360000,-0.097000000000
15.672532924000,-0.090000000000
15.680219488000,-0.094000000000
15.687906052000,-0.114000000000
15.695592616000,-0.155000000000
15.703279180000,-0.090000000000
15.710965744000,0.367000000000
15.718652308000,1.019000000000
15.726338872000,1.043000000000
15.734025436000,0.148000000000
15.741712000000,-0.637000000000
15.749398564000,-0.518000000000
15.757085128000,-0.209000000000
15.764771692000,-0.238000000000
15.772458256000,-0.204000000000
15.780144820000,-0.090000000000
15.787831384000,-0.104000000000
15.795517948000,-0.124000000000
15.803204512000,-0.082000000000
15.810891076000,-0.072000000000
15.818577640000,-0.077000000000
15.826264204000,-0.060000000000
15.833950768000,-0.051000000000
15.841637332000,-0.051000000000
15.849323896000,-0.043000000000
15.857010460000,-0.036000000000
15.864697024000,-0.031000000000
15.872383625000,-0.024000000000
15.880070746000,-0.012000000000
15.887757867000,-0.002000000000
15.895444988000,0.004000000000
15.903132109000,0.014000000000
15.910819230000,0.026000000000
15.918506351000,0.043000000000
15.926193472000,0.053000000000
15.933880593000,0.068000000000
15.941567714000,0.085000000000
15.949254835000,0.102000000000
15.956941956000,0.111000000000
15.964629077000,0.119000000000
15.972316198000,0.124000000000
15.980003319000,0.131000000000
15.987690440000,0.131000000000
15.995377561000,0.114000000000
16.003064682000,0.082000000000
16.010751803000,0.038000000000
16.018438924000,-0.014000000000
16.026126045000,-0.065000000000
16.033813166000,-0.107000000000
16.041500287000,-0.138000000000
16.049187408000,-0.163000000000
16.056874529000,-0.172000000000
16.064561650000,-0.175000000000
16.072248771000,-0.175000000000
16.079935892000,-0.167000000000
16.087623013000,-0.163000000000
16.095310134000,-0.158000000000
16.102997255000,-0.148000000000
16.110684376000,-0.143000000000
16.118371497000,-0.141000000000
16.126058618000,-0.136000000000
16.133745739000,-0.133000000000
16.141432860000,-0.131000000000
16.149119981000,-0.128000000000
16.156807102000,-0.126000000000
16.164494223000,-0.124000000000
16.172181344000,-0.124000000000
16.179868465000,-0.128000000000
16.187555586000,-0.128000000000
16.195242707000,-0.126000000000
16.202929828000,-0.124000000000
16.210616949000,-0.124000000000
16.218304070000,-0.128000000000
16.225991191000,-0.128000000000
16.233678312000,-0.124000000000
16.241365433000,-0.119000000000
16.249052554000,-0.119000000000
16.256739675000,-0.124000000000
16.264426796000,-0.124000000000
16.272113917000,-0.119000000000
16.279801038000,-0.119000000000
16.287488159000,-0.119000000000
16.295175280000,-0.124000000000
16.302862401000,-0.131000000000
16.310549522000,-0.136000000000
16.318236643000,-0.128000000000
16.325923764000,-0.109000000000
16.333610885000,-0.087000000000
16.341298006000,-0.077000000000
16.348985127000,-0.072000000000
16.356672248000,-0.070000000000
16.364359369000,-0.085000000000
16.372046490000,-0.102000000000
16.379733611000,-0.104000000000
16.387420732000,-0.099000000000
16.395107853000,-0.099000000000
16.402794974000,-0.099000000000
16.410482095000,-0.097000000000
16.418169216000,-0.107000000000
16.425856337000,-0.143000000000
16.433543521000,-0.126000000000
16.441229109000,0.218000000000
16.448914697000,0.875000000000
16.456600285000,1.107000000000
16.464285873000,0.367000000000
16.471971461000,-0.557000000000
16.479657049000,-0.622000000000
16.487342637000,-0.272000000000
16.495028225000,-0.240000000000
16.502713813000,-0.233000000000
16.510399401000,-0.099000000000
16.518084989000,-0.087000000000
16.525770577000,-0.121000000000
16.533456165000,-0.085000000000
16.541141753000,-0.063000000000
16.548827341000,-0.075000000000
16.556512929000,-0.063000000000
16.564198517000,-0.046000000000
16.571884105000,-0.043000000000
16.579569693000,-0.038000000000
16.587255281000,-0.026000000000
16.594940869000,-0.019000000000
16.602626457000,-0.012000000000
16.610312045000,-0.007000000000
16.617997633000,0.002000000000
16.625683221000,0.014000000000
16.633368809000,0.021000000000
16.641054397000,0.031000000000
16.648739985000,0.046000000000
16.656425573000,0.058000000000
16.664111161000,0.070000000000
16.671796749000,0.087000000000
16.679482337000,0.102000000000
16.687167925000,0.111000000000
16.694853513000,0.119000000000
16.702539101000,0.126000000000
16.710224689000,0.131000000000
16.717910277000,0.133000000000
16.725595865000,0.126000000000
16.733281453000,0.099000000000
16.740967041000,0.053000000000
16.748652629000,0.000000000000
16.756338217000,-0.053000000000
16.764023805000,-0.102000000000
16.771709393000,-0.141000000000
16.779394981000,-0.165000000000
16.787080569000,-0.172000000000
16.794766157000,-0.170000000000
16.802451745000,-0.172000000000
16.810137333000,-0.172000000000
16.817822921000,-0.163000000000
16.825508509000,-0.155000000000
16.833194097000,-0.148000000000
16.840879685000,-0.143000000000
16.848565273000,-0.138000000000
16.856250861000,-0.133000000000
16.863936449000,-0.128000000000
16.871622037000,-0.126000000000
16.879307625000,-0.128000000000
16.886993213000,-0.126000000000
16.894678801000,-0.131000000000
16.902364389000,-0.138000000000
16.910049977000,-0.133000000000
16.917735565000,-0.121000000000
16.925421153000,-0.121000000000
16.933106741000,-0.128000000000
16.940792329000,-0.126000000000
16.948477917000,-0.124000000000
16.956163505000,-0.126000000000
16.963849093000,-0.124000000000
16.971534681000,-0.119000000000
16.979220269000,-0.116000000000
16.986905857000,-0.114000000000
16.994591517000,-0.114000000000
17.002277802000,-0.121000000000
17.009964087000,-0.133000000000
17.017650372000,-0.128000000000
17.025336657000,-0.121000000000
17.033022942000,-0.109000000000
17.040709227000,-0.094000000000
17.048395512000,-0.082000000000
17.056081797000,-0.072000000000
17.063768082000,-0.068000000000
17.071454367000,-0.087000000000
17.079140652000,-0.111000000000
17.086826937000,-0.109000000000
17.094513222000,-0.102000000000
17.102199507000,-0.097000000000
17.109885792000,-0.097000000000
17.117572077000,-0.097000000000
17.125258362000,-0.099000000000
17.132944647000,-0.116000000000
17.140630932000,-0.092000000000
17.148317217000,0.197000000000
17.156003502000,0.817000000000
17.163689787000,1.102000000000
17.171376072000,0.394000000000
17.179062357000,-0.571000000000
17.186748642000,-0.681000000000
17.194434927000,-0.321000000000
17.202121212000,-0.262000000000
17.209807497000,-0.260000000000
17.217493782000,-0.107000000000
17.225180067000,-0.068000000000
17.232866352000,-0.114000000000
17.240552637000,-0.085000000000
17.248238922000,-0.051000000000
17.255925207000,-0.060000000000
17.263611492000,-0.055000000000
17.271297777000,-0.038000000000
17.278984062000,-0.034000000000
17.286670347000,-0.024000000000
17.294356632000,-0.021000000000
17.302042917000,-0.014000000000
17.309729202000,0.009000000000
17.317415487000,0.014000000000
17.325101772000,0.007000000000
17.332788057000,0.026000000000
17.340474342000,0.048000000000
17.348160627000,0.051000000000
17.355846912000,0.058000000000
17.363533197000,0.077000000000
17.371219482000,0.099000000000
17.378905767000,0.116000000000
17.386592052000,0.128000000000
17.394278337000,0.141000000000
17.401964622000,0.145000000000
17.409650907000,0.145000000000
17.417337192000,0.158000000000
17.425023477000,0.165000000000
17.432709762000,0.145000000000
17.440396047000,0.109000000000
17.448082332000,0.065000000000
17.455768617000,0.012000000000
17.463454902000,-0.053000000000
17.471141187000,-0.111000000000
17.478827472000,-0.145000000000
17.486513757000,-0.165000000000
17.494200042000,-0.180000000000
17.501886327000,-0.184000000000
17.509572612000,-0.180000000000
17.517258897000,-0.170000000000
17.524945182000,-0.160000000000
17.532631467000,-0.153000000000
17.540317752000,-0.141000000000
17.548004037000,-0.136000000000
17.555690382000,-0.133000000000
17.563376807000,-0.126000000000
17.571063232000,-0.121000000000
17.578749657000,-0.128000000000
17.586436082000,-0.126000000000
17.594122507000,-0.121000000000
17.601808932000,-0.128000000000
17.609495357000,-0.136000000000
17.617181782000,-0.136000000000
17.624868207000,-0.138000000000
17.632554632000,-0.141000000000
17.640241057000,-0.133000000000
17.647927482000,-0.131000000000
17.655613907000,-0.136000000000
17.663300332000,-0.138000000000
17.670986757000,-0.136000000000
17.678673182000,-0.138000000000
17.686359607000,-0.138000000000
17.694046032000,-0.141000000000
17.701732457000,-0.141000000000
17.709418882000,-0.133000000000
17.717105307000,-0.119000000000
17.724791732000,-0.099000000000
17.732478157000,-0.090000000000
17.740164582000,-0.082000000000
17.747851007000,-0.087000000000
17.755537432000,-0.114000000000
17.763223857000,-0.126000000000
17.770910282000,-0.121000000000
17.778596707000,-0.119000000000
17.786283132000,-0.119000000000
17.793969557000,-0.111000000000
17.801655982000,-0.111000000000
17.809342407000,-0.126000000000
17.817028832000,-0.138000000000
17.824715257000,-0.021000000000
17.832401682000,0.447000000000
17.840088107000,1.012000000000
17.847774532000,0.839000000000
17.855460957000,-0.163000000000
17.863147382000,-0.793000000000
17.870833807000,-0.530000000000
17.878520232000,-0.279000000000
17.886206657000,-0.321000000000
17.893893082000,-0.204000000000
17.901579507000,-0.063000000000
17.909265932000,-0.090000000000
17.916952357000,-0.099000000000
17.924638782000,-0.058000000000
17.932325207000,-0.055000000000
17.940011632000,-0.063000000000
17.947698057000,-0.046000000000
17.955384482000,-0.036000000000
17.963070907000,-0.034000000000
17.970757332000,-0.026000000000
17.978443757000,-0.017000000000
17.986130182000,-0.007000000000
17.993816607000,0.002000000000
18.001503032000,0.009000000000
18.009189457000,0.017000000000
18.016875882000,0.031000000000
18.024562307000,0.038000000000
18.032248732000,0.046000000000
18.039935157000,0.060000000000
18.047621582000,0.080000000000
18.055308007000,0.099000000000
18.062994432000,0.116000000000
18.070680857000,0.128000000000
18.078367282000,0.141000000000
18.086053707000,0.150000000000
18.093740132000,0.158000000000
18.101426557000,0.160000000000
18.109112982000,0.158000000000
18.116799417000,0.138000000000
18.124485981000,0.094000000000
18.132172545000,0.036000000000
18.139859109000,-0.029000000000
18.147545673000,-0.090000000000
18.155232237000,-0.138000000000
18.162918801000,-0.172000000000
18.170605365000,-0.192000000000
18.178291929000,-0.199000000000
18.185978493000,-0.194000000000
18.193665057000,-0.187000000000
18.201351621000,-0.184000000000
18.209038185000,-0.172000000000
18.216724749000,-0.163000000000
18.224411313000,-0.158000000000
18.232097877000,-0.145000000000
18.239784441000,-0.136000000000
18.247471005000,-0.136000000000
18.255157569000,-0.133000000000
18.262844133000,-0.131000000000
18.270530697000,-0.136000000000
18.278217261000,-0.136000000000
18.285903825000,-0.136000000000
18.293590389000,-0.138000000000
18.301276953000,-0.141000000000
18.308963517000,-0.143000000000
18.316650081000,-0.143000000000
18.324336645000,-0.143000000000
18.332023209000,-0.141000000000
18.339709773000,-0.138000000000
18.347396337000,-0.136000000000
18.355082901000,-0.136000000000
18.362769465000,-0.136000000000
18.370456029000,-0.133000000000
18.378142593000,-0.136000000000
18.385829157000,-0.138000000000
18.393515721000,-0.141000000000
18.401202285000,-0.150000000000
18.408888849000,-0.150000000000
18.416575413000,-0.133000000000
18.424261977000,-0.109000000000
18.431948541000,-0.097000000000
18.439635105000,-0.092000000000
18.447321669000,-0.082000000000
18.455008233000,-0.087000000000
18.462694797000,-0.111000000000
18.470381361000,-0.119000000000
18.478067925000,-0.111000000000
18.485754489000,-0.111000000000
18.493441053000,-0.111000000000
18.501127617000,-0.109000000000
18.508814181000,-0.109000000000
18.516500745000,-0.136000000000
18.524187309000,-0.180000000000
18.531873873000,-0.051000000000
18.539560437000,0.476000000000
18.547247001000,1.063000000000
18.554933565000,0.902000000000
18.562620129000,-0.055000000000
18.570306693000,-0.671000000000
18.577993257000,-0.428000000000
18.585679821000,-0.189000000000
18.593366385000,-0.250000000000
18.601052949000,-0.184000000000
18.608739513000,-0.092000000000
18.616426077000,-0.131000000000
18.624112641000,-0.133000000000
18.631799205000,-0.090000000000
18.639485769000,-0.087000000000
18.647172333000,-0.090000000000
18.654858897000,-0.070000000000
18.662545461000,-0.058000000000
18.670232025000,-0.060000000000
18.677918622000,-0.055000000000
18.685604907000,-0.043000000000
18.693291192000,-0.038000000000
18.700977477000,-0.034000000000
18.708663762000,-0.026000000000
18.716350047000,-0.019000000000
18.724036332000,-0.012000000000
18.731722617000,-0.002000000000
18.739408902000,0.009000000000
18.747095187000,0.021000000000
18.754781472000,0.031000000000
18.762467757000,0.046000000000
18.770154042000,0.060000000000
18.777840327000,0.070000000000
18.785526612000,0.077000000000
18.793212897000,0.085000000000
18.800899182000,0.092000000000
18.808585467000,0.094000000000
18.816271752000,0.094000000000
18.823958037000,0.082000000000
18.831644322000,0.048000000000
18.839330607000,-0.002000000000
18.847016892000,-0.051000000000
18.854703177000,-0.092000000000
18.862389462000,-0.128000000000
18.870075747000,-0.155000000000
18.877762032000,-0.170000000000
18.885448317000,-0.172000000000
18.893134602000,-0.172000000000
18.900820887000,-0.170000000000
18.908507172000,-0.167000000000
18.916193457000,-0.160000000000
18.923879742000,-0.155000000000
18.931566027000,-0.153000000000
18.939252312000,-0.143000000000
18.946938597000,-0.138000000000
18.954624882000,-0.141000000000
18.962311167000,-0.141000000000
18.969997452000,-0.138000000000
18.977683737000,-0.133000000000
18.985370022000,-0.133000000000
18.993056307000,-0.133000000000
19.000742592000,-0.131000000000
19.008428877000,-0.131000000000
19.016115162000,-0.133000000000
19.023801447000,-0.131000000000
19.031487732000,-0.128000000000
19.039174017000,-0.126000000000
19.046860302000,-0.126000000000
19.054546587000,-0.128000000000
19.062232872000,-0.126000000000
19.069919157000,-0.121000000000
19.077605442000,-0.119000000000
19.085291727000,-0.119000000000
19.092978012000,-0.119000000000
19.100664297000,-0.116000000000
19.108350582000,-0.111000000000
19.116036867000,-0.114000000000
19.123723152000,-0.121000000000
19.131409437000,-0.128000000000
19.139095722000,-0.131000000000
19.146782007000,-0.128000000000
19.154468292000,-0.111000000000
19.162154577000,-0.087000000000
19.169840862000,-0.075000000000
19.177527147000,-0.075000000000
19.185213432000,-0.068000000000
19.192899717000,-0.072000000000
19.200586002000,-0.097000000000
19.208272287000,-0.104000000000
19.215958572000,-0.097000000000
19.223644857000,-0.099000000000
19.231331142000,-0.097000000000
19.239017483000,-0.090000000000
19.246704117000,-0.094000000000
19.254390751000,-0.126000000000
19.262077385000,-0.155000000000
19.269764019000,0.036000000000
19.277450653000,0.627000000000
19.285137287000,1.124000000000
19.292823921000,0.744000000000
19.300510555000,-0.255000000000
19.308197189000,-0.676000000000
19.315883823000,-0.355000000000
19.323570457000,-0.197000000000
19.331257091000,-0.248000000000
19.338943725000,-0.143000000000
19.346630359000,-0.077000000000
19.354316993000,-0.121000000000
19.362003627000,-0.109000000000
19.369690261000,-0.072000000000
19.377376895000,-0.075000000000
19.385063529000,-0.070000000000
19.392750163000,-0.048000000000
19.400436797000,-0.043000000000
19.408123431000,-0.043000000000
19.415810065000,-0.034000000000
19.423496699000,-0.026000000000
19.431183333000,-0.024000000000
19.438869967000,-0.012000000000
19.446556601000,-0.007000000000
19.454243235000,-0.002000000000
19.461929869000,0.012000000000
19.469616503000,0.024000000000
19.477303137000,0.029000000000
19.484989771000,0.041000000000
19.492676405000,0.053000000000
19.500363039000,0.063000000000
19.508049673000,0.075000000000
19.515736307000,0.085000000000
19.523422941000,0.094000000000
19.531109575000,0.104000000000
19.538796209000,0.109000000000
19.546482843000,0.109000000000
19.554169477000,0.102000000000
19.561856111000,0.087000000000
19.569542745000,0.053000000000
19.577229379000,0.002000000000
19.584916013000,-0.043000000000
19.592602647000,-0.085000000000
19.600289281000,-0.126000000000
19.607975915000,-0.153000000000
19.615662549000,-0.160000000000
19.623349183000,-0.167000000000
19.631035817000,-0.167000000000
19.638722451000,-0.163000000000
19.646409085000,-0.163000000000
19.654095719000,-0.163000000000
19.661782353000,-0.158000000000
19.669468987000,-0.148000000000
19.677155621000,-0.145000000000
19.684842255000,-0.143000000000
19.692528889000,-0.138000000000
19.700215523000,-0.131000000000
19.707902157000,-0.128000000000
19.715588791000,-0.128000000000
19.723275425000,-0.128000000000
19.730962059000,-0.126000000000
19.738648693000,-0.131000000000
19.746335327000,-0.131000000000
19.754021961000,-0.124000000000
19.761708595000,-0.126000000000
19.769395229000,-0.131000000000
19.777081863000,-0.131000000000
19.784768497000,-0.126000000000
19.792455131000,-0.126000000000
19.800141779000,-0.124000000000
19.807828134000,-0.121000000000
19.815514489000,-0.121000000000
19.823200844000,-0.121000000000
19.830887199000,-0.119000000000
19.838573554000,-0.111000000000
19.846259909000,-0.111000000000
19.853946264000,-0.111000000000
19.861632619000,-0.109000000000
19.869318974000,-0.109000000000
19.877005329000,-0.109000000000
19.884691684000,-0.104000000000
19.892378039000,-0.099000000000
19.900064394000,-0.099000000000
19.907750749000,-0.097000000000
19.915437104000,-0.094000000000
19.923123459000,-0.092000000000
19.930809814000,-0.092000000000
19.938496169000,-0.097000000000
19.946182524000,-0.104000000000
19.953868879000,-0.102000000000
19.961555234000,-0.092000000000
19.969241589000,-0.082000000000
19.976927944000,-0.070000000000
19.984614299000,-0.058000000000
19.992300654000,-0.051000000000
19.999987009000,-0.046000000000
20.007673364000,-0.053000000000
20.015359719000,-0.072000000000
20.023046074000,-0.080000000000
20.030732429000,-0.077000000000
20.038418784000,-0.077000000000
20.046105139000,-0.080000000000
20.053791494000,-0.077000000000
20.061477849000,-0.075000000000
20.069164204000,-0.092000000000
20.076850559000,-0.094000000000
20.084536914000,0.148000000000
20.092223269000,0.747000000000
20.099909624000,1.102000000000
20.107595979000,0.503000000000
20.115282334000,-0.474000000000
20.122968689000,-0.678000000000
20.130655044000,-0.323000000000
20.138341399000,-0.240000000000
20.146027754000,-0.253000000000
20.153714109000,-0.102000000000
20.161400464000,-0.051000000000
20.169086819000,-0.092000000000
20.176773174000,-0.065000000000
20.184459529000,-0.034000000000
20.192145884000,-0.043000000000
20.199832239000,-0.038000000000
20.207518594000,-0.024000000000
20.215204949000,-0.021000000000
20.222891304000,-0.017000000000
20.230577659000,-0.004000000000
20.238264014000,0.002000000000
20.245950369000,0.004000000000
20.253636724000,0.012000000000
20.261323079000,0.026000000000
20.269009434000,0.031000000000
20.276695789000,0.036000000000
20.284382144000,0.043000000000
20.292068499000,0.053000000000
20.299754854000,0.070000000000
20.307441209000,0.082000000000
20.315127564000,0.090000000000
20.322813919000,0.102000000000
20.330500274000,0.114000000000
20.338186629000,0.119000000000
20.345872984000,0.126000000000
20.353559339000,0.128000000000
20.361245723000,0.131000000000
20.368932078000,0.131000000000
20.376618433000,0.124000000000
20.384304788000,0.092000000000
20.391991143000,0.048000000000
20.399677498000,-0.007000000000
20.407363853000,-0.063000000000
20.415050208000,-0.109000000000
20.422736563000,-0.138000000000
20.430422918000,-0.155000000000
20.438109273000,-0.165000000000
20.445795628000,-0.165000000000
20.453481983000,-0.165000000000
20.461168338000,-0.158000000000
20.468854693000,-0.148000000000
20.476541048000,-0.141000000000
20.484227403000,-0.133000000000
20.491913758000,-0.126000000000
20.499600113000,-0.124000000000
20.507286468000,-0.116000000000
20.514972823000,-0.114000000000
20.522659178000,-0.119000000000
20.530345533000,-0.119000000000
20.538031888000,-0.116000000000
20.545718243000,-0.119000000000
20.553404598000,-0.124000000000
20.561090953000,-0.124000000000
20.568777308000,-0.126000000000
20.576463663000,-0.128000000000
20.584150018000,-0.128000000000
20.591836373000,-0.124000000000
20.599522728000,-0.124000000000
20.607209083000,-0.121000000000
20.614895438000,-0.121000000000
20.622581793000,-0.121000000000
20.630268148000,-0.121000000000
20.637954503000,-0.116000000000
20.645640858000,-0.114000000000
20.653327213000,-0.114000000000
20.661013568000,-0.114000000000
20.668699923000,-0.111000000000
20.676386278000,-0.107000000000
20.684072633000,-0.107000000000
20.691758988000,-0.107000000000
20.699445343000,-0.102000000000
20.707131698000,-0.099000000000
20.714818053000,-0.099000000000
20.722504408000,-0.094000000000
20.730190763000,-0.094000000000
20.737877118000,-0.102000000000
20.745563473000,-0.111000000000
20.753249828000,-0.116000000000
20.760936183000,-0.114000000000
20.768622538000,-0.107000000000
20.776308893000,-0.092000000000
20.783995248000,-0.070000000000
20.791681603000,-0.065000000000
20.799367958000,-0.068000000000
20.807054313000,-0.063000000000
20.814740668000,-0.075000000000
20.822427023000,-0.092000000000
20.830113378000,-0.090000000000
20.837799733000,-0.085000000000
20.845486088000,-0.090000000000
20.853172443000,-0.090000000000
20.860858798000,-0.082000000000
20.868545153000,-0.092000000000
20.876231508000,-0.141000000000
20.883917863000,-0.128000000000
20.891604218000,0.218000000000
20.899290573000,0.878000000000
20.906976928000,1.119000000000
20.914663283000,0.386000000000
20.922349675000,-0.547000000000
20.930035891000,-0.613000000000
20.937722107000,-0.253000000000
20.945408323000,-0.218000000000
20.953094539000,-0.223000000000
20.960780755000,-0.094000000000
20.968466971000,-0.080000000000
20.976153187000,-0.119000000000
20.983839403000,-0.082000000000
20.991525619000,-0.058000000000
20.999211835000,-0.070000000000
21.006898051000,-0.060000000000
21.014584267000,-0.046000000000
21.022270483000,-0.046000000000
21.029956699000,-0.041000000000
21.037642915000,-0.026000000000
21.045329131000,-0.021000000000
21.053015347000,-0.019000000000
21.060701563000,-0.009000000000
21.068387779000,0.000000000000
21.076073995000,0.004000000000
21.083760211000,0.014000000000
21.091446427000,0.026000000000
21.099132643000,0.036000000000
21.106818859000,0.046000000000
21.114505075000,0.058000000000
21.122191291000,0.072000000000
21.129877507000,0.085000000000
21.137563723000,0.094000000000
21.145249939000,0.099000000000
21.152936155000,0.107000000000
21.160622371000,0.111000000000
21.168308587000,0.114000000000
21.175994803000,0.107000000000
21.183681019000,0.087000000000
21.191367235000,0.055000000000
21.199053451000,0.009000000000
21.206739667000,-0.036000000000
21.214425883000,-0.077000000000
21.222112099000,-0.116000000000
21.229798315000,-0.148000000000
21.237484531000,-0.160000000000
21.245170747000,-0.163000000000
21.252856963000,-0.160000000000
21.260543179000,-0.160000000000
21.268229395000,-0.155000000000
21.275915611000,-0.150000000000
21.283601827000,-0.145000000000
21.291288043000,-0.145000000000
21.298974259000,-0.141000000000
21.306660475000,-0.136000000000
21.314346691000,-0.131000000000
21.322032907000,-0.126000000000
21.329719123000,-0.124000000000
21.337405339000,-0.128000000000
21.345091555000,-0.126000000000
21.352777771000,-0.124000000000
21.360463987000,-0.126000000000
21.368150203000,-0.126000000000
21.375836419000,-0.124000000000
21.383522635000,-0.121000000000
21.391208851000,-0.126000000000
21.398895067000,-0.124000000000
21.406581283000,-0.121000000000
21.414267499000,-0.124000000000
21.421953715000,-0.121000000000
21.429639931000,-0.114000000000
21.437326147000,-0.116000000000
21.445012363000,-0.119000000000
21.452698579000,-0.111000000000
21.460384795000,-0.114000000000
21.468071011000,-0.116000000000
21.475757227000,-0.107000000000
21.483443449000,-0.104000000000
21.491130152000,-0.109000000000
21.498816855000,-0.107000000000
21.506503558000,-0.104000000000
21.514190261000,-0.099000000000
21.521876964000,-0.097000000000
21.529563667000,-0.094000000000
21.537250370000,-0.094000000000
21.544937073000,-0.092000000000
21.552623776000,-0.092000000000
21.560310479000,-0.092000000000
21.567997182000,-0.092000000000
21.575683885000,-0.092000000000
21.583370588000,-0.090000000000
21.591057291000,-0.087000000000
21.598743994000,-0.092000000000
21.606430697000,-0.097000000000
21.614117400000,-0.099000000000
21.621804103000,-0.104000000000
21.629490806000,-0.109000000000
21.637177509000,-0.097000000000
21.644864212000,-0.072000000000
21.652550915000,-0.058000000000
21.660237618000,-0.053000000000
21.667924321000,-0.046000000000
21.675611024000,-0.051000000000
21.683297727000,-0.075000000000
21.690984430000,-0.087000000000
21.698671133000,-0.077000000000
21.706357836000,-0.077000000000
21.714044539000,-0.080000000000
21.721731242000,-0.077000000000
21.729417945000,-0.077000000000
21.737104648000,-0.097000000000
21.744791351000,-0.138000000000
21.752478054000,-0.060000000000
21.760164757000,0.394000000000
21.767851460000,1.029000000000
21.775538163000,1.039000000000
21.783224866000,0.155000000000
21.790911569000,-0.613000000000
21.798598272000,-0.493000000000
21.806284975000,-0.201000000000
21.813971678000,-0.228000000000
21.821658381000,-0.187000000000
21.829345084000,-0.077000000000
21.837031787000,-0.097000000000
21.844718490000,-0.114000000000
21.852405193000,-0.070000000000
21.860091896000,-0.063000000000
21.867778599000,-0.072000000000
21.875465302000,-0.058000000000
21.883152005000,-0.041000000000
21.890838708000,-0.041000000000
21.898525411000,-0.036000000000
21.906212114000,-0.026000000000
21.913898817000,-0.019000000000
21.921585520000,-0.009000000000
21.929272223000,-0.004000000000
21.936958926000,0.002000000000
21.944645629000,0.012000000000
21.952332332000,0.021000000000
21.960019035000,0.029000000000
21.967705738000,0.038000000000
21.975392441000,0.051000000000
21.983079144000,0.063000000000
21.990765847000,0.072000000000
21.998452550000,0.085000000000
22.006139253000,0.097000000000
22.013825956000,0.104000000000
22.021512659000,0.109000000000
22.029199362000,0.111000000000
22.036886065000,0.109000000000
22.044572828000,0.104000000000
22.052259113000,0.090000000000
22.059945398000,0.058000000000
22.067631683000,0.014000000000
22.075317968000,-0.029000000000
22.083004253000,-0.072000000000
22.090690538000,-0.107000000000
22.098376823000,-0.131000000000
22.106063108000,-0.145000000000
22.113749393000,-0.153000000000
22.121435678000,-0.153000000000
22.129121963000,-0.150000000000
22.136808248000,-0.148000000000
22.144494533000,-0.143000000000
22.152180818000,-0.138000000000
22.159867103000,-0.131000000000
22.167553388000,-0.124000000000
22.175239673000,-0.124000000000
22.182925958000,-0.124000000000
22.190612243000,-0.121000000000
22.198298528000,-0.116000000000
22.205984813000,-0.114000000000
22.213671098000,-0.116000000000
22.221357383000,-0.114000000000
22.229043668000,-0.111000000000
22.236729953000,-0.111000000000
22.244416238000,-0.114000000000
22.252102523000,-0.114000000000
22.259788808000,-0.114000000000
22.267475093000,-0.116000000000
22.275161378000,-0.114000000000
22.282847663000,-0.114000000000
22.290533948000,-0.114000000000
22.298220233000,-0.114000000000
22.305906518000,-0.111000000000
22.313592803000,-0.107000000000
22.321279088000,-0.109000000000
22.328965373000,-0.109000000000
22.336651658000,-0.107000000000
22.344337943000,-0.104000000000
22.352024228000,-0.102000000000
22.359710513000,-0.099000000000
22.367396798000,-0.102000000000
22.375083083000,-0.102000000000
22.382769368000,-0.097000000000
22.390455653000,-0.094000000000
22.398141938000,-0.094000000000
22.405828223000,-0.092000000000
22.413514508000,-0.090000000000
22.421200793000,-0.087000000000
22.428887078000,-0.087000000000
22.436573363000,-0.090000000000
22.444259648000,-0.087000000000
22.451945933000,-0.085000000000
22.459632218000,-0.082000000000
22.467318503000,-0.080000000000
22.475004788000,-0.087000000000
22.482691073000,-0.097000000000
22.490377358000,-0.099000000000
22.498063643000,-0.097000000000
22.505749928000,-0.085000000000
22.513436213000,-0.065000000000
22.521122498000,-0.046000000000
22.528808783000,-0.046000000000
22.536495068000,-0.041000000000
22.544181353000,-0.043000000000
22.551867638000,-0.063000000000
22.559553923000,-0.075000000000
22.567240208000,-0.072000000000
22.574926493000,-0.075000000000
22.582612778000,-0.075000000000
22.590299063000,-0.072000000000
22.597985348000,-0.072000000000
22.605671689000,-0.094000000000
22.613357974000,-0.128000000000
22.621044259000,0.012000000000
22.628730544000,0.542000000000
22.636416829000,1.097000000000
22.644103114000,0.868000000000
22.651789399000,-0.102000000000
22.659475684000,-0.671000000000
22.667161969000,-0.418000000000
22.674848254000,-0.194000000000
22.682534539000,-0.243000000000
22.690220824000,-0.160000000000
22.697907109000,-0.065000000000
22.705593394000,-0.102000000000
22.713279679000,-0.104000000000
22.720965964000,-0.060000000000
22.728652249000,-0.060000000000
22.736338534000,-0.065000000000
22.744024819000,-0.046000000000
22.751711104000,-0.041000000000
22.759397389000,-0.041000000000
22.767083674000,-0.024000000000
22.774769959000,-0.017000000000
22.782456244000,-0.019000000000
22.790142529000,-0.009000000000
22.797828814000,0.007000000000
22.805515099000,0.009000000000
22.813201384000,0.012000000000
22.820887669000,0.024000000000
22.828573954000,0.038000000000
22.836260239000,0.046000000000
22.843946524000,0.053000000000
22.851632809000,0.068000000000
22.859319094000,0.082000000000
22.867005379000,0.090000000000
22.874691664000,0.097000000000
22.882377949000,0.104000000000
22.890064234000,0.107000000000
22.897750519000,0.107000000000
22.905436804000,0.109000000000
22.913123089000,0.104000000000
22.920809374000,0.080000000000
22.928495659000,0.046000000000
22.936181944000,0.004000000000
22.943868229000,-0.041000000000
22.951554514000,-0.085000000000
22.959240799000,-0.119000000000
22.966927084000,-0.141000000000
22.974613369000,-0.150000000000
22.982299654000,-0.153000000000
22.989985939000,-0.155000000000
22.997672224000,-0.153000000000
23.005358509000,-0.145000000000
23.013044794000,-0.148000000000
23.020731079000,-0.143000000000
23.028417364000,-0.128000000000
23.036103649000,-0.121000000000
23.043789934000,-0.119000000000
23.051476219000,-0.119000000000
23.059162504000,-0.119000000000
23.066848789000,-0.121000000000
23.074535074000,-0.121000000000
23.082221359000,-0.114000000000
23.089907644000,-0.114000000000
23.097593929000,-0.119000000000
23.105280214000,-0.119000000000
23.112966499000,-0.119000000000
23.120652784000,-0.124000000000
23.128339069000,-0.119000000000
23.136025354000,-0.114000000000
23.143711639000,-0.114000000000
23.151397924000,-0.114000000000
23.159084209000,-0.111000000000
23.166770550000,-0.109000000000
23.174457253000,-0.111000000000
23.182143956000,-0.111000000000
23.189830659000,-0.102000000000
23.197517362000,-0.104000000000
23.205204065000,-0.109000000000
23.212890768000,-0.102000000000
23.220577471000,-0.097000000000
23.228264174000,-0.099000000000
23.235950877000,-0.097000000000
23.243637580000,-0.090000000000
23.251324283000,-0.092000000000
23.259010986000,-0.099000000000
23.266697689000,-0.092000000000
23.274384392000,-0.082000000000
23.282071095000,-0.085000000000
23.289757798000,-0.085000000000
23.297444501000,-0.082000000000
23.305131204000,-0.082000000000
23.312817907000,-0.090000000000
23.320504610000,-0.092000000000
23.328191313000,-0.092000000000
23.335878016000,-0.085000000000
23.343564719000,-0.070000000000
23.351251422000,-0.053000000000
23.358938125000,-0.046000000000
23.366624828000,-0.038000000000
23.374311531000,-0.034000000000
23.381998234000,-0.053000000000
23.389684937000,-0.077000000000
23.397371640000,-0.075000000000
23.405058343000,-0.068000000000
23.412745046000,-0.072000000000
23.420431749000,-0.072000000000
23.428118452000,-0.065000000000
23.435805155000,-0.072000000000
23.443491858000,-0.085000000000
23.451178561000,0.014000000000
23.458865264000,0.450000000000
23.466551967000,1.014000000000
23.474238670000,0.900000000000
23.481925373000,-0.070000000000
23.489612076000,-0.747000000000
23.497298779000,-0.520000000000
23.504985482000,-0.255000000000
23.512672185000,-0.294000000000
23.520358888000,-0.192000000000
23.528045591000,-0.041000000000
23.535732294000,-0.053000000000
23.543418997000,-0.068000000000
23.551105700000,-0.024000000000
23.558792403000,-0.019000000000
23.566479106000,-0.026000000000
23.574165809000,-0.012000000000
23.581852512000,-0.004000000000
23.589539215000,0.000000000000
23.597225918000,0.007000000000
23.604912621000,0.017000000000
23.612599324000,0.024000000000
23.620286027000,0.034000000000
23.627972730000,0.043000000000
23.635659433000,0.053000000000
23.643346136000,0.058000000000
23.651032839000,0.063000000000
23.658719542000,0.072000000000
23.666406245000,0.085000000000
23.674092948000,0.102000000000
23.681779651000,0.114000000000
23.689466354000,0.126000000000
23.697153057000,0.138000000000
23.704839760000,0.153000000000
23.712526463000,0.163000000000
23.720213166000,0.165000000000
23.727899933000,0.163000000000
23.735586218000,0.160000000000
23.743272503000,0.150000000000
23.750958788000,0.124000000000
23.758645073000,0.077000000000
23.766331358000,0.024000000000
23.774017643000,-0.031000000000
23.781703928000,-0.090000000000
23.789390213000,-0.136000000000
23.797076498000,-0.163000000000
23.804762783000,-0.172000000000
23.812449068000,-0.177000000000
23.820135353000,-0.177000000000
23.827821638000,-0.172000000000
23.835507923000,-0.167000000000
23.843194208000,-0.158000000000
23.850880493000,-0.145000000000
23.858566778000,-0.136000000000
23.866253063000,-0.131000000000
23.873939348000,-0.124000000000
23.881625633000,-0.116000000000
23.889311918000,-0.116000000000
23.896998203000,-0.119000000000
23.904684488000,-0.121000000000
23.912370773000,-0.121000000000
23.920057058000,-0.121000000000
23.927743343000,-0.121000000000
23.935429628000,-0.124000000000
23.943115913000,-0.126000000000
23.950802198000,-0.126000000000
23.958488483000,-0.126000000000
23.966174768000,-0.126000000000
23.973861053000,-0.128000000000
23.981547338000,-0.126000000000
23.989233623000,-0.121000000000
23.996919908000,-0.119000000000
24.004606193000,-0.121000000000
24.012292478000,-0.119000000000
24.019978763000,-0.114000000000
24.027665048000,-0.116000000000
24.035351333000,-0.116000000000
24.043037618000,-0.111000000000
24.050723903000,-0.109000000000
24.058410188000,-0.107000000000
24.066096473000,-0.104000000000
24.073782758000,-0.104000000000
24.081469043000,-0.104000000000
24.089155328000,-0.099000000000
24.096841613000,-0.097000000000
24.104527898000,-0.099000000000
24.112214183000,-0.107000000000
24.119900468000,-0.114000000000
24.127586753000,-0.114000000000
24.135273038000,-0.107000000000
24.142959323000,-0.090000000000
24.150645608000,-0.068000000000
24.158331893000,-0.060000000000
24.166018178000,-0.058000000000
24.173704463000,-0.055000000000
24.181390748000,-0.068000000000
24.189077033000,-0.085000000000
24.196763318000,-0.085000000000
24.204449603000,-0.080000000000
24.212135888000,-0.080000000000
24.219822173000,-0.080000000000
24.227508458000,-0.080000000000
24.235194743000,-0.090000000000
24.242881028000,-0.126000000000
24.250567313000,-0.104000000000
24.258253598000,0.248000000000
24.265939883000,0.900000000000
24.273626168000,1.119000000000
24.281312453000,0.364000000000
24.288998794000,-0.552000000000
24.296685079000,-0.601000000000
24.304371364000,-0.253000000000
24.312057649000,-0.223000000000
24.319743934000,-0.214000000000
24.327430219000,-0.082000000000
24.335116504000,-0.072000000000
24.342802789000,-0.109000000000
24.350489074000,-0.070000000000
24.358175359000,-0.046000000000
24.365861644000,-0.058000000000
24.373547929000,-0.053000000000
24.381234214000,-0.038000000000
24.388920499000,-0.031000000000
24.396606784000,-0.026000000000
24.404293069000,-0.017000000000
24.411979354000,-0.009000000000
24.419665639000,-0.004000000000
24.427351924000,0.000000000000
24.435038209000,0.007000000000
24.442724494000,0.012000000000
24.450410779000,0.024000000000
24.458097064000,0.038000000000
24.465783349000,0.048000000000
24.473469634000,0.058000000000
24.481155919000,0.070000000000
24.488842204000,0.087000000000
24.496528489000,0.104000000000
24.504214774000,0.119000000000
24.511901059000,0.126000000000
24.519587344000,0.126000000000
24.527273629000,0.126000000000
24.534959914000,0.128000000000
24.542646199000,0.121000000000
24.550332484000,0.099000000000
24.558018769000,0.058000000000
24.565705054000,0.007000000000
24.573391339000,-0.038000000000
24.581077624000,-0.085000000000
24.588763909000,-0.124000000000
24.596450194000,-0.150000000000
24.604136479000,-0.167000000000
24.611822764000,-0.172000000000
24.619509049000,-0.167000000000
24.627195334000,-0.165000000000
24.634881619000,-0.163000000000
24.642567904000,-0.155000000000
24.650254189000,-0.148000000000
24.657940474000,-0.145000000000
24.665626759000,-0.138000000000
24.673313044000,-0.131000000000
24.680999329000,-0.131000000000
24.688685614000,-0.128000000000
24.696371899000,-0.126000000000
24.704058184000,-0.124000000000
24.711744469000,-0.124000000000
24.719430754000,-0.126000000000
24.727117039000,-0.124000000000
24.734803324000,-0.124000000000
24.742489609000,-0.124000000000
24.750175894000,-0.126000000000
24.757862179000,-0.124000000000
24.765548464000,-0.121000000000
24.773234749000,-0.121000000000
24.780921034000,-0.121000000000
24.788607319000,-0.119000000000
24.796293604000,-0.119000000000
24.803979889000,-0.121000000000
24.811666174000,-0.119000000000
24.819352459000,-0.111000000000
24.827038744000,-0.111000000000
24.834725029000,-0.111000000000
24.842411314000,-0.107000000000
24.850097655000,-0.107000000000
24.857784149000,-0.107000000000
24.865470643000,-0.104000000000
24.873157137000,-0.099000000000
24.880843631000,-0.102000000000
24.888530125000,-0.104000000000
24.896216619000,-0.107000000000
24.903903113000,-0.116000000000
24.911589607000,-0.121000000000
24.919276101000,-0.116000000000
24.926962595000,-0.102000000000
24.934649089000,-0.072000000000
24.942335583000,-0.058000000000
24.950022077000,-0.058000000000
24.957708571000,-0.051000000000
24.965395065000,-0.058000000000
24.973081559000,-0.085000000000
24.980768053000,-0.094000000000
24.988454547000,-0.087000000000
24.996141041000,-0.085000000000
25.003827535000,-0.087000000000
25.011514029000,-0.085000000000
25.019200523000,-0.090000000000
25.026887017000,-0.121000000000
25.034573511000,-0.128000000000
25.042260005000,0.136000000000
25.049946499000,0.776000000000
25.057632993000,1.167000000000
25.065319487000,0.596000000000
25.073005981000,-0.396000000000
25.080692475000,-0.639000000000
25.088378969000,-0.296000000000
25.096065463000,-0.211000000000
25.103751957000,-0.238000000000
25.111438451000,-0.111000000000
25.119124945000,-0.070000000000
25.126811439000,-0.111000000000
25.134497933000,-0.090000000000
25.142184427000,-0.058000000000
25.149870921000,-0.060000000000
25.157557415000,-0.053000000000
25.165243909000,-0.041000000000
25.172930403000,-0.038000000000
25.180616897000,-0.029000000000
25.188303391000,-0.024000000000
25.195989885000,-0.017000000000
25.203676379000,0.000000000000
25.211362873000,0.007000000000
25.219049367000,0.007000000000
25.226735861000,0.017000000000
25.234422355000,0.031000000000
25.242108849000,0.041000000000
25.249795343000,0.055000000000
25.257481837000,0.068000000000
25.265168331000,0.085000000000
25.272854825000,0.099000000000
25.280541319000,0.114000000000
25.288227813000,0.126000000000
25.295914307000,0.138000000000
25.303600801000,0.141000000000
25.311287295000,0.138000000000
25.318973789000,0.141000000000
25.326660283000,0.138000000000
25.334346777000,0.119000000000
25.342033271000,0.072000000000
25.349719765000,0.024000000000
25.357406259000,-0.026000000000
25.365092753000,-0.082000000000
25.372779247000,-0.126000000000
25.380465741000,-0.155000000000
25.388152235000,-0.175000000000
25.395838729000,-0.177000000000
25.403525223000,-0.170000000000
25.411211777000,-0.170000000000
25.418898271000,-0.172000000000
25.426584765000,-0.163000000000
25.434271259000,-0.150000000000
25.441957753000,-0.148000000000
25.449644247000,-0.141000000000
25.457330741000,-0.133000000000
25.465017235000,-0.133000000000
25.472703729000,-0.126000000000
25.480390223000,-0.121000000000
25.488076717000,-0.124000000000
25.495763211000,-0.128000000000
25.503449705000,-0.124000000000
25.511136199000,-0.124000000000
25.518822693000,-0.133000000000
25.526509187000,-0.136000000000
25.534195681000,-0.131000000000
25.541882175000,-0.133000000000
25.549568669000,-0.138000000000
25.557255163000,-0.131000000000
25.564941657000,-0.131000000000
25.572628151000,-0.131000000000
25.580314645000,-0.121000000000
25.588001139000,-0.124000000000
25.595687633000,-0.128000000000
25.603374127000,-0.121000000000
25.611060621000,-0.116000000000
25.618747115000,-0.119000000000
25.626433609000,-0.124000000000
25.634120103000,-0.119000000000
25.641806597000,-0.109000000000
25.649493091000,-0.104000000000
25.657179585000,-0.102000000000
25.664866079000,-0.109000000000
25.672552573000,-0.121000000000
25.680239067000,-0.124000000000
25.687925561000,-0.116000000000
25.695612055000,-0.107000000000
25.703298549000,-0.090000000000
25.710985043000,-0.075000000000
25.718671537000,-0.068000000000
25.726358031000,-0.060000000000
25.734044525000,-0.063000000000
25.741731019000,-0.085000000000
25.749417513000,-0.092000000000
25.757104007000,-0.085000000000
25.764790501000,-0.085000000000
25.772476995000,-0.092000000000
25.780163489000,-0.092000000000
25.787849983000,-0.085000000000
25.795536477000,-0.099000000000
25.803222971000,-0.097000000000
25.810909465000,0.141000000000
25.818595959000,0.729000000000
25.826282453000,1.090000000000
25.833968947000,0.491000000000
25.841655441000,-0.513000000000
25.849341935000,-0.727000000000
25.857028429000,-0.355000000000
25.864714923000,-0.267000000000
25.872401417000,-0.282000000000
25.880087911000,-0.114000000000
25.887774405000,-0.041000000000
25.895460899000,-0.090000000000
25.903147393000,-0.072000000000
25.910833887000,-0.034000000000
25.918520381000,-0.036000000000
25.926206875000,-0.034000000000
25.933893369000,-0.021000000000
25.941579863000,-0.019000000000
25.949266357000,-0.009000000000
25.956952851000,0.002000000000
25.964639345000,0.002000000000
25.972325895000,0.012000000000
25.980012180000,0.026000000000
25.987698465000,0.034000000000
25.995384750000,0.038000000000
26.003071035000,0.055000000000
26.010757320000,0.068000000000
26.018443605000,0.075000000000
26.026129890000,0.092000000000
26.033816175000,0.114000000000
26.041502460000,0.131000000000
26.049188745000,0.141000000000
26.056875030000,0.150000000000
26.064561315000,0.167000000000
26.072247600000,0.177000000000
26.079933885000,0.175000000000
26.087620170000,0.170000000000
26.095306455000,0.158000000000
26.102992740000,0.133000000000
26.110679025000,0.094000000000
26.118365310000,0.034000000000
26.126051595000,-0.024000000000
26.133737880000,-0.080000000000
26.141424165000,-0.138000000000
26.149110450000,-0.175000000000
26.156796735000,-0.187000000000
26.164483020000,-0.189000000000
26.172169305000,-0.192000000000
26.179855590000,-0.192000000000
26.187541875000,-0.182000000000
26.195228160000,-0.167000000000
26.202914445000,-0.160000000000
26.210600730000,-0.155000000000
26.218287015000,-0.143000000000
26.225973300000,-0.126000000000
26.233659585000,-0.124000000000
26.241345870000,-0.126000000000
26.249032155000,-0.116000000000
26.256718440000,-0.111000000000
26.264404725000,-0.116000000000
26.272091010000,-0.119000000000
26.279777295000,-0.119000000000
26.287463580000,-0.119000000000
26.295149865000,-0.119000000000
26.302836150000,-0.124000000000
26.310522435000,-0.131000000000
26.318208720000,-0.126000000000
26.325895005000,-0.124000000000
26.333581290000,-0.131000000000
26.341267575000,-0.124000000000
26.348953860000,-0.119000000000
26.356640145000,-0.124000000000
26.364326430000,-0.126000000000
26.372012715000,-0.121000000000
26.379699000000,-0.121000000000
26.387385285000,-0.121000000000
26.395071570000,-0.116000000000
26.402757855000,-0.114000000000
26.410444140000,-0.116000000000
26.418130425000,-0.126000000000
26.425816710000,-0.131000000000
26.433502995000,-0.128000000000
26.441189280000,-0.121000000000
26.448875565000,-0.111000000000
26.456561850000,-0.092000000000
26.464248135000,-0.082000000000
26.471934420000,-0.072000000000
26.479620705000,-0.065000000000
26.487306990000,-0.080000000000
26.494993275000,-0.102000000000
26.502679560000,-0.102000000000
26.510365845000,-0.099000000000
26.518052130000,-0.102000000000
26.525738415000,-0.099000000000
26.533424756000,-0.097000000000
26.541111041000,-0.107000000000
26.548797326000,-0.133000000000
26.556483611000,-0.121000000000
26.564169896000,0.187000000000
26.571856181000,0.824000000000
26.579542466000,1.094000000000
26.587228751000,0.377000000000
26.594915036000,-0.581000000000
26.602601321000,-0.671000000000
26.610287606000,-0.309000000000
26.617973891000,-0.265000000000
26.625660176000,-0.255000000000
26.633346461000,-0.097000000000
26.641032746000,-0.068000000000
26.648719031000,-0.111000000000
26.656405316000,-0.077000000000
26.664091601000,-0.051000000000
26.671777886000,-0.060000000000
26.679464171000,-0.053000000000
26.687150456000,-0.038000000000
26.694836741000,-0.036000000000
26.702523026000,-0.029000000000
26.710209311000,-0.017000000000
26.717895596000,-0.014000000000
26.725581881000,-0.007000000000
26.733268166000,0.007000000000
26.740954451000,0.012000000000
26.748640736000,0.014000000000
26.756327021000,0.029000000000
26.764013306000,0.046000000000
26.771699591000,0.051000000000
26.779385876000,0.065000000000
26.787072161000,0.087000000000
26.794758446000,0.104000000000
26.802444731000,0.124000000000
26.810131016000,0.141000000000
26.817817301000,0.155000000000
26.825503586000,0.165000000000
26.833189871000,0.165000000000
26.840876156000,0.163000000000
26.848562441000,0.153000000000
26.856248726000,0.124000000000
26.863935011000,0.072000000000
26.871621296000,0.014000000000
26.879307581000,-0.046000000000
26.886993866000,-0.099000000000
26.894680151000,-0.143000000000
26.902366436000,-0.172000000000
26.910052721000,-0.189000000000
26.917739006000,-0.194000000000
26.925425291000,-0.192000000000
26.933111576000,-0.189000000000
26.940797861000,-0.184000000000
26.948484146000,-0.177000000000
26.956170431000,-0.167000000000
26.963856716000,-0.158000000000
26.971543001000,-0.148000000000
26.979229286000,-0.143000000000
26.986915571000,-0.136000000000
26.994601856000,-0.133000000000
27.002288141000,-0.133000000000
27.009974426000,-0.128000000000
27.017660711000,-0.128000000000
27.025346996000,-0.128000000000
27.033033281000,-0.133000000000
27.040719566000,-0.136000000000
27.048405851000,-0.133000000000
27.056092136000,-0.131000000000
27.063778421000,-0.133000000000
27.071464706000,-0.138000000000
27.079150991000,-0.133000000000
27.086837276000,-0.128000000000
27.094523621000,-0.128000000000
27.102209976000,-0.131000000000
27.109896331000,-0.121000000000
27.117582686000,-0.116000000000
27.125269041000,-0.119000000000
27.132955396000,-0.121000000000
27.140641751000,-0.126000000000
27.148328106000,-0.136000000000
27.156014461000,-0.138000000000
27.163700816000,-0.133000000000
27.171387171000,-0.124000000000
27.179073526000,-0.104000000000
27.186759881000,-0.085000000000
27.194446236000,-0.080000000000
27.202132591000,-0.072000000000
27.209818946000,-0.075000000000
27.217505301000,-0.102000000000
27.225191656000,-0.116000000000
27.232878011000,-0.107000000000
27.240564366000,-0.104000000000
27.248250721000,-0.109000000000
27.255937076000,-0.102000000000
27.263623431000,-0.097000000000
27.271309786000,-0.121000000000
27.278996141000,-0.165000000000
27.286682496000,-0.029000000000
27.294368851000,0.528000000000
27.302055206000,1.121000000000
27.309741561000,0.919000000000
27.317427916000,-0.060000000000
27.325114271000,-0.666000000000
27.332800626000,-0.418000000000
27.340486981000,-0.182000000000
27.348173336000,-0.248000000000
27.355859691000,-0.184000000000
27.363546046000,-0.087000000000
27.371232401000,-0.116000000000
27.378918756000,-0.116000000000
27.386605111000,-0.080000000000
27.394291466000,-0.080000000000
27.401977821000,-0.077000000000
27.409664176000,-0.055000000000
27.417350531000,-0.053000000000
27.425036886000,-0.055000000000
27.432723241000,-0.038000000000
27.440409596000,-0.021000000000
27.448095951000,-0.026000000000
27.455782306000,-0.021000000000
27.463468661000,-0.002000000000
27.471155016000,0.007000000000
27.478841371000,0.012000000000
27.486527726000,0.031000000000
27.494214081000,0.043000000000
27.501900436000,0.048000000000
27.509586791000,0.063000000000
27.517273146000,0.090000000000
27.524959501000,0.111000000000
27.532645856000,0.124000000000
27.540332211000,0.136000000000
27.548018566000,0.148000000000
27.555704921000,0.153000000000
27.563391276000,0.153000000000
27.571077631000,0.138000000000
27.578763986000,0.111000000000
27.586450341000,0.070000000000
27.594136696000,0.017000000000
27.601823051000,-0.041000000000
27.609509406000,-0.097000000000
27.617195761000,-0.138000000000
27.624882116000,-0.165000000000
27.632568471000,-0.184000000000
27.640254826000,-0.189000000000
27.647941181000,-0.189000000000
27.655627569000,-0.184000000000
27.663314203000,-0.182000000000
27.671000837000,-0.172000000000
27.678687471000,-0.163000000000
27.686374105000,-0.158000000000
27.694060739000,-0.155000000000
27.701747373000,-0.153000000000
27.709434007000,-0.143000000000
27.717120641000,-0.138000000000
27.724807275000,-0.138000000000
27.732493909000,-0.136000000000
27.740180543000,-0.128000000000
27.747867177000,-0.128000000000
27.755553811000,-0.131000000000
27.763240445000,-0.131000000000
27.770927079000,-0.136000000000
27.778613713000,-0.138000000000
27.786300347000,-0.128000000000
27.793986981000,-0.121000000000
27.801673615000,-0.124000000000
27.809360249000,-0.128000000000
27.817046883000,-0.126000000000
27.824733517000,-0.121000000000
27.832420151000,-0.119000000000
27.840106785000,-0.121000000000
27.847793419000,-0.131000000000
27.855480053000,-0.141000000000
27.863166687000,-0.136000000000
27.870853321000,-0.128000000000
27.878539955000,-0.119000000000
27.886226589000,-0.099000000000
27.893913223000,-0.085000000000
27.901599857000,-0.080000000000
27.909286491000,-0.075000000000
27.916973125000,-0.090000000000
27.924659759000,-0.111000000000
27.932346393000,-0.107000000000
27.940033027000,-0.097000000000
27.947719661000,-0.104000000000
27.955406295000,-0.099000000000
27.963092929000,-0.092000000000
27.970779563000,-0.102000000000
27.978466197000,-0.131000000000
27.986152831000,-0.116000000000
27.993839465000,0.163000000000
28.001526099000,0.785000000000
28.009212733000,1.116000000000
28.016899367000,0.469000000000
28.024586001000,-0.535000000000
28.032272635000,-0.717000000000
28.039959269000,-0.347000000000
28.047645903000,-0.262000000000
28.055332537000,-0.270000000000
28.063019171000,-0.126000000000
28.070705805000,-0.077000000000
28.078392439000,-0.109000000000
28.086079073000,-0.082000000000
28.093765707000,-0.053000000000
28.101452341000,-0.053000000000
28.109138975000,-0.048000000000
28.116825609000,-0.043000000000
28.124512243000,-0.036000000000
28.132198877000,-0.029000000000
28.139885511000,-0.019000000000
28.147572145000,-0.007000000000
28.155258779000,0.002000000000
28.162945413000,0.009000000000
28.170632047000,0.019000000000
28.178318681000,0.031000000000
28.186005315000,0.046000000000
28.193691949000,0.063000000000
28.201378583000,0.072000000000
28.209065217000,0.094000000000
28.216751861000,0.121000000000
28.224437937000,0.136000000000
28.232124013000,0.153000000000
28.239810089000,0.172000000000
28.247496165000,0.182000000000
28.255182241000,0.187000000000
28.262868317000,0.192000000000
28.270554393000,0.194000000000
28.278240469000,0.172000000000
28.285926545000,0.119000000000
28.293612621000,0.058000000000
28.301298697000,0.000000000000
28.308984773000,-0.063000000000
28.316670849000,-0.121000000000
28.324356925000,-0.167000000000
28.332043001000,-0.194000000000
28.339729077000,-0.206000000000
28.347415153000,-0.209000000000
28.355101229000,-0.206000000000
28.362787305000,-0.199000000000
28.370473381000,-0.192000000000
28.378159457000,-0.184000000000
28.385845533000,-0.177000000000
28.393531609000,-0.163000000000
28.401217685000,-0.145000000000
28.408903761000,-0.141000000000
28.416589837000,-0.138000000000
28.424275913000,-0.131000000000
28.431961989000,-0.128000000000
28.439648065000,-0.133000000000
28.447334141000,-0.126000000000
28.455020217000,-0.124000000000
28.462706293000,-0.133000000000
28.470392369000,-0.133000000000
28.478078445000,-0.126000000000
28.485764521000,-0.131000000000
28.493450597000,-0.136000000000
28.501136673000,-0.133000000000
28.508822749000,-0.131000000000
28.516508825000,-0.138000000000
28.524194901000,-0.133000000000
28.531880977000,-0.126000000000
28.539567053000,-0.131000000000
28.547253129000,-0.141000000000
28.554939205000,-0.138000000000
28.562625281000,-0.136000000000
28.570311357000,-0.133000000000
28.577997433000,-0.124000000000
28.585683509000,-0.107000000000
28.593369585000,-0.092000000000
28.601055661000,-0.085000000000
28.608741737000,-0.077000000000
28.616427813000,-0.094000000000
28.624113889000,-0.116000000000
28.631799965000,-0.119000000000
28.639486041000,-0.114000000000
28.647172117000,-0.119000000000
28.654858193000,-0.109000000000
28.662544269000,-0.102000000000
28.670230345000,-0.114000000000
28.677916421000,-0.141000000000
28.685602497000,-0.099000000000
28.693288573000,0.272000000000
28.700974649000,0.912000000000
28.708660725000,1.041000000000
28.716346801000,0.199000000000
28.724032877000,-0.666000000000
28.731718953000,-0.613000000000
28.739405029000,-0.272000000000
28.747091105000,-0.274000000000
28.754777181000,-0.240000000000
28.762463257000,-0.097000000000
28.770149333000,-0.094000000000
28.777835465000,-0.119000000000
28.785521959000,-0.075000000000
28.793208453000,-0.060000000000
28.800894947000,-0.072000000000
28.808581441000,-0.058000000000
28.816267935000,-0.048000000000
28.823954429000,-0.048000000000
28.831640923000,-0.038000000000
28.839327417000,-0.026000000000
28.847013911000,-0.021000000000
28.854700405000,-0.012000000000
28.862386899000,-0.002000000000
28.870073393000,0.004000000000
28.877759887000,0.019000000000
28.885446381000,0.034000000000
28.893132875000,0.043000000000
28.900819369000,0.058000000000
28.908505863000,0.082000000000
28.916192357000,0.104000000000
28.923878851000,0.124000000000
28.931565345000,0.143000000000
28.939251839000,0.158000000000
28.946938333000,0.172000000000
28.954624827000,0.180000000000
28.962311321000,0.180000000000
28.969997815000,0.175000000000
28.977684309000,0.153000000000
28.985370803000,0.107000000000
28.993057297000,0.043000000000
29.000743791000,-0.019000000000
29.008430285000,-0.077000000000
29.016116779000,-0.131000000000
29.023803273000,-0.170000000000
29.031489767000,-0.192000000000
29.039176261000,-0.206000000000
29.046862755000,-0.211000000000
29.054549249000,-0.206000000000
29.062235743000,-0.199000000000
29.069922237000,-0.192000000000
29.077608731000,-0.180000000000
29.085295225000,-0.167000000000
29.092981719000,-0.158000000000
29.100668213000,-0.150000000000
29.108354707000,-0.138000000000
29.116041201000,-0.136000000000
29.123727695000,-0.138000000000
29.131414189000,-0.136000000000
29.139100683000,-0.128000000000
29.146787177000,-0.128000000000
29.154473671000,-0.131000000000
29.162160165000,-0.131000000000
29.169846659000,-0.133000000000
29.177533153000,-0.133000000000
29.185219647000,-0.131000000000
29.192906141000,-0.131000000000
29.200592635000,-0.131000000000
29.208279129000,-0.131000000000
29.215965623000,-0.126000000000
29.223652117000,-0.124000000000
29.231338611000,-0.136000000000
29.239025105000,-0.138000000000
29.246711599000,-0.131000000000
29.254398093000,-0.138000000000
29.262084587000,-0.133000000000
29.269771081000,-0.111000000000
29.277457575000,-0.097000000000
29.285144069000,-0.087000000000
29.292830563000,-0.077000000000
29.300517057000,-0.075000000000
29.308203551000,-0.092000000000
29.315890045000,-0.111000000000
29.323576539000,-0.107000000000
