time,LSB
0.000000000000,0.954000000000
0.007687400000,0.918000000000
0.015374800000,0.110000000000
0.023062200000,-0.581000000000
0.030749600000,-0.521000000000
0.038437000000,-0.269000000000
0.046124400000,-0.254000000000
0.053811800000,-0.192000000000
0.061499200000,-0.076000000000
0.069186600000,-0.081000000000
0.076874000000,-0.096000000000
0.084561400000,-0.060000000000
0.092248800000,-0.043000000000
0.099936200000,-0.043000000000
0.107623600000,-0.028000000000
0.115311000000,-0.019000000000
0.122998400000,-0.016000000000
0.130685800000,-0.009000000000
0.138373200000,0.000000000000
0.146060600000,0.007000000000
0.153748000000,0.016000000000
0.161435400000,0.031000000000
0.169122800000,0.040000000000
0.176810200000,0.052000000000
0.184497600000,0.067000000000
0.192185000000,0.079000000000
0.199872400000,0.088000000000
0.207559800000,0.098000000000
0.215247200000,0.101000000000
0.222934600000,0.103000000000
0.230622000000,0.108000000000
0.238309400000,0.113000000000
0.245996800000,0.113000000000
0.253684200000,0.105000000000
0.261371600000,0.086000000000
0.269059000000,0.052000000000
0.276746400000,0.012000000000
0.284433800000,-0.033000000000
0.292121200000,-0.072000000000
0.299808600000,-0.098000000000
0.307496000000,-0.115000000000
0.315183400000,-0.125000000000
0.322870845000,-0.127000000000
0.330558036000,-0.127000000000
0.338245227000,-0.125000000000
0.345932418000,-0.122000000000
0.353619609000,-0.120000000000
0.361306800000,-0.117000000000
0.368993991000,-0.117000000000
0.376681182000,-0.117000000000
0.384368373000,-0.120000000000
0.392055564000,-0.122000000000
0.399742755000,-0.125000000000
0.407429946000,-0.125000000000
0.415117137000,-0.125000000000
0.422804328000,-0.127000000000
0.430491519000,-0.127000000000
0.438178710000,-0.127000000000
0.445865901000,-0.127000000000
0.453553092000,-0.127000000000
0.461240283000,-0.127000000000
0.468927474000,-0.122000000000
0.476614665000,-0.120000000000
0.484301856000,-0.120000000000
0.491989047000,-0.125000000000
0.499676238000,-0.129000000000
0.507363429000,-0.132000000000
0.515050620000,-0.129000000000
0.522737811000,-0.117000000000
0.530425002000,-0.105000000000
0.538112193000,-0.096000000000
0.545799384000,-0.069000000000
0.553486575000,-0.055000000000
0.561173766000,-0.074000000000
0.568860957000,-0.096000000000
0.576548148000,-0.093000000000
0.584235339000,-0.091000000000
0.591922530000,-0.091000000000
0.599609721000,-0.086000000000
0.607296912000,-0.081000000000
0.614984103000,-0.096000000000
0.622671294000,-0.134000000000
0.630358485000,-0.101000000000
0.638045676000,0.257000000000
0.645732867000,0.853000000000
0.653420058000,0.995000000000
0.661107249000,0.303000000000
0.668794440000,-0.500000000000
0.676481631000,-0.584000000000
0.684168822000,-0.305000000000
0.691856013000,-0.247000000000
0.699543204000,-0.214000000000
0.707230395000,-0.091000000000
0.714917586000,-0.072000000000
0.722604777000,-0.096000000000
0.730291968000,-0.064000000000
0.737979159000,-0.043000000000
0.745666350000,-0.045000000000
0.753353541000,-0.031000000000
0.761040732000,-0.014000000000
0.768727923000,-0.014000000000
0.776415114000,-0.007000000000
0.784102305000,0.002000000000
0.791789496000,0.012000000000
0.799476687000,0.019000000000
0.807163878000,0.031000000000
0.814851069000,0.043000000000
0.822538260000,0.052000000000
0.830225451000,0.064000000000
0.837912642000,0.081000000000
0.845599833000,0.091000000000
0.853287024000,0.096000000000
0.860974215000,0.101000000000
0.868661406000,0.103000000000
0.876348597000,0.105000000000
0.884035829000,0.108000000000
0.891723020000,0.110000000000
0.899410211000,0.105000000000
0.907097402000,0.086000000000
0.914784593000,0.055000000000
0.922471784000,0.019000000000
0.930158975000,-0.026000000000
0.937846166000,-0.079000000000
0.945533357000,-0.110000000000
0.953220548000,-0.120000000000
0.960907739000,-0.127000000000
0.968594930000,-0.132000000000
0.976282121000,-0.129000000000
0.983969312000,-0.127000000000
0.991656503000,-0.125000000000
0.999343694000,-0.120000000000
1.007030885000,-0.117000000000
1.014718076000,-0.117000000000
1.022405267000,-0.117000000000
1.030092458000,-0.115000000000
1.037779649000,-0.117000000000
1.045466840000,-0.120000000000
1.053154031000,-0.120000000000
1.060841222000,-0.120000000000
1.068528413000,-0.122000000000
1.076215604000,-0.122000000000
1.083902795000,-0.122000000000
1.091589986000,-0.120000000000
1.099277177000,-0.120000000000
1.106964368000,-0.120000000000
1.114651559000,-0.117000000000
1.122338750000,-0.115000000000
1.130025941000,-0.117000000000
1.137713132000,-0.125000000000
1.145400323000,-0.129000000000
1.153087514000,-0.127000000000
1.160774705000,-0.120000000000
1.168461896000,-0.108000000000
1.176149087000,-0.103000000000
1.183836278000,-0.088000000000
1.191523469000,-0.060000000000
1.199210660000,-0.052000000000
1.206897851000,-0.079000000000
1.214585042000,-0.093000000000
1.222272233000,-0.088000000000
1.229959424000,-0.088000000000
1.237646615000,-0.088000000000
1.245333806000,-0.084000000000
1.253020997000,-0.081000000000
1.260708188000,-0.105000000000
1.268395379000,-0.144000000000
1.276082570000,-0.031000000000
1.283769761000,0.449000000000
1.291456952000,0.985000000000
1.299144143000,0.846000000000
1.306831334000,-0.002000000000
1.314518525000,-0.620000000000
1.322205716000,-0.495000000000
1.329892907000,-0.259000000000
1.337580098000,-0.257000000000
1.345267289000,-0.180000000000
1.352954480000,-0.072000000000
1.360641671000,-0.088000000000
1.368328862000,-0.098000000000
1.376016053000,-0.057000000000
1.383703244000,-0.048000000000
1.391390435000,-0.048000000000
1.399077626000,-0.031000000000
1.406764817000,-0.021000000000
1.414452008000,-0.019000000000
1.422139199000,-0.012000000000
1.429826390000,-0.002000000000
1.437513581000,0.004000000000
1.445200813000,0.014000000000
1.452887934000,0.026000000000
1.460575055000,0.038000000000
1.468262176000,0.052000000000
1.475949297000,0.064000000000
1.483636418000,0.076000000000
1.491323539000,0.088000000000
1.499010660000,0.098000000000
1.506697781000,0.105000000000
1.514384902000,0.110000000000
1.522072023000,0.110000000000
1.529759144000,0.108000000000
1.537446265000,0.108000000000
1.545133386000,0.098000000000
1.552820507000,0.076000000000
1.560507628000,0.040000000000
1.568194749000,-0.002000000000
1.575881870000,-0.048000000000
1.583568991000,-0.084000000000
1.591256112000,-0.110000000000
1.598943233000,-0.125000000000
1.606630354000,-0.132000000000
1.614317475000,-0.132000000000
1.622004596000,-0.129000000000
1.629691717000,-0.127000000000
1.637378838000,-0.125000000000
1.645065959000,-0.122000000000
1.652753080000,-0.122000000000
1.660440201000,-0.120000000000
1.668127322000,-0.120000000000
1.675814443000,-0.120000000000
1.683501564000,-0.120000000000
1.691188685000,-0.122000000000
1.698875806000,-0.125000000000
1.706562927000,-0.125000000000
1.714250048000,-0.127000000000
1.721937169000,-0.127000000000
1.729624290000,-0.125000000000
1.737311411000,-0.125000000000
1.744998532000,-0.125000000000
1.752685653000,-0.122000000000
1.760372774000,-0.122000000000
1.768059895000,-0.127000000000
1.775747016000,-0.132000000000
1.783434137000,-0.137000000000
1.791121258000,-0.134000000000
1.798808379000,-0.125000000000
1.806495500000,-0.113000000000
1.814182621000,-0.108000000000
1.821869742000,-0.088000000000
1.829556863000,-0.062000000000
1.837243984000,-0.064000000000
1.844931105000,-0.091000000000
1.852618226000,-0.098000000000
1.860305347000,-0.093000000000
1.867992468000,-0.093000000000
1.875679589000,-0.091000000000
1.883366710000,-0.086000000000
1.891053831000,-0.088000000000
1.898740952000,-0.115000000000
1.906428073000,-0.146000000000
1.914115194000,0.014000000000
1.921802315000,0.545000000000
1.929489436000,1.024000000000
1.937176557000,0.745000000000
1.944863678000,-0.137000000000
1.952550799000,-0.634000000000
1.960237920000,-0.437000000000
1.967925041000,-0.242000000000
1.975612162000,-0.250000000000
1.983299283000,-0.153000000000
1.990986404000,-0.064000000000
1.998673525000,-0.088000000000
2.006360710000,-0.086000000000
2.014047831000,-0.048000000000
2.021734952000,-0.043000000000
2.029422073000,-0.043000000000
2.037109194000,-0.026000000000
2.044796315000,-0.014000000000
2.052483436000,-0.012000000000
2.060170557000,-0.002000000000
2.067857678000,0.004000000000
2.075544799000,0.012000000000
2.083231920000,0.024000000000
2.090919041000,0.036000000000
2.098606162000,0.045000000000
2.106293283000,0.057000000000
2.113980404000,0.069000000000
2.121667525000,0.084000000000
2.129354646000,0.096000000000
2.137041767000,0.105000000000
2.144728888000,0.108000000000
2.152416009000,0.110000000000
2.160103130000,0.115000000000
2.167790251000,0.117000000000
2.175477372000,0.117000000000
2.183164493000,0.105000000000
2.190851614000,0.079000000000
2.198538735000,0.043000000000
2.206225856000,-0.004000000000
2.213912977000,-0.050000000000
2.221600098000,-0.084000000000
2.229287219000,-0.103000000000
2.236974340000,-0.117000000000
2.244661461000,-0.125000000000
2.252348582000,-0.125000000000
2.260035703000,-0.125000000000
2.267722824000,-0.122000000000
2.275409945000,-0.120000000000
2.283097066000,-0.117000000000
2.290784187000,-0.115000000000
2.298471308000,-0.115000000000
2.306158429000,-0.115000000000
2.313845550000,-0.117000000000
2.321532671000,-0.117000000000
2.329219792000,-0.117000000000
2.336906913000,-0.120000000000
2.344594034000,-0.122000000000
2.352281155000,-0.122000000000
2.359968276000,-0.122000000000
2.367655397000,-0.122000000000
2.375342518000,-0.122000000000
2.383029639000,-0.122000000000
2.390716760000,-0.120000000000
2.398403881000,-0.122000000000
2.406091002000,-0.125000000000
2.413778123000,-0.129000000000
2.421465244000,-0.132000000000
2.429152365000,-0.129000000000
2.436839486000,-0.120000000000
2.444526607000,-0.108000000000
2.452213728000,-0.101000000000
2.459900849000,-0.076000000000
2.467587970000,-0.052000000000
2.475275091000,-0.067000000000
2.482962212000,-0.093000000000
2.490649333000,-0.096000000000
2.498336454000,-0.088000000000
2.506023575000,-0.091000000000
2.513710696000,-0.088000000000
2.521397817000,-0.086000000000
2.529084938000,-0.093000000000
2.536772059000,-0.132000000000
2.544459180000,-0.137000000000
2.552146301000,0.132000000000
2.559833422000,0.726000000000
2.567520607000,1.034000000000
2.575207728000,0.502000000000
2.582894849000,-0.365000000000
2.590581970000,-0.625000000000
2.598269091000,-0.353000000000
2.605956212000,-0.240000000000
2.613643333000,-0.235000000000
2.621330454000,-0.117000000000
2.629017575000,-0.067000000000
2.636704696000,-0.098000000000
2.644391817000,-0.079000000000
2.652078938000,-0.048000000000
2.659766059000,-0.048000000000
2.667453180000,-0.040000000000
2.675140301000,-0.024000000000
2.682827422000,-0.019000000000
2.690514543000,-0.014000000000
2.698201664000,-0.002000000000
2.705888785000,0.007000000000
2.713575906000,0.014000000000
2.721263027000,0.024000000000
2.728950148000,0.036000000000
2.736637269000,0.045000000000
2.744324390000,0.060000000000
2.752011511000,0.074000000000
2.759698632000,0.086000000000
2.767385753000,0.093000000000
2.775072874000,0.098000000000
2.782759995000,0.103000000000
2.790447116000,0.110000000000
2.798134237000,0.115000000000
2.805821358000,0.117000000000
2.813508479000,0.113000000000
2.821195600000,0.096000000000
2.828882721000,0.069000000000
2.836569842000,0.028000000000
2.844256963000,-0.016000000000
2.851944084000,-0.060000000000
2.859631205000,-0.088000000000
2.867318326000,-0.108000000000
2.875005447000,-0.122000000000
2.882692568000,-0.125000000000
2.890379689000,-0.125000000000
2.898066810000,-0.122000000000
2.905753931000,-0.120000000000
2.913441052000,-0.117000000000
2.921128173000,-0.120000000000
2.928815294000,-0.117000000000
2.936502415000,-0.117000000000
2.944189536000,-0.115000000000
2.951876657000,-0.117000000000
2.959563778000,-0.117000000000
2.967250899000,-0.120000000000
2.974938020000,-0.120000000000
2.982625141000,-0.122000000000
2.990312262000,-0.122000000000
2.997999383000,-0.125000000000
3.005686504000,-0.125000000000
3.013373625000,-0.122000000000
3.021060746000,-0.122000000000
3.028747867000,-0.125000000000
3.036434988000,-0.129000000000
3.044122109000,-0.134000000000
3.051809230000,-0.137000000000
3.059496351000,-0.134000000000
3.067183472000,-0.127000000000
3.074870593000,-0.115000000000
3.082557714000,-0.108000000000
3.090244835000,-0.091000000000
3.097931956000,-0.060000000000
3.105619077000,-0.062000000000
3.113306198000,-0.088000000000
3.120993319000,-0.096000000000
3.128680504000,-0.091000000000
3.136367625000,-0.093000000000
3.144054746000,-0.093000000000
3.151741867000,-0.086000000000
3.159428988000,-0.086000000000
3.167116109000,-0.113000000000
3.174803230000,-0.151000000000
3.182490351000,-0.014000000000
3.190177472000,0.497000000000
3.197864593000,1.002000000000
3.205551714000,0.786000000000
3.213238835000,-0.079000000000
3.220925956000,-0.625000000000
3.228613077000,-0.456000000000
3.236300198000,-0.245000000000
3.243987319000,-0.252000000000
3.251674440000,-0.165000000000
3.259361561000,-0.069000000000
3.267048682000,-0.091000000000
3.274735803000,-0.091000000000
3.282422924000,-0.052000000000
3.290110045000,-0.048000000000
3.297797166000,-0.045000000000
3.305484287000,-0.028000000000
3.313171408000,-0.019000000000
3.320858529000,-0.016000000000
3.328545650000,-0.007000000000
3.336232771000,0.002000000000
3.343919892000,0.009000000000
3.351607013000,0.021000000000
3.359294134000,0.033000000000
3.366981255000,0.043000000000
3.374668376000,0.055000000000
3.382355497000,0.067000000000
3.390042618000,0.079000000000
3.397729739000,0.091000000000
3.405416860000,0.096000000000
3.413103981000,0.098000000000
3.420791102000,0.101000000000
3.428478223000,0.103000000000
3.436165344000,0.105000000000
3.443852465000,0.105000000000
3.451539586000,0.096000000000
3.459226707000,0.074000000000
3.466913828000,0.040000000000
3.474600949000,-0.004000000000
3.482288070000,-0.048000000000
3.489975191000,-0.081000000000
3.497662312000,-0.103000000000
3.505349433000,-0.120000000000
3.513036554000,-0.127000000000
3.520723675000,-0.127000000000
3.528410796000,-0.127000000000
3.536097917000,-0.125000000000
3.543785038000,-0.122000000000
3.551472159000,-0.122000000000
3.559159280000,-0.120000000000
3.566846401000,-0.117000000000
3.574533522000,-0.120000000000
3.582220643000,-0.122000000000
3.589907764000,-0.122000000000
3.597594885000,-0.122000000000
3.605282006000,-0.125000000000
3.612969127000,-0.127000000000
3.620656248000,-0.127000000000
3.628343369000,-0.127000000000
3.636030490000,-0.127000000000
3.643717611000,-0.125000000000
3.651404732000,-0.122000000000
3.659091853000,-0.127000000000
3.666778974000,-0.134000000000
3.674466095000,-0.139000000000
3.682153216000,-0.141000000000
3.689840401000,-0.137000000000
3.697527522000,-0.122000000000
3.705214643000,-0.113000000000
3.712901764000,-0.108000000000
3.720588885000,-0.079000000000
3.728276006000,-0.060000000000
3.735963127000,-0.079000000000
3.743650248000,-0.103000000000
3.751337369000,-0.101000000000
3.759024490000,-0.098000000000
3.766711611000,-0.101000000000
3.774398732000,-0.093000000000
3.782085853000,-0.088000000000
3.789772974000,-0.101000000000
3.797460095000,-0.144000000000
3.805147216000,-0.129000000000
3.812834337000,0.194000000000
3.820521458000,0.798000000000
3.828208579000,1.007000000000
3.835895700000,0.370000000000
3.843582821000,-0.461000000000
3.851269942000,-0.603000000000
3.858957063000,-0.322000000000
3.866644184000,-0.245000000000
3.874331305000,-0.226000000000
3.882018426000,-0.103000000000
3.889705547000,-0.072000000000
3.897392668000,-0.098000000000
3.905079789000,-0.072000000000
3.912766910000,-0.045000000000
3.920454031000,-0.048000000000
3.928141152000,-0.038000000000
3.935828273000,-0.021000000000
3.943515394000,-0.019000000000
3.951202515000,-0.012000000000
3.958889636000,-0.002000000000
3.966576757000,0.004000000000
3.974263878000,0.014000000000
3.981950999000,0.026000000000
3.989638120000,0.036000000000
3.997325241000,0.048000000000
4.005012362000,0.060000000000
4.012699483000,0.072000000000
4.020386604000,0.081000000000
4.028073725000,0.091000000000
4.035760846000,0.096000000000
4.043447967000,0.098000000000
4.051135088000,0.098000000000
4.058822209000,0.101000000000
4.066509330000,0.103000000000
4.074196451000,0.096000000000
4.081883572000,0.079000000000
4.089570693000,0.050000000000
4.097257814000,0.009000000000
4.104944935000,-0.036000000000
4.112632056000,-0.074000000000
4.120319177000,-0.101000000000
4.128006298000,-0.120000000000
4.135693419000,-0.132000000000
4.143380540000,-0.134000000000
4.151067661000,-0.132000000000
4.158754782000,-0.129000000000
4.166441903000,-0.127000000000
4.174129024000,-0.122000000000
4.181816145000,-0.122000000000
4.189503266000,-0.122000000000
4.197190387000,-0.120000000000
4.204877508000,-0.122000000000
4.212564629000,-0.125000000000
4.220251750000,-0.125000000000
4.227938871000,-0.127000000000
4.235625992000,-0.132000000000
4.243313113000,-0.134000000000
4.251000298000,-0.134000000000
4.258687419000,-0.137000000000
4.266374540000,-0.139000000000
4.274061661000,-0.137000000000
4.281748782000,-0.139000000000
4.289435903000,-0.146000000000
4.297123024000,-0.151000000000
4.304810145000,-0.151000000000
4.312497266000,-0.149000000000
4.320184387000,-0.141000000000
4.327871508000,-0.129000000000
4.335558629000,-0.122000000000
4.343245750000,-0.096000000000
4.350932871000,-0.074000000000
4.358619992000,-0.093000000000
4.366307113000,-0.117000000000
4.373994234000,-0.113000000000
4.381681355000,-0.110000000000
4.389368476000,-0.115000000000
4.397055597000,-0.110000000000
4.404742718000,-0.105000000000
4.412429839000,-0.117000000000
4.420116960000,-0.156000000000
4.427804081000,-0.153000000000
4.435491202000,0.139000000000
4.443178323000,0.740000000000
4.450865444000,1.002000000000
4.458552565000,0.418000000000
4.466239686000,-0.428000000000
4.473926807000,-0.625000000000
4.481613928000,-0.351000000000
4.489301049000,-0.259000000000
4.496988170000,-0.250000000000
4.504675291000,-0.132000000000
4.512362412000,-0.093000000000
4.520049533000,-0.120000000000
4.527736654000,-0.096000000000
4.535423775000,-0.067000000000
4.543110896000,-0.067000000000
4.550798017000,-0.060000000000
4.558485138000,-0.048000000000
4.566172259000,-0.040000000000
4.573859380000,-0.033000000000
4.581546501000,-0.024000000000
4.589233622000,-0.014000000000
4.596920743000,-0.007000000000
4.604607864000,0.002000000000
4.612294985000,0.014000000000
4.619982106000,0.026000000000
4.627669227000,0.038000000000
4.635356348000,0.048000000000
4.643043469000,0.060000000000
4.650730590000,0.067000000000
4.658417711000,0.072000000000
4.666104832000,0.076000000000
4.673791953000,0.081000000000
4.681479074000,0.081000000000
4.689166195000,0.084000000000
4.696853316000,0.084000000000
4.704540437000,0.062000000000
4.712227558000,0.028000000000
4.719914679000,-0.004000000000
4.727601800000,-0.050000000000
4.735288921000,-0.093000000000
4.742976042000,-0.120000000000
4.750663163000,-0.134000000000
4.758350284000,-0.144000000000
4.766037405000,-0.149000000000
4.773724526000,-0.146000000000
4.781411647000,-0.144000000000
4.789098768000,-0.141000000000
4.796785889000,-0.137000000000
4.804473010000,-0.137000000000
4.812160195000,-0.134000000000
4.819847386000,-0.134000000000
4.827534577000,-0.134000000000
4.835221768000,-0.137000000000
4.842908959000,-0.139000000000
4.850596150000,-0.141000000000
4.858283341000,-0.146000000000
4.865970532000,-0.149000000000
4.873657723000,-0.151000000000
4.881344914000,-0.153000000000
4.889032105000,-0.151000000000
4.896719296000,-0.153000000000
4.904406487000,-0.158000000000
4.912093678000,-0.163000000000
4.919780869000,-0.170000000000
4.927468060000,-0.168000000000
4.935155251000,-0.158000000000
4.942842442000,-0.149000000000
4.950529633000,-0.146000000000
4.958216824000,-0.129000000000
4.965904015000,-0.098000000000
4.973591206000,-0.098000000000
4.981278397000,-0.125000000000
4.988965588000,-0.137000000000
4.996652779000,-0.129000000000
5.004339970000,-0.129000000000
5.012027161000,-0.129000000000
5.019714352000,-0.122000000000
5.027401543000,-0.125000000000
5.035088734000,-0.153000000000
5.042775925000,-0.187000000000
5.050463116000,-0.036000000000
5.058150307000,0.495000000000
5.065837498000,0.978000000000
5.073524689000,0.699000000000
5.081211880000,-0.182000000000
5.088899071000,-0.678000000000
5.096586262000,-0.478000000000
5.104273453000,-0.276000000000
5.111960644000,-0.286000000000
5.119647835000,-0.197000000000
5.127335026000,-0.103000000000
5.135022217000,-0.127000000000
5.142709408000,-0.129000000000
5.150396599000,-0.088000000000
5.158083790000,-0.081000000000
5.165770981000,-0.081000000000
5.173458172000,-0.062000000000
5.181145363000,-0.050000000000
5.188832554000,-0.048000000000
5.196519745000,-0.043000000000
5.204206936000,-0.026000000000
5.211894127000,-0.016000000000
5.219581318000,-0.014000000000
5.227268509000,0.000000000000
5.234955700000,0.019000000000
5.242642891000,0.033000000000
5.250330082000,0.043000000000
5.258017273000,0.055000000000
5.265704464000,0.064000000000
5.273391655000,0.074000000000
5.281078846000,0.079000000000
5.288766037000,0.074000000000
5.296453228000,0.076000000000
5.304140419000,0.086000000000
5.311827610000,0.084000000000
5.319514801000,0.069000000000
5.327201992000,0.048000000000
5.334889183000,0.012000000000
5.342576374000,-0.036000000000
5.350263565000,-0.076000000000
5.357950756000,-0.108000000000
5.365637947000,-0.132000000000
5.373325183000,-0.151000000000
5.381012374000,-0.153000000000
5.388699565000,-0.146000000000
5.396386756000,-0.149000000000
5.404073947000,-0.149000000000
5.411761138000,-0.144000000000
5.419448329000,-0.141000000000
5.427135520000,-0.141000000000
5.434822711000,-0.139000000000
5.442509902000,-0.137000000000
5.450197093000,-0.144000000000
5.457884284000,-0.151000000000
5.465571475000,-0.149000000000
5.473258666000,-0.141000000000
5.480945857000,-0.144000000000
5.488633048000,-0.146000000000
5.496320239000,-0.146000000000
5.504007430000,-0.151000000000
5.511694621000,-0.161000000000
5.519381812000,-0.161000000000
5.527069003000,-0.158000000000
5.534756194000,-0.156000000000
5.542443385000,-0.151000000000
5.550130576000,-0.146000000000
5.557817767000,-0.129000000000
5.565504958000,-0.098000000000
5.573192149000,-0.088000000000
5.580879340000,-0.113000000000
5.588566531000,-0.127000000000
5.596253722000,-0.125000000000
5.603940913000,-0.125000000000
5.611628104000,-0.125000000000
5.619315295000,-0.117000000000
5.627002486000,-0.115000000000
5.634689677000,-0.137000000000
5.642376868000,-0.170000000000
5.650064059000,-0.048000000000
5.657751250000,0.444000000000
5.665438441000,0.949000000000
5.673125632000,0.692000000000
5.680812823000,-0.238000000000
5.688500014000,-0.771000000000
5.696187205000,-0.553000000000
5.703874396000,-0.319000000000
5.711561587000,-0.310000000000
5.719248778000,-0.194000000000
5.726935969000,-0.069000000000
5.734623160000,-0.081000000000
5.742310351000,-0.091000000000
5.749997542000,-0.050000000000
5.757684733000,-0.040000000000
5.765371924000,-0.038000000000
5.773059115000,-0.021000000000
5.780746306000,-0.012000000000
5.788433497000,-0.007000000000
5.796120688000,0.009000000000
5.803807879000,0.019000000000
5.811495070000,0.028000000000
5.819182261000,0.043000000000
5.826869452000,0.062000000000
5.834556643000,0.074000000000
5.842243834000,0.086000000000
5.849931025000,0.105000000000
5.857618216000,0.127000000000
5.865305407000,0.144000000000
5.872992598000,0.153000000000
5.880679789000,0.161000000000
5.888366980000,0.163000000000
5.896054171000,0.163000000000
5.903741362000,0.163000000000
5.911428553000,0.156000000000
5.919115744000,0.137000000000
5.926802935000,0.105000000000
5.934490167000,0.067000000000
5.942177567000,0.009000000000
5.949864967000,-0.050000000000
5.957552367000,-0.088000000000
5.965239767000,-0.113000000000
5.972927167000,-0.129000000000
5.980614567000,-0.137000000000
5.988301967000,-0.134000000000
5.995989367000,-0.134000000000
6.003676767000,-0.129000000000
6.011364167000,-0.122000000000
6.019051567000,-0.115000000000
6.026738967000,-0.113000000000
6.034426367000,-0.110000000000
6.042113767000,-0.113000000000
6.049801167000,-0.115000000000
6.057488567000,-0.117000000000
6.065175967000,-0.117000000000
6.072863367000,-0.115000000000
6.080550767000,-0.120000000000
6.088238167000,-0.125000000000
6.095925567000,-0.134000000000
6.103612967000,-0.139000000000
6.111300367000,-0.137000000000
6.118987767000,-0.134000000000
6.126675167000,-0.129000000000
6.134362567000,-0.122000000000
6.142049967000,-0.117000000000
6.149737367000,-0.096000000000
6.157424767000,-0.069000000000
6.165112167000,-0.079000000000
6.172799567000,-0.103000000000
6.180486967000,-0.105000000000
6.188174367000,-0.101000000000
6.195861767000,-0.101000000000
6.203549167000,-0.096000000000
6.211236567000,-0.093000000000
6.218923967000,-0.103000000000
6.226611367000,-0.144000000000
6.234298767000,-0.156000000000
6.241986167000,0.110000000000
6.249673567000,0.709000000000
6.257360967000,1.002000000000
6.265048367000,0.425000000000
6.272735767000,-0.452000000000
6.280423167000,-0.663000000000
6.288110567000,-0.360000000000
6.295797967000,-0.250000000000
6.303485367000,-0.247000000000
6.311172767000,-0.117000000000
6.318860167000,-0.057000000000
6.326547567000,-0.088000000000
6.334234967000,-0.069000000000
6.341922367000,-0.036000000000
6.349609767000,-0.036000000000
6.357297167000,-0.031000000000
6.364984567000,-0.016000000000
6.372671967000,-0.012000000000
6.380359367000,-0.007000000000
6.388046767000,0.004000000000
6.395734167000,0.014000000000
6.403421567000,0.024000000000
6.411108967000,0.036000000000
6.418796367000,0.048000000000
6.426483767000,0.062000000000
6.434171167000,0.074000000000
6.441858567000,0.086000000000
6.449545967000,0.098000000000
6.457233367000,0.115000000000
6.464920767000,0.120000000000
6.472608167000,0.117000000000
6.480295567000,0.122000000000
6.487982967000,0.129000000000
6.495670408000,0.129000000000
6.503357529000,0.122000000000
6.511044650000,0.108000000000
6.518731771000,0.081000000000
6.526418892000,0.040000000000
6.534106013000,-0.004000000000
6.541793134000,-0.050000000000
6.549480255000,-0.079000000000
6.557167376000,-0.096000000000
6.564854497000,-0.105000000000
6.572541618000,-0.110000000000
6.580228739000,-0.108000000000
6.587915860000,-0.103000000000
6.595602981000,-0.098000000000
6.603290102000,-0.093000000000
6.610977223000,-0.093000000000
6.618664344000,-0.093000000000
6.626351465000,-0.096000000000
6.634038586000,-0.093000000000
6.641725707000,-0.091000000000
6.649412828000,-0.096000000000
6.657099949000,-0.096000000000
6.664787070000,-0.098000000000
6.672474191000,-0.110000000000
6.680161312000,-0.117000000000
6.687848433000,-0.117000000000
6.695535554000,-0.122000000000
6.703222675000,-0.122000000000
6.710909796000,-0.110000000000
6.718596917000,-0.103000000000
6.726284038000,-0.096000000000
6.733971159000,-0.069000000000
6.741658280000,-0.043000000000
6.749345401000,-0.060000000000
6.757032522000,-0.091000000000
6.764719643000,-0.093000000000
6.772406764000,-0.086000000000
6.780093885000,-0.091000000000
6.787781006000,-0.091000000000
6.795468127000,-0.084000000000
6.803155248000,-0.088000000000
6.810842369000,-0.132000000000
6.818529490000,-0.168000000000
6.826216611000,0.064000000000
6.833903732000,0.663000000000
6.841590853000,1.070000000000
6.849277974000,0.658000000000
6.856965095000,-0.214000000000
6.864652216000,-0.562000000000
6.872339337000,-0.312000000000
6.880026458000,-0.185000000000
6.887713579000,-0.216000000000
6.895400700000,-0.122000000000
6.903087821000,-0.067000000000
6.910774942000,-0.098000000000
6.918462063000,-0.081000000000
6.926149184000,-0.048000000000
6.933836305000,-0.050000000000
6.941523426000,-0.045000000000
6.949210547000,-0.024000000000
6.956897668000,-0.014000000000
6.964584789000,-0.014000000000
6.972271910000,-0.009000000000
6.979959031000,-0.002000000000
6.987646152000,0.004000000000
6.995333273000,0.014000000000
7.003020394000,0.028000000000
7.010707515000,0.043000000000
7.018394636000,0.055000000000
7.026081757000,0.064000000000
7.033768878000,0.074000000000
7.041455999000,0.074000000000
7.049143120000,0.072000000000
7.056830305000,0.069000000000
7.064517426000,0.064000000000
7.072204547000,0.060000000000
7.079891668000,0.060000000000
7.087578789000,0.057000000000
7.095265910000,0.048000000000
7.102953031000,0.031000000000
7.110640152000,0.009000000000
7.118327273000,-0.019000000000
7.126014394000,-0.045000000000
7.133701515000,-0.064000000000
7.141388636000,-0.079000000000
7.149075757000,-0.088000000000
7.156762878000,-0.088000000000
7.164449999000,-0.088000000000
7.172137120000,-0.086000000000
7.179824241000,-0.081000000000
7.187511362000,-0.081000000000
7.195198483000,-0.081000000000
7.202885604000,-0.079000000000
7.210572725000,-0.076000000000
7.218259846000,-0.079000000000
7.225946967000,-0.079000000000
7.233634088000,-0.076000000000
7.241321209000,-0.076000000000
7.249008330000,-0.084000000000
7.256695451000,-0.086000000000
7.264382572000,-0.088000000000
7.272069693000,-0.091000000000
7.279756814000,-0.101000000000
7.287443935000,-0.110000000000
7.295131056000,-0.108000000000
7.302818177000,-0.103000000000
7.310505298000,-0.091000000000
7.318192419000,-0.084000000000
7.325879540000,-0.076000000000
7.333566661000,-0.052000000000
7.341253782000,-0.033000000000
7.348940903000,-0.052000000000
7.356628024000,-0.076000000000
7.364315145000,-0.076000000000
7.372002266000,-0.072000000000
7.379689387000,-0.074000000000
7.387376508000,-0.074000000000
7.395063629000,-0.069000000000
7.402750750000,-0.081000000000
7.410437871000,-0.129000000000
7.418124992000,-0.139000000000
7.425812113000,0.153000000000
7.433499234000,0.769000000000
7.441186355000,1.060000000000
7.448873476000,0.509000000000
7.456560597000,-0.336000000000
7.464247718000,-0.569000000000
7.471934839000,-0.305000000000
7.479621960000,-0.206000000000
7.487309081000,-0.206000000000
7.494996202000,-0.101000000000
7.502683323000,-0.062000000000
7.510370444000,-0.091000000000
7.518057565000,-0.067000000000
7.525744686000,-0.038000000000
7.533431807000,-0.040000000000
7.541118928000,-0.033000000000
7.548806049000,-0.016000000000
7.556493170000,-0.012000000000
7.564180291000,-0.007000000000
7.571867412000,0.000000000000
7.579554533000,0.007000000000
7.587241654000,0.019000000000
7.594928775000,0.028000000000
7.602615896000,0.040000000000
7.610303017000,0.052000000000
7.617990202000,0.064000000000
7.625677323000,0.074000000000
7.633364444000,0.084000000000
7.641051565000,0.086000000000
7.648738686000,0.086000000000
7.656425807000,0.084000000000
7.664112928000,0.081000000000
7.671800049000,0.084000000000
7.679487170000,0.088000000000
7.687174291000,0.084000000000
7.694861412000,0.067000000000
7.702548533000,0.048000000000
7.710235654000,0.021000000000
7.717922775000,-0.012000000000
7.725609896000,-0.048000000000
7.733297017000,-0.074000000000
7.740984138000,-0.091000000000
7.748671259000,-0.096000000000
7.756358380000,-0.098000000000
7.764045501000,-0.098000000000
7.771732622000,-0.096000000000
7.779419743000,-0.093000000000
7.787106864000,-0.091000000000
7.794793985000,-0.086000000000
7.802481106000,-0.084000000000
7.810168227000,-0.086000000000
7.817855348000,-0.086000000000
7.825542469000,-0.088000000000
7.833229590000,-0.091000000000
7.840916711000,-0.091000000000
7.848603832000,-0.091000000000
7.856290953000,-0.096000000000
7.863978074000,-0.098000000000
7.871665195000,-0.096000000000
7.879352316000,-0.096000000000
7.887039437000,-0.101000000000
7.894726558000,-0.103000000000
7.902413679000,-0.103000000000
7.910100800000,-0.108000000000
7.917787921000,-0.115000000000
7.925475042000,-0.105000000000
7.933162163000,-0.088000000000
7.940849284000,-0.084000000000
7.948536405000,-0.076000000000
7.956223526000,-0.048000000000
7.963910647000,-0.036000000000
7.971597768000,-0.060000000000
7.979284889000,-0.079000000000
7.986972010000,-0.076000000000
7.994659131000,-0.072000000000
8.002346252000,-0.072000000000
8.010033373000,-0.069000000000
8.017720494000,-0.072000000000
8.025407615000,-0.086000000000
8.033094736000,-0.122000000000
8.040781857000,-0.074000000000
8.048468978000,0.319000000000
8.056156099000,0.923000000000
8.063843220000,0.985000000000
8.071530341000,0.221000000000
8.079217462000,-0.548000000000
8.086904583000,-0.572000000000
8.094591704000,-0.286000000000
8.102278825000,-0.235000000000
8.109965946000,-0.202000000000
8.117653067000,-0.081000000000
8.125340188000,-0.062000000000
8.133027309000,-0.081000000000
8.140714430000,-0.045000000000
8.148401551000,-0.026000000000
8.156088672000,-0.036000000000
8.163775793000,-0.024000000000
8.171462914000,-0.004000000000
8.179150099000,0.000000000000
8.186837220000,0.007000000000
8.194524341000,0.016000000000
8.202211462000,0.024000000000
8.209898583000,0.036000000000
8.217585704000,0.052000000000
8.225272825000,0.062000000000
8.232959946000,0.069000000000
8.240647067000,0.086000000000
8.248334188000,0.108000000000
8.256021309000,0.117000000000
8.263708430000,0.117000000000
8.271395551000,0.125000000000
8.279082672000,0.129000000000
8.286769793000,0.127000000000
8.294456914000,0.132000000000
8.302144035000,0.139000000000
8.309831156000,0.132000000000
8.317518277000,0.110000000000
8.325205398000,0.086000000000
8.332892519000,0.048000000000
8.340579640000,0.002000000000
8.348266761000,-0.036000000000
8.355953882000,-0.064000000000
8.363641003000,-0.081000000000
8.371328124000,-0.093000000000
8.379015245000,-0.096000000000
8.386702366000,-0.098000000000
8.394389487000,-0.101000000000
8.402076608000,-0.096000000000
8.409763729000,-0.091000000000
8.417450850000,-0.088000000000
8.425137971000,-0.088000000000
8.432825092000,-0.088000000000
8.440512213000,-0.096000000000
8.448199334000,-0.101000000000
8.455886455000,-0.098000000000
8.463573576000,-0.101000000000
8.471260697000,-0.110000000000
8.478947818000,-0.113000000000
8.486634939000,-0.110000000000
8.494322060000,-0.110000000000
8.502009181000,-0.113000000000
8.509696302000,-0.113000000000
8.517383423000,-0.117000000000
8.525070544000,-0.122000000000
8.532757665000,-0.122000000000
8.540444786000,-0.120000000000
8.548131907000,-0.110000000000
8.555819028000,-0.103000000000
8.563506149000,-0.091000000000
8.571193270000,-0.064000000000
8.578880391000,-0.050000000000
8.586567512000,-0.069000000000
8.594254633000,-0.091000000000
8.601941754000,-0.088000000000
8.609628875000,-0.088000000000
8.617315996000,-0.091000000000
8.625003117000,-0.084000000000
8.632690238000,-0.081000000000
8.640377359000,-0.096000000000
8.648064480000,-0.127000000000
8.655751601000,-0.064000000000
8.663438722000,0.336000000000
8.671125843000,0.933000000000
8.678812964000,0.947000000000
8.686500085000,0.108000000000
8.694187206000,-0.656000000000
8.701874327000,-0.620000000000
8.709561448000,-0.331000000000
8.717248569000,-0.290000000000
8.724935690000,-0.228000000000
8.732622811000,-0.086000000000
8.740310000000,-0.064000000000
8.747997121000,-0.084000000000
8.755684242000,-0.050000000000
8.763371363000,-0.031000000000
8.771058484000,-0.036000000000
8.778745605000,-0.021000000000
8.786432726000,-0.007000000000
8.794119847000,-0.007000000000
8.801806968000,-0.002000000000
8.809494089000,0.012000000000
8.817181210000,0.028000000000
8.824868331000,0.040000000000
8.832555452000,0.048000000000
8.840242573000,0.057000000000
8.847929694000,0.074000000000
8.855616815000,0.088000000000
8.863303936000,0.101000000000
8.870991057000,0.115000000000
8.878678178000,0.127000000000
8.886365299000,0.132000000000
8.894052420000,0.132000000000
8.901739541000,0.132000000000
8.909426662000,0.134000000000
8.917113783000,0.137000000000
8.924800904000,0.129000000000
8.932488025000,0.108000000000
8.940175146000,0.072000000000
8.947862267000,0.026000000000
8.955549388000,-0.021000000000
8.963236509000,-0.067000000000
8.970923630000,-0.098000000000
8.978610751000,-0.113000000000
8.986297872000,-0.125000000000
8.993984993000,-0.129000000000
9.001672114000,-0.129000000000
9.009359235000,-0.122000000000
9.017046356000,-0.117000000000
9.024733477000,-0.113000000000
9.032420598000,-0.110000000000
9.040107719000,-0.110000000000
9.047794840000,-0.110000000000
9.055481961000,-0.113000000000
9.063169082000,-0.115000000000
9.070856203000,-0.117000000000
9.078543324000,-0.122000000000
9.086230445000,-0.127000000000
9.093917566000,-0.129000000000
9.101604687000,-0.129000000000
9.109291808000,-0.132000000000
9.116978929000,-0.132000000000
9.124666050000,-0.134000000000
9.132353171000,-0.137000000000
9.140040292000,-0.141000000000
9.147727413000,-0.146000000000
9.155414534000,-0.146000000000
9.163101655000,-0.141000000000
9.170788776000,-0.132000000000
9.178475897000,-0.125000000000
9.186163018000,-0.113000000000
9.193850139000,-0.084000000000
9.201537260000,-0.067000000000
9.209224381000,-0.088000000000
9.216911502000,-0.110000000000
9.224598623000,-0.105000000000
9.232285744000,-0.101000000000
9.239972865000,-0.103000000000
9.247659986000,-0.101000000000
9.255347107000,-0.098000000000
9.263034228000,-0.105000000000
9.270721349000,-0.144000000000
9.278408470000,-0.132000000000
9.286095591000,0.175000000000
9.293782712000,0.783000000000
9.301469897000,1.072000000000
9.309157018000,0.521000000000
9.316844139000,-0.358000000000
9.324531260000,-0.608000000000
9.332218381000,-0.329000000000
9.339905502000,-0.228000000000
9.347592623000,-0.238000000000
9.355279744000,-0.129000000000
9.362966865000,-0.088000000000
9.370653986000,-0.115000000000
9.378341107000,-0.091000000000
9.386028228000,-0.062000000000
9.393715349000,-0.062000000000
9.401402470000,-0.057000000000
9.409089591000,-0.045000000000
9.416776712000,-0.040000000000
9.424463833000,-0.033000000000
9.432150954000,-0.024000000000
9.439838075000,-0.019000000000
9.447525196000,-0.009000000000
9.455212317000,0.002000000000
9.462899438000,0.012000000000
9.470586559000,0.024000000000
9.478273680000,0.036000000000
9.485960801000,0.045000000000
9.493647922000,0.052000000000
9.501335043000,0.060000000000
9.509022164000,0.060000000000
9.516709285000,0.057000000000
9.524396406000,0.057000000000
9.532083527000,0.055000000000
9.539770648000,0.052000000000
9.547457769000,0.050000000000
9.555144890000,0.043000000000
9.562832011000,0.028000000000
9.570519132000,0.007000000000
9.578206253000,-0.019000000000
9.585893374000,-0.052000000000
9.593580495000,-0.076000000000
9.601267616000,-0.088000000000
9.608954737000,-0.096000000000
9.616641858000,-0.105000000000
9.624328979000,-0.105000000000
9.632016100000,-0.105000000000
9.639703221000,-0.103000000000
9.647390342000,-0.101000000000
9.655077463000,-0.101000000000
9.662764584000,-0.098000000000
9.670451705000,-0.101000000000
9.678138826000,-0.101000000000
9.685825947000,-0.101000000000
9.693513068000,-0.101000000000
9.701200189000,-0.103000000000
9.708887310000,-0.108000000000
9.716574431000,-0.110000000000
9.724261552000,-0.110000000000
9.731948673000,-0.108000000000
9.739635794000,-0.108000000000
9.747322915000,-0.113000000000
9.755010036000,-0.110000000000
9.762697157000,-0.108000000000
9.770384278000,-0.108000000000
9.778071399000,-0.113000000000
9.785758520000,-0.120000000000
9.793445641000,-0.122000000000
9.801132762000,-0.122000000000
9.808819883000,-0.115000000000
9.816507004000,-0.101000000000
9.824194125000,-0.093000000000
9.831881246000,-0.076000000000
9.839568367000,-0.052000000000
9.847255488000,-0.060000000000
9.854942609000,-0.086000000000
9.862629794000,-0.093000000000
9.870316915000,-0.088000000000
9.878004036000,-0.091000000000
9.885691157000,-0.088000000000
9.893378278000,-0.084000000000
9.901065399000,-0.086000000000
9.908752520000,-0.113000000000
9.916439641000,-0.146000000000
9.924126762000,0.000000000000
9.931813883000,0.514000000000
9.939501004000,1.017000000000
9.947188125000,0.827000000000
9.954875246000,-0.019000000000
9.962562367000,-0.591000000000
9.970249488000,-0.437000000000
9.977936609000,-0.223000000000
9.985623730000,-0.238000000000
9.993310851000,-0.168000000000
10.000997972000,-0.084000000000
10.008685093000,-0.105000000000
10.016372214000,-0.103000000000
10.024059335000,-0.064000000000
10.031746456000,-0.057000000000
10.039433577000,-0.057000000000
10.047120698000,-0.040000000000
10.054807819000,-0.033000000000
10.062494940000,-0.036000000000
10.070182061000,-0.026000000000
10.077869182000,-0.016000000000
10.085556303000,-0.009000000000
10.093243424000,0.000000000000
10.100930545000,0.012000000000
10.108617666000,0.021000000000
10.116304787000,0.031000000000
10.123991908000,0.040000000000
10.131679029000,0.050000000000
10.139366150000,0.057000000000
10.147053271000,0.060000000000
10.154740392000,0.057000000000
10.162427513000,0.055000000000
10.170114634000,0.048000000000
10.177801755000,0.045000000000
10.185488876000,0.048000000000
10.193175997000,0.043000000000
10.200863118000,0.031000000000
10.208550239000,0.014000000000
10.216237360000,-0.012000000000
10.223924481000,-0.038000000000
10.231611602000,-0.062000000000
10.239298723000,-0.084000000000
10.246985844000,-0.098000000000
10.254672965000,-0.105000000000
10.262360086000,-0.105000000000
10.270047207000,-0.105000000000
10.277734328000,-0.105000000000
10.285421449000,-0.103000000000
10.293108570000,-0.101000000000
10.300795691000,-0.101000000000
10.308482812000,-0.098000000000
10.316169933000,-0.101000000000
10.323857054000,-0.101000000000
10.331544175000,-0.103000000000
10.339231296000,-0.103000000000
10.346918417000,-0.105000000000
10.354605538000,-0.105000000000
10.362292659000,-0.105000000000
10.369979780000,-0.108000000000
10.377666901000,-0.110000000000
10.385354022000,-0.110000000000
10.393041143000,-0.110000000000
10.400728264000,-0.110000000000
10.408415385000,-0.108000000000
10.416102506000,-0.108000000000
10.423789691000,-0.108000000000
10.431476812000,-0.105000000000
10.439163933000,-0.103000000000
10.446851054000,-0.103000000000
10.454538175000,-0.105000000000
10.462225296000,-0.110000000000
10.469912417000,-0.115000000000
10.477599538000,-0.117000000000
10.485286659000,-0.110000000000
10.492973780000,-0.096000000000
10.500660901000,-0.088000000000
10.508348022000,-0.076000000000
10.516035143000,-0.052000000000
10.523722264000,-0.043000000000
10.531409385000,-0.069000000000
10.539096506000,-0.086000000000
10.546783627000,-0.081000000000
10.554470748000,-0.079000000000
10.562157869000,-0.081000000000
10.569844990000,-0.076000000000
10.577532111000,-0.074000000000
10.585219232000,-0.091000000000
10.592906353000,-0.129000000000
10.600593474000,-0.062000000000
10.608280595000,0.351000000000
10.615967716000,0.921000000000
10.623654837000,0.945000000000
10.631341958000,0.182000000000
10.639029079000,-0.545000000000
10.646716200000,-0.529000000000
10.654403321000,-0.257000000000
10.662090442000,-0.238000000000
10.669777563000,-0.197000000000
10.677464684000,-0.081000000000
10.685151805000,-0.079000000000
10.692838926000,-0.101000000000
10.700526047000,-0.062000000000
10.708213168000,-0.045000000000
10.715900289000,-0.048000000000
10.723587410000,-0.036000000000
10.731274531000,-0.026000000000
10.738961652000,-0.024000000000
10.746648773000,-0.016000000000
10.754335894000,-0.009000000000
10.762023015000,-0.002000000000
10.769710136000,0.007000000000
10.777397257000,0.014000000000
10.785084378000,0.024000000000
10.792771499000,0.036000000000
10.800458620000,0.045000000000
10.808145741000,0.052000000000
10.815832862000,0.060000000000
10.823519983000,0.064000000000
10.831207104000,0.064000000000
10.838894225000,0.062000000000
10.846581346000,0.060000000000
10.854268467000,0.060000000000
10.861955588000,0.062000000000
10.869642709000,0.064000000000
10.877329830000,0.060000000000
10.885016951000,0.045000000000
10.892704072000,0.021000000000
10.900391193000,-0.009000000000
10.908078314000,-0.036000000000
10.915765435000,-0.057000000000
10.923452556000,-0.076000000000
10.931139677000,-0.093000000000
10.938826798000,-0.103000000000
10.946513919000,-0.103000000000
10.954201040000,-0.101000000000
10.961888161000,-0.101000000000
10.969575282000,-0.101000000000
10.977262403000,-0.101000000000
10.984949588000,-0.098000000000
10.992636709000,-0.101000000000
11.000323830000,-0.101000000000
11.008010951000,-0.103000000000
11.015698072000,-0.105000000000
11.023385193000,-0.108000000000
11.031072314000,-0.113000000000
11.038759435000,-0.115000000000
11.046446556000,-0.115000000000
11.054133677000,-0.115000000000
11.061820798000,-0.117000000000
11.069507919000,-0.115000000000
11.077195040000,-0.115000000000
11.084882161000,-0.113000000000
11.092569282000,-0.113000000000
11.100256403000,-0.110000000000
11.107943524000,-0.108000000000
11.115630645000,-0.110000000000
11.123317766000,-0.108000000000
11.131004887000,-0.103000000000
11.138692008000,-0.101000000000
11.146379129000,-0.101000000000
11.154066250000,-0.101000000000
11.161753371000,-0.105000000000
11.169440492000,-0.113000000000
11.177127613000,-0.115000000000
11.184814734000,-0.110000000000
11.192501855000,-0.096000000000
11.200188976000,-0.086000000000
11.207876097000,-0.079000000000
11.215563218000,-0.057000000000
11.223250339000,-0.038000000000
11.230937460000,-0.057000000000
11.238624581000,-0.081000000000
11.246311702000,-0.079000000000
11.253998823000,-0.074000000000
11.261685944000,-0.076000000000
11.269373065000,-0.074000000000
11.277060186000,-0.069000000000
11.284747307000,-0.079000000000
11.292434428000,-0.115000000000
11.300121549000,-0.098000000000
11.307808670000,0.206000000000
11.315495791000,0.786000000000
11.323182912000,1.005000000000
11.330870033000,0.394000000000
11.338557154000,-0.440000000000
11.346244275000,-0.598000000000
11.353931396000,-0.307000000000
11.361618517000,-0.226000000000
11.369305638000,-0.214000000000
11.376992759000,-0.093000000000
11.384679880000,-0.064000000000
11.392367001000,-0.096000000000
11.400054122000,-0.067000000000
11.407741243000,-0.040000000000
11.415428364000,-0.043000000000
11.423115485000,-0.036000000000
11.430802606000,-0.024000000000
11.438489727000,-0.019000000000
11.446176848000,-0.014000000000
11.453863969000,-0.004000000000
11.461551090000,0.002000000000
11.469238211000,0.007000000000
11.476925332000,0.014000000000
11.484612453000,0.024000000000
11.492299574000,0.033000000000
11.499986695000,0.043000000000
11.507673816000,0.050000000000
11.515360937000,0.055000000000
11.523048058000,0.060000000000
11.530735179000,0.062000000000
11.538422300000,0.060000000000
11.546109485000,0.060000000000
11.553796606000,0.062000000000
11.561483727000,0.064000000000
11.569170848000,0.069000000000
11.576857969000,0.069000000000
11.584545090000,0.055000000000
11.592232211000,0.031000000000
11.599919332000,0.004000000000
11.607606453000,-0.021000000000
11.615293574000,-0.050000000000
11.622980695000,-0.074000000000
11.630667816000,-0.088000000000
11.638354937000,-0.101000000000
11.646042058000,-0.105000000000
11.653729179000,-0.105000000000
11.661416300000,-0.105000000000
11.669103421000,-0.105000000000
11.676790542000,-0.103000000000
11.684477663000,-0.103000000000
11.692164784000,-0.103000000000
11.699851905000,-0.103000000000
11.707539026000,-0.105000000000
11.715226147000,-0.108000000000
11.722913268000,-0.108000000000
11.730600389000,-0.113000000000
11.738287510000,-0.113000000000
11.745974631000,-0.113000000000
11.753661752000,-0.115000000000
11.761348873000,-0.117000000000
11.769035994000,-0.115000000000
11.776723115000,-0.113000000000
11.784410236000,-0.113000000000
11.792097357000,-0.110000000000
11.799784478000,-0.110000000000
11.807471599000,-0.108000000000
11.815158720000,-0.105000000000
11.822845841000,-0.105000000000
11.830532962000,-0.103000000000
11.838220083000,-0.098000000000
11.845907204000,-0.096000000000
11.853594325000,-0.093000000000
11.861281446000,-0.093000000000
11.868968567000,-0.098000000000
11.876655688000,-0.105000000000
11.884342809000,-0.108000000000
11.892029930000,-0.110000000000
11.899717051000,-0.105000000000
11.907404172000,-0.091000000000
11.915091293000,-0.081000000000
11.922778414000,-0.072000000000
11.930465535000,-0.048000000000
11.938152656000,-0.036000000000
11.945839777000,-0.057000000000
11.953526898000,-0.076000000000
11.961214019000,-0.074000000000
11.968901140000,-0.074000000000
11.976588261000,-0.074000000000
11.984275382000,-0.069000000000
11.991962503000,-0.067000000000
11.999649624000,-0.081000000000
12.007336745000,-0.115000000000
12.015023866000,-0.052000000000
12.022710987000,0.334000000000
12.030398108000,0.894000000000
12.038085229000,0.930000000000
12.045772350000,0.180000000000
12.053459471000,-0.555000000000
12.061146592000,-0.545000000000
12.068833713000,-0.269000000000
12.076520834000,-0.235000000000
12.084207955000,-0.192000000000
12.091895076000,-0.072000000000
12.099582197000,-0.069000000000
12.107269386000,-0.091000000000
12.114956647000,-0.055000000000
12.122643908000,-0.038000000000
12.130331169000,-0.043000000000
12.138018430000,-0.031000000000
12.145705691000,-0.019000000000
12.153392952000,-0.016000000000
12.161080213000,-0.009000000000
12.168767474000,-0.002000000000
12.176454735000,0.004000000000
12.184141996000,0.012000000000
12.191829257000,0.024000000000
12.199516518000,0.028000000000
12.207203779000,0.036000000000
12.214891040000,0.048000000000
12.222578301000,0.055000000000
12.230265562000,0.060000000000
12.237952823000,0.067000000000
12.245640084000,0.067000000000
12.253327345000,0.067000000000
12.261014606000,0.069000000000
12.268701867000,0.074000000000
12.276389128000,0.079000000000
12.284076389000,0.084000000000
12.291763650000,0.079000000000
12.299450911000,0.062000000000
12.307138172000,0.036000000000
12.314825433000,0.004000000000
12.322512694000,-0.026000000000
12.330199955000,-0.052000000000
12.337887216000,-0.074000000000
12.345574477000,-0.088000000000
12.353261738000,-0.101000000000
12.360948999000,-0.103000000000
12.368636260000,-0.103000000000
12.376323521000,-0.103000000000
12.384010782000,-0.103000000000
12.391698043000,-0.103000000000
12.399385304000,-0.103000000000
12.407072565000,-0.103000000000
12.414759826000,-0.105000000000
12.422447087000,-0.105000000000
12.430134348000,-0.110000000000
12.437821609000,-0.110000000000
12.445508870000,-0.113000000000
12.453196131000,-0.115000000000
12.460883392000,-0.115000000000
12.468570653000,-0.115000000000
12.476257914000,-0.115000000000
12.483945175000,-0.117000000000
12.491632436000,-0.115000000000
12.499319697000,-0.115000000000
12.507006958000,-0.113000000000
12.514694219000,-0.108000000000
12.522381480000,-0.105000000000
12.530068741000,-0.108000000000
12.537756002000,-0.103000000000
12.545443263000,-0.101000000000
12.553130524000,-0.098000000000
12.560817785000,-0.098000000000
12.568505046000,-0.098000000000
12.576192307000,-0.105000000000
12.583879568000,-0.113000000000
12.591566829000,-0.110000000000
12.599254090000,-0.105000000000
12.606941351000,-0.093000000000
12.614628612000,-0.084000000000
12.622315873000,-0.074000000000
12.630003134000,-0.055000000000
12.637690395000,-0.038000000000
12.645377656000,-0.055000000000
12.653064917000,-0.079000000000
12.660752178000,-0.079000000000
12.668439457000,-0.074000000000
12.676126857000,-0.076000000000
12.683814257000,-0.072000000000
12.691501657000,-0.069000000000
12.699189057000,-0.079000000000
12.706876457000,-0.110000000000
12.714563857000,-0.088000000000
12.722251257000,0.221000000000
12.729938657000,0.791000000000
12.737626057000,0.993000000000
12.745313457000,0.370000000000
12.753000857000,-0.461000000000
12.760688257000,-0.613000000000
12.768375657000,-0.322000000000
12.776063057000,-0.235000000000
12.783750457000,-0.216000000000
12.791437857000,-0.093000000000
12.799125257000,-0.062000000000
12.806812657000,-0.091000000000
12.814500057000,-0.064000000000
12.822187457000,-0.038000000000
12.829874857000,-0.040000000000
12.837562257000,-0.028000000000
12.845249657000,-0.016000000000
12.852937057000,-0.014000000000
12.860624457000,-0.012000000000
12.868311857000,-0.002000000000
12.875999257000,0.004000000000
12.883686657000,0.009000000000
12.891374057000,0.019000000000
12.899061457000,0.031000000000
12.906748857000,0.040000000000
12.914436257000,0.048000000000
12.922123657000,0.057000000000
12.929811057000,0.067000000000
12.937498457000,0.072000000000
12.945185857000,0.076000000000
12.952873257000,0.079000000000
12.960560657000,0.081000000000
12.968248057000,0.086000000000
12.975935457000,0.091000000000
12.983622857000,0.093000000000
12.991310257000,0.091000000000
12.998997657000,0.072000000000
13.006685057000,0.043000000000
13.014372457000,0.009000000000
13.022059857000,-0.021000000000
13.029747257000,-0.052000000000
13.037434657000,-0.076000000000
13.045122057000,-0.093000000000
13.052809457000,-0.103000000000
13.060496857000,-0.108000000000
13.068184257000,-0.108000000000
13.075871657000,-0.108000000000
13.083559057000,-0.108000000000
13.091246457000,-0.105000000000
13.098933857000,-0.108000000000
13.106621257000,-0.108000000000
13.114308657000,-0.108000000000
13.121996057000,-0.110000000000
13.129683457000,-0.113000000000
13.137370857000,-0.115000000000
13.145058257000,-0.117000000000
13.152745657000,-0.117000000000
13.160433057000,-0.117000000000
13.168120457000,-0.115000000000
13.175807857000,-0.117000000000
13.183495257000,-0.117000000000
13.191182657000,-0.115000000000
13.198870057000,-0.117000000000
13.206557457000,-0.120000000000
13.214244857000,-0.115000000000
13.221932257000,-0.110000000000
13.229619698000,-0.108000000000
13.237306819000,-0.105000000000
13.244993940000,-0.103000000000
13.252681061000,-0.105000000000
13.260368182000,-0.113000000000
13.268055303000,-0.117000000000
13.275742424000,-0.117000000000
13.283429545000,-0.108000000000
13.291116666000,-0.093000000000
13.298803787000,-0.086000000000
13.306490908000,-0.072000000000
13.314178029000,-0.045000000000
13.321865150000,-0.045000000000
13.329552271000,-0.072000000000
13.337239392000,-0.081000000000
13.344926513000,-0.076000000000
13.352613634000,-0.079000000000
13.360300755000,-0.079000000000
13.367987876000,-0.072000000000
13.375674997000,-0.074000000000
13.383362118000,-0.093000000000
13.391049239000,-0.117000000000
13.398736360000,0.014000000000
13.406423481000,0.495000000000
13.414110602000,0.983000000000
13.421797723000,0.783000000000
13.429484844000,-0.074000000000
13.437171965000,-0.637000000000
13.444859086000,-0.473000000000
13.452546207000,-0.247000000000
13.460233328000,-0.247000000000
13.467920449000,-0.163000000000
13.475607570000,-0.062000000000
13.483294691000,-0.079000000000
13.490981812000,-0.086000000000
13.498668933000,-0.050000000000
13.506356054000,-0.040000000000
13.514043175000,-0.040000000000
13.521730296000,-0.026000000000
13.529417417000,-0.014000000000
13.537104538000,-0.012000000000
13.544791659000,-0.004000000000
13.552478780000,0.002000000000
13.560165901000,0.009000000000
13.567853022000,0.019000000000
13.575540143000,0.028000000000
13.583227264000,0.038000000000
13.590914385000,0.048000000000
13.598601506000,0.060000000000
13.606288627000,0.069000000000
13.613975748000,0.079000000000
13.621662869000,0.086000000000
13.629349990000,0.088000000000
13.637037111000,0.091000000000
13.644724232000,0.098000000000
13.652411353000,0.101000000000
13.660098474000,0.105000000000
13.667785595000,0.105000000000
13.675472716000,0.091000000000
13.683159837000,0.064000000000
13.690846958000,0.028000000000
13.698534079000,-0.009000000000
13.706221200000,-0.043000000000
13.713908321000,-0.069000000000
13.721595442000,-0.088000000000
13.729282563000,-0.103000000000
13.736969684000,-0.113000000000
13.744656805000,-0.115000000000
13.752343926000,-0.113000000000
13.760031047000,-0.113000000000
13.767718168000,-0.113000000000
13.775405289000,-0.110000000000
13.783092410000,-0.110000000000
13.790779595000,-0.113000000000
13.798466716000,-0.113000000000
13.806153837000,-0.115000000000
13.813840958000,-0.117000000000
13.821528079000,-0.120000000000
13.829215200000,-0.120000000000
13.836902321000,-0.122000000000
13.844589442000,-0.122000000000
13.852276563000,-0.122000000000
13.859963684000,-0.122000000000
13.867650805000,-0.122000000000
13.875337926000,-0.122000000000
13.883025047000,-0.120000000000
13.890712168000,-0.117000000000
13.898399289000,-0.115000000000
13.906086410000,-0.120000000000
13.913773531000,-0.125000000000
13.921460652000,-0.129000000000
13.929147773000,-0.129000000000
13.936834894000,-0.120000000000
13.944522015000,-0.105000000000
13.952209136000,-0.096000000000
13.959896257000,-0.084000000000
13.967583378000,-0.057000000000
13.975270499000,-0.057000000000
13.982957620000,-0.084000000000
13.990644741000,-0.093000000000
13.998331862000,-0.088000000000
14.006018983000,-0.091000000000
14.013706104000,-0.088000000000
14.021393225000,-0.084000000000
14.029080346000,-0.086000000000
14.036767467000,-0.103000000000
14.044454588000,-0.134000000000
14.052141709000,-0.014000000000
14.059828830000,0.461000000000
14.067515951000,0.973000000000
14.075203072000,0.805000000000
14.082890193000,-0.043000000000
14.090577314000,-0.634000000000
14.098264435000,-0.497000000000
14.105951556000,-0.266000000000
14.113638677000,-0.257000000000
14.121325798000,-0.175000000000
14.129012919000,-0.074000000000
14.136700040000,-0.088000000000
14.144387161000,-0.093000000000
14.152074282000,-0.055000000000
14.159761403000,-0.048000000000
14.167448524000,-0.048000000000
14.175135645000,-0.033000000000
14.182822766000,-0.026000000000
14.190509887000,-0.026000000000
14.198197008000,-0.019000000000
14.205884129000,-0.007000000000
14.213571250000,0.002000000000
14.221258371000,0.009000000000
14.228945492000,0.021000000000
14.236632613000,0.031000000000
14.244319734000,0.043000000000
14.252006855000,0.055000000000
14.259693976000,0.064000000000
14.267381097000,0.074000000000
14.275068218000,0.084000000000
14.282755339000,0.091000000000
14.290442460000,0.096000000000
14.298129581000,0.103000000000
14.305816702000,0.110000000000
14.313503823000,0.113000000000
14.321190944000,0.108000000000
14.328878065000,0.091000000000
14.336565186000,0.060000000000
14.344252307000,0.021000000000
14.351939492000,-0.021000000000
14.359626613000,-0.057000000000
14.367313734000,-0.084000000000
14.375000855000,-0.105000000000
14.382687976000,-0.117000000000
14.390375097000,-0.122000000000
14.398062218000,-0.125000000000
14.405749339000,-0.125000000000
14.413436460000,-0.120000000000
14.421123581000,-0.117000000000
14.428810702000,-0.120000000000
14.436497823000,-0.120000000000
14.444184944000,-0.120000000000
14.451872065000,-0.120000000000
14.459559186000,-0.122000000000
14.467246307000,-0.122000000000
14.474933428000,-0.125000000000
14.482620549000,-0.125000000000
14.490307670000,-0.125000000000
14.497994791000,-0.127000000000
14.505681912000,-0.125000000000
14.513369033000,-0.122000000000
14.521056154000,-0.120000000000
14.528743275000,-0.120000000000
14.536430396000,-0.117000000000
14.544117517000,-0.117000000000
14.551804638000,-0.120000000000
14.559491759000,-0.127000000000
14.567178880000,-0.132000000000
14.574866001000,-0.132000000000
14.582553122000,-0.122000000000
14.590240243000,-0.110000000000
14.597927364000,-0.103000000000
14.605614485000,-0.088000000000
14.613301606000,-0.060000000000
14.620988727000,-0.057000000000
14.628675848000,-0.084000000000
14.636362969000,-0.096000000000
14.644050090000,-0.088000000000
14.651737211000,-0.088000000000
14.659424332000,-0.091000000000
14.667111453000,-0.084000000000
14.674798574000,-0.084000000000
14.682485695000,-0.101000000000
14.690172816000,-0.134000000000
14.697859937000,-0.026000000000
14.705547058000,0.437000000000
14.713234179000,0.966000000000
14.720921300000,0.836000000000
14.728608421000,0.007000000000
14.736295542000,-0.613000000000
14.743982663000,-0.502000000000
14.751669784000,-0.264000000000
14.759356905000,-0.252000000000
14.767044026000,-0.177000000000
14.774731147000,-0.069000000000
14.782418268000,-0.081000000000
14.790105389000,-0.093000000000
14.797792510000,-0.057000000000
14.805479631000,-0.043000000000
14.813166752000,-0.043000000000
14.820853873000,-0.031000000000
14.828540994000,-0.019000000000
14.836228115000,-0.019000000000
14.843915236000,-0.014000000000
14.851602357000,-0.004000000000
14.859289478000,0.002000000000
14.866976599000,0.014000000000
14.874663720000,0.024000000000
14.882350841000,0.036000000000
14.890037962000,0.045000000000
14.897725083000,0.057000000000
14.905412204000,0.069000000000
14.913099389000,0.079000000000
14.920786580000,0.084000000000
14.928473771000,0.093000000000
14.936160962000,0.101000000000
14.943848153000,0.105000000000
14.951535344000,0.113000000000
14.959222535000,0.120000000000
14.966909726000,0.117000000000
14.974596917000,0.101000000000
14.982284108000,0.069000000000
14.989971299000,0.031000000000
14.997658490000,-0.007000000000
15.005345681000,-0.045000000000
15.013032872000,-0.074000000000
15.020720063000,-0.096000000000
15.028407254000,-0.105000000000
15.036094445000,-0.113000000000
15.043781636000,-0.117000000000
15.051468827000,-0.115000000000
15.059156018000,-0.113000000000
15.066843209000,-0.115000000000
15.074530400000,-0.115000000000
15.082217591000,-0.113000000000
15.089904782000,-0.115000000000
15.097591973000,-0.117000000000
15.105279164000,-0.117000000000
15.112966355000,-0.117000000000
15.120653546000,-0.117000000000
15.128340737000,-0.117000000000
15.136027928000,-0.120000000000
15.143715119000,-0.120000000000
15.151402310000,-0.120000000000
15.159089501000,-0.120000000000
15.166776692000,-0.117000000000
15.174463883000,-0.117000000000
15.182151074000,-0.125000000000
15.189838265000,-0.132000000000
15.197525456000,-0.132000000000
15.205212647000,-0.129000000000
15.212899838000,-0.120000000000
15.220587029000,-0.105000000000
15.228274220000,-0.098000000000
15.235961411000,-0.079000000000
15.243648602000,-0.057000000000
15.251335793000,-0.069000000000
15.259022984000,-0.096000000000
15.266710175000,-0.096000000000
15.274397366000,-0.088000000000
15.282084557000,-0.091000000000
15.289771748000,-0.086000000000
15.297458939000,-0.081000000000
15.305146130000,-0.088000000000
15.312833321000,-0.117000000000
15.320520512000,-0.108000000000
15.328207703000,0.175000000000
15.335894894000,0.762000000000
15.343582085000,1.002000000000
15.351269276000,0.370000000000
15.358956467000,-0.497000000000
15.366643658000,-0.673000000000
15.374330849000,-0.379000000000
15.382018040000,-0.271000000000
15.389705231000,-0.245000000000
15.397392422000,-0.113000000000
15.405079613000,-0.060000000000
15.412766804000,-0.081000000000
15.420453995000,-0.062000000000
15.428141186000,-0.033000000000
15.435828377000,-0.031000000000
15.443515568000,-0.026000000000
15.451202759000,-0.016000000000
15.458889950000,-0.009000000000
15.466577141000,-0.002000000000
15.474264377000,0.004000000000
15.481951568000,0.016000000000
15.489638759000,0.028000000000
15.497325950000,0.040000000000
15.505013141000,0.050000000000
15.512700332000,0.064000000000
15.520387523000,0.076000000000
15.528074714000,0.091000000000
15.535761905000,0.105000000000
15.543449096000,0.117000000000
15.551136287000,0.127000000000
15.558823478000,0.139000000000
15.566510669000,0.149000000000
15.574197860000,0.153000000000
15.581885051000,0.161000000000
15.589572242000,0.161000000000
15.597259433000,0.144000000000
15.604946624000,0.108000000000
15.612633815000,0.062000000000
15.620321006000,0.014000000000
15.628008197000,-0.036000000000
15.635695388000,-0.076000000000
15.643382579000,-0.101000000000
15.651069770000,-0.120000000000
15.658756961000,-0.132000000000
15.666444152000,-0.134000000000
15.674131343000,-0.134000000000
15.681818534000,-0.134000000000
15.689505725000,-0.129000000000
15.697192916000,-0.127000000000
15.704880107000,-0.127000000000
15.712567298000,-0.129000000000
15.720254489000,-0.129000000000
15.727941680000,-0.129000000000
15.735628871000,-0.134000000000
15.743316062000,-0.137000000000
15.751003253000,-0.137000000000
15.758690444000,-0.137000000000
15.766377635000,-0.139000000000
15.774064826000,-0.139000000000
15.781752017000,-0.141000000000
15.789439208000,-0.146000000000
15.797126399000,-0.149000000000
15.804813590000,-0.149000000000
15.812500781000,-0.144000000000
15.820187972000,-0.134000000000
15.827875163000,-0.127000000000
15.835562354000,-0.113000000000
15.843249545000,-0.079000000000
15.850936736000,-0.074000000000
15.858623927000,-0.103000000000
15.866311118000,-0.115000000000
15.873998309000,-0.108000000000
15.881685500000,-0.108000000000
15.889372691000,-0.110000000000
15.897059882000,-0.105000000000
15.904747073000,-0.103000000000
15.912434264000,-0.117000000000
15.920121455000,-0.153000000000
15.927808646000,-0.072000000000
15.935495837000,0.372000000000
15.943183028000,0.928000000000
15.950870219000,0.829000000000
15.958557410000,-0.026000000000
15.966244601000,-0.678000000000
15.973931792000,-0.567000000000
15.981618983000,-0.310000000000
15.989306174000,-0.290000000000
15.996993365000,-0.211000000000
16.004680556000,-0.084000000000
16.012367747000,-0.084000000000
16.020054938000,-0.096000000000
16.027742129000,-0.060000000000
16.035429361000,-0.045000000000
16.043116552000,-0.050000000000
16.050803743000,-0.038000000000
16.058490934000,-0.026000000000
16.066178125000,-0.024000000000
16.073865316000,-0.019000000000
16.081552507000,-0.009000000000
16.089239698000,0.000000000000
16.096926889000,0.012000000000
16.104614080000,0.021000000000
16.112301271000,0.031000000000
16.119988462000,0.043000000000
16.127675653000,0.055000000000
16.135362844000,0.067000000000
16.143050035000,0.076000000000
16.150737226000,0.086000000000
16.158424417000,0.096000000000
16.166111608000,0.103000000000
16.173798799000,0.113000000000
16.181485990000,0.120000000000
16.189173181000,0.122000000000
16.196860372000,0.117000000000
16.204547563000,0.098000000000
16.212234754000,0.062000000000
16.219921945000,0.016000000000
16.227609136000,-0.031000000000
16.235296327000,-0.069000000000
16.242983518000,-0.098000000000
16.250670709000,-0.120000000000
16.258357900000,-0.129000000000
16.266045091000,-0.134000000000
16.273732282000,-0.137000000000
16.281419473000,-0.137000000000
16.289106664000,-0.132000000000
16.296793855000,-0.129000000000
16.304481046000,-0.129000000000
16.312168237000,-0.132000000000
16.319855428000,-0.132000000000
16.327542619000,-0.132000000000
16.335229810000,-0.132000000000
16.342917001000,-0.134000000000
16.350604192000,-0.139000000000
16.358291383000,-0.139000000000
16.365978574000,-0.139000000000
16.373665765000,-0.144000000000
16.381352956000,-0.153000000000
16.389040147000,-0.158000000000
16.396727338000,-0.161000000000
16.404414529000,-0.161000000000
16.412101720000,-0.149000000000
16.419788911000,-0.137000000000
16.427476102000,-0.129000000000
16.435163293000,-0.103000000000
16.442850484000,-0.081000000000
16.450537675000,-0.096000000000
16.458224866000,-0.120000000000
16.465912057000,-0.122000000000
16.473599248000,-0.115000000000
16.481286439000,-0.117000000000
16.488973630000,-0.113000000000
16.496660821000,-0.108000000000
16.504348012000,-0.115000000000
16.512035203000,-0.156000000000
16.519722394000,-0.185000000000
16.527409585000,0.045000000000
16.535096776000,0.639000000000
16.542783967000,1.034000000000
16.550471158000,0.610000000000
16.558158349000,-0.264000000000
16.565845540000,-0.615000000000
16.573532731000,-0.367000000000
16.581219922000,-0.230000000000
16.588907113000,-0.245000000000
16.596594345000,-0.151000000000
16.604281536000,-0.096000000000
16.611968727000,-0.125000000000
16.619655918000,-0.108000000000
16.627343109000,-0.074000000000
16.635030300000,-0.074000000000
16.642717491000,-0.069000000000
16.650404682000,-0.055000000000
16.658091873000,-0.052000000000
16.665779064000,-0.052000000000
16.673466255000,-0.043000000000
16.681153446000,-0.036000000000
16.688840637000,-0.028000000000
16.696527828000,-0.019000000000
16.704215019000,-0.009000000000
16.711902210000,-0.002000000000
16.719589401000,0.007000000000
16.727276592000,0.014000000000
16.734963783000,0.019000000000
16.742650974000,0.021000000000
16.750338165000,0.021000000000
16.758025356000,0.021000000000
16.765712547000,0.024000000000
16.773399738000,0.028000000000
16.781086929000,0.033000000000
16.788774120000,0.036000000000
16.796461311000,0.033000000000
16.804148502000,0.021000000000
16.811835693000,-0.004000000000
16.819522884000,-0.031000000000
16.827210075000,-0.057000000000
16.834897266000,-0.081000000000
16.842584457000,-0.101000000000
16.850271648000,-0.110000000000
16.857958839000,-0.115000000000
16.865646030000,-0.117000000000
16.873333221000,-0.117000000000
16.881020412000,-0.117000000000
16.888707603000,-0.115000000000
16.896394794000,-0.115000000000
16.904081985000,-0.117000000000
16.911769176000,-0.115000000000
16.919456367000,-0.115000000000
16.927143558000,-0.120000000000
16.934830749000,-0.122000000000
16.942517940000,-0.122000000000
16.950205131000,-0.122000000000
16.957892322000,-0.125000000000
16.965579513000,-0.127000000000
16.973266704000,-0.132000000000
16.980953895000,-0.139000000000
16.988641086000,-0.146000000000
16.996328277000,-0.146000000000
17.004015468000,-0.141000000000
17.011702659000,-0.129000000000
17.019389850000,-0.122000000000
17.027077041000,-0.110000000000
17.034764232000,-0.081000000000
17.042451423000,-0.072000000000
17.050138614000,-0.098000000000
17.057825805000,-0.113000000000
17.065512996000,-0.108000000000
17.073200187000,-0.108000000000
17.080887378000,-0.108000000000
17.088574569000,-0.103000000000
17.096261760000,-0.101000000000
17.103948951000,-0.117000000000
17.111636142000,-0.170000000000
17.119323333000,-0.153000000000
17.127010524000,0.206000000000
17.134697715000,0.822000000000
17.142384906000,0.985000000000
17.150072097000,0.315000000000
17.157759329000,-0.473000000000
17.165446520000,-0.565000000000
17.173133711000,-0.293000000000
17.180820902000,-0.238000000000
17.188508093000,-0.218000000000
17.196195284000,-0.105000000000
17.203882475000,-0.088000000000
17.211569666000,-0.113000000000
17.219256857000,-0.079000000000
17.226944048000,-0.057000000000
17.234631239000,-0.060000000000
17.242318430000,-0.048000000000
17.250005621000,-0.036000000000
17.257692812000,-0.033000000000
17.265380003000,-0.028000000000
17.273067194000,-0.016000000000
17.280754385000,-0.009000000000
17.288441576000,-0.002000000000
17.296128767000,0.009000000000
17.303815958000,0.019000000000
17.311503149000,0.028000000000
17.319190340000,0.036000000000
17.326877531000,0.045000000000
17.334564722000,0.052000000000
17.342251913000,0.055000000000
17.349939104000,0.057000000000
17.357626295000,0.060000000000
17.365313486000,0.062000000000
17.373000677000,0.067000000000
17.380687868000,0.074000000000
17.388375059000,0.076000000000
17.396062250000,0.064000000000
17.403749441000,0.043000000000
17.411436632000,0.012000000000
17.419123823000,-0.019000000000
17.426811014000,-0.050000000000
17.434498205000,-0.074000000000
17.442185396000,-0.091000000000
17.449872587000,-0.101000000000
17.457559778000,-0.108000000000
17.465246969000,-0.108000000000
17.472934160000,-0.108000000000
17.480621351000,-0.105000000000
17.488308542000,-0.105000000000
17.495995733000,-0.103000000000
17.503682924000,-0.103000000000
17.511370115000,-0.105000000000
17.519057306000,-0.108000000000
17.526744497000,-0.108000000000
17.534431688000,-0.110000000000
17.542118879000,-0.113000000000
17.549806070000,-0.113000000000
17.557493261000,-0.115000000000
17.565180452000,-0.120000000000
17.572867643000,-0.125000000000
17.580554834000,-0.127000000000
17.588242025000,-0.132000000000
17.595929216000,-0.134000000000
17.603616407000,-0.129000000000
17.611303598000,-0.120000000000
17.618990789000,-0.110000000000
17.626677980000,-0.098000000000
17.634365171000,-0.072000000000
17.642052362000,-0.060000000000
17.649739553000,-0.084000000000
17.657426744000,-0.101000000000
17.665113935000,-0.098000000000
17.672801126000,-0.096000000000
17.680488317000,-0.098000000000
17.688175508000,-0.091000000000
17.695862699000,-0.091000000000
17.703549890000,-0.105000000000
17.711237081000,-0.153000000000
17.718924313000,-0.146000000000
17.726611504000,0.182000000000
17.734298695000,0.786000000000
17.741985886000,0.971000000000
17.749673077000,0.315000000000
17.757360268000,-0.488000000000
17.765047459000,-0.591000000000
17.772734650000,-0.310000000000
17.780421841000,-0.242000000000
17.788109032000,-0.216000000000
17.795796223000,-0.096000000000
17.803483414000,-0.072000000000
17.811170605000,-0.096000000000
17.818857796000,-0.067000000000
17.826544987000,-0.043000000000
17.834232178000,-0.045000000000
17.841919369000,-0.036000000000
17.849606560000,-0.021000000000
17.857293751000,-0.019000000000
17.864980942000,-0.014000000000
17.872668133000,-0.004000000000
17.880355324000,0.002000000000
17.888042515000,0.009000000000
17.895729706000,0.021000000000
17.903416897000,0.031000000000
17.911104088000,0.040000000000
17.918791279000,0.050000000000
17.926478470000,0.060000000000
17.934165661000,0.067000000000
17.941852852000,0.074000000000
17.949540043000,0.076000000000
17.957227234000,0.081000000000
17.964914425000,0.088000000000
17.972601616000,0.096000000000
17.980288807000,0.103000000000
17.987975998000,0.103000000000
17.995663189000,0.086000000000
18.003350380000,0.060000000000
18.011037571000,0.026000000000
18.018724762000,-0.012000000000
18.026411953000,-0.045000000000
18.034099144000,-0.072000000000
18.041786335000,-0.088000000000
18.049473526000,-0.101000000000
18.057160717000,-0.108000000000
18.064847908000,-0.110000000000
18.072535099000,-0.108000000000
18.080222290000,-0.108000000000
18.087909481000,-0.105000000000
18.095596672000,-0.105000000000
18.103283863000,-0.108000000000
18.110971054000,-0.110000000000
18.118658245000,-0.113000000000
18.126345436000,-0.113000000000
18.134032627000,-0.115000000000
18.141719818000,-0.120000000000
18.149407009000,-0.120000000000
18.157094200000,-0.122000000000
18.164781391000,-0.122000000000
18.172468582000,-0.122000000000
18.180155773000,-0.120000000000
18.187842964000,-0.120000000000
18.195530155000,-0.125000000000
18.203217346000,-0.129000000000
18.210904537000,-0.134000000000
18.218591728000,-0.134000000000
18.226278919000,-0.132000000000
18.233966110000,-0.120000000000
18.241653301000,-0.110000000000
18.249340492000,-0.103000000000
18.257027683000,-0.076000000000
18.264714874000,-0.060000000000
18.272402065000,-0.081000000000
18.280089297000,-0.103000000000
18.287776418000,-0.098000000000
18.295463539000,-0.098000000000
18.303150660000,-0.101000000000
18.310837781000,-0.096000000000
18.318524902000,-0.088000000000
18.326212023000,-0.101000000000
18.333899144000,-0.141000000000
18.341586265000,-0.134000000000
18.349273386000,0.170000000000
18.356960507000,0.771000000000
18.364647628000,1.005000000000
18.372334749000,0.391000000000
18.380021870000,-0.447000000000
18.387708991000,-0.622000000000
18.395396112000,-0.343000000000
18.403083233000,-0.250000000000
18.410770354000,-0.233000000000
18.418457475000,-0.113000000000
18.426144596000,-0.074000000000
18.433831717000,-0.101000000000
18.441518838000,-0.076000000000
18.449205959000,-0.050000000000
18.456893080000,-0.052000000000
18.464580201000,-0.043000000000
18.472267322000,-0.031000000000
18.479954443000,-0.028000000000
18.487641564000,-0.024000000000
18.495328685000,-0.014000000000
18.503015806000,-0.007000000000
18.510702927000,0.002000000000
18.518390048000,0.014000000000
18.526077169000,0.021000000000
18.533764290000,0.028000000000
18.541451411000,0.038000000000
18.549138532000,0.048000000000
18.556825653000,0.057000000000
18.564512774000,0.067000000000
18.572199895000,0.074000000000
18.579887016000,0.081000000000
18.587574137000,0.088000000000
18.595261258000,0.101000000000
18.602948379000,0.108000000000
18.610635500000,0.108000000000
18.618322621000,0.096000000000
18.626009742000,0.069000000000
18.633696863000,0.031000000000
18.641383984000,-0.004000000000
18.649071105000,-0.040000000000
18.656758226000,-0.074000000000
18.664445347000,-0.098000000000
18.672132468000,-0.113000000000
18.679819589000,-0.120000000000
18.687506710000,-0.122000000000
18.695193831000,-0.125000000000
18.702880952000,-0.125000000000
18.710568073000,-0.125000000000
18.718255194000,-0.125000000000
18.725942315000,-0.125000000000
18.733629436000,-0.127000000000
18.741316557000,-0.129000000000
18.749003678000,-0.132000000000
18.756690799000,-0.134000000000
18.764377920000,-0.134000000000
18.772065041000,-0.134000000000
18.779752162000,-0.137000000000
18.787439283000,-0.137000000000
18.795126404000,-0.137000000000
18.802813525000,-0.137000000000
18.810500646000,-0.137000000000
18.818187767000,-0.137000000000
18.825874888000,-0.134000000000
18.833562009000,-0.134000000000
18.841249194000,-0.139000000000
18.848936315000,-0.144000000000
18.856623436000,-0.146000000000
18.864310557000,-0.141000000000
18.871997678000,-0.129000000000
18.879684799000,-0.120000000000
18.887371920000,-0.110000000000
18.895059041000,-0.088000000000
18.902746162000,-0.067000000000
18.910433283000,-0.084000000000
18.918120404000,-0.108000000000
18.925807525000,-0.110000000000
18.933494646000,-0.105000000000
18.941181767000,-0.108000000000
18.948868888000,-0.103000000000
18.956556009000,-0.098000000000
18.964243130000,-0.108000000000
18.971930251000,-0.141000000000
18.979617372000,-0.134000000000
18.987304493000,0.153000000000
18.994991614000,0.745000000000
19.002678735000,1.012000000000
19.010365856000,0.432000000000
19.018052977000,-0.425000000000
19.025740098000,-0.644000000000
19.033427219000,-0.370000000000
19.041114340000,-0.262000000000
19.048801461000,-0.245000000000
19.056488582000,-0.125000000000
19.064175703000,-0.079000000000
19.071862824000,-0.108000000000
19.079549945000,-0.086000000000
19.087237066000,-0.057000000000
19.094924187000,-0.057000000000
19.102611308000,-0.050000000000
19.110298429000,-0.033000000000
19.117985550000,-0.031000000000
19.125672671000,-0.028000000000
19.133359792000,-0.016000000000
19.141046913000,-0.007000000000
19.148734034000,0.000000000000
19.156421155000,0.009000000000
19.164108276000,0.019000000000
19.171795397000,0.028000000000
19.179482518000,0.040000000000
19.187169639000,0.050000000000
19.194856760000,0.060000000000
19.202543881000,0.069000000000
19.210231002000,0.076000000000
19.217918123000,0.081000000000
19.225605244000,0.088000000000
19.233292365000,0.098000000000
19.240979486000,0.110000000000
19.248666607000,0.113000000000
19.256353728000,0.103000000000
19.264040849000,0.079000000000
19.271727970000,0.043000000000
19.279415091000,0.002000000000
19.287102212000,-0.033000000000
19.294789333000,-0.060000000000
19.302476454000,-0.084000000000
19.310163575000,-0.101000000000
19.317850696000,-0.110000000000
19.325537817000,-0.113000000000
19.333224938000,-0.115000000000
19.340912059000,-0.113000000000
19.348599180000,-0.110000000000
19.356286301000,-0.113000000000
19.363973422000,-0.115000000000
19.371660543000,-0.115000000000
19.379347664000,-0.115000000000
19.387034785000,-0.117000000000
19.394721906000,-0.120000000000
19.402409091000,-0.122000000000
19.410096212000,-0.125000000000
19.417783333000,-0.125000000000
19.425470454000,-0.125000000000
19.433157575000,-0.125000000000
19.440844696000,-0.125000000000
19.448531817000,-0.122000000000
19.456218938000,-0.120000000000
19.463906059000,-0.120000000000
19.471593180000,-0.122000000000
19.479280301000,-0.127000000000
19.486967422000,-0.132000000000
19.494654543000,-0.134000000000
19.502341664000,-0.127000000000
19.510028785000,-0.115000000000
19.517715906000,-0.105000000000
19.525403027000,-0.096000000000
19.533090148000,-0.067000000000
19.540777269000,-0.055000000000
19.548464390000,-0.076000000000
19.556151511000,-0.096000000000
19.563838632000,-0.093000000000
19.571525753000,-0.091000000000
19.579212874000,-0.091000000000
19.586899995000,-0.084000000000
19.594587116000,-0.081000000000
19.602274237000,-0.093000000000
19.609961358000,-0.127000000000
19.617648479000,-0.091000000000
19.625335600000,0.274000000000
19.633022721000,0.868000000000
19.640709842000,0.988000000000
19.648396963000,0.278000000000
19.656084084000,-0.517000000000
19.663771205000,-0.589000000000
19.671458326000,-0.307000000000
19.679145447000,-0.247000000000
19.686832568000,-0.211000000000
19.694519689000,-0.088000000000
19.702206810000,-0.069000000000
19.709893931000,-0.093000000000
19.717581052000,-0.062000000000
19.725268173000,-0.038000000000
19.732955294000,-0.043000000000
19.740642415000,-0.031000000000
19.748329536000,-0.016000000000
19.756016657000,-0.014000000000
19.763703778000,-0.009000000000
19.771390899000,0.002000000000
19.779078020000,0.012000000000
19.786765141000,0.021000000000
19.794452262000,0.031000000000
19.802139383000,0.040000000000
19.809826504000,0.050000000000
19.817513625000,0.062000000000
19.825200746000,0.072000000000
19.832887867000,0.081000000000
19.840574988000,0.088000000000
19.848262109000,0.096000000000
19.855949230000,0.101000000000
19.863636351000,0.105000000000
19.871323472000,0.113000000000
19.879010593000,0.120000000000
19.886697714000,0.120000000000
19.894384835000,0.108000000000
19.902071956000,0.079000000000
19.909759077000,0.040000000000
19.917446198000,0.002000000000
19.925133319000,-0.033000000000
19.932820440000,-0.062000000000
19.940507561000,-0.084000000000
19.948194682000,-0.098000000000
19.955881803000,-0.108000000000
19.963568988000,-0.110000000000
19.971256109000,-0.105000000000
19.978943230000,-0.103000000000
19.986630351000,-0.103000000000
19.994317472000,-0.103000000000
20.002004593000,-0.105000000000
20.009691714000,-0.108000000000
20.017378835000,-0.108000000000
20.025065956000,-0.110000000000
20.032753077000,-0.115000000000
20.040440198000,-0.117000000000
20.048127319000,-0.117000000000
20.055814440000,-0.120000000000
20.063501561000,-0.120000000000
20.071188682000,-0.120000000000
20.078875803000,-0.120000000000
20.086562924000,-0.117000000000
20.094250045000,-0.115000000000
20.101937166000,-0.115000000000
20.109624287000,-0.122000000000
20.117311408000,-0.127000000000
20.124998529000,-0.129000000000
20.132685650000,-0.127000000000
20.140372771000,-0.120000000000
20.148059892000,-0.108000000000
20.155747013000,-0.101000000000
20.163434134000,-0.079000000000
20.171121255000,-0.052000000000
20.178808376000,-0.060000000000
20.186495497000,-0.086000000000
20.194182618000,-0.091000000000
20.201869739000,-0.086000000000
20.209556860000,-0.088000000000
20.217243981000,-0.086000000000
20.224931102000,-0.081000000000
20.232618223000,-0.084000000000
20.240305344000,-0.113000000000
20.247992465000,-0.139000000000
20.255679586000,0.040000000000
20.263366707000,0.581000000000
20.271053828000,1.031000000000
20.278740949000,0.702000000000
20.286428070000,-0.185000000000
20.294115191000,-0.651000000000
20.301802312000,-0.437000000000
20.309489433000,-0.245000000000
20.317176554000,-0.247000000000
20.324863675000,-0.149000000000
20.332550796000,-0.062000000000
20.340237917000,-0.084000000000
20.347925038000,-0.079000000000
20.355612159000,-0.040000000000
20.363299280000,-0.036000000000
20.370986401000,-0.036000000000
20.378673522000,-0.019000000000
20.386360643000,-0.012000000000
20.394047764000,-0.009000000000
20.401734885000,-0.002000000000
20.409422006000,0.007000000000
20.417109127000,0.014000000000
20.424796248000,0.026000000000
20.432483369000,0.036000000000
20.440170490000,0.045000000000
20.447857611000,0.057000000000
20.455544732000,0.067000000000
20.463231853000,0.076000000000
20.470918974000,0.086000000000
20.478606095000,0.093000000000
20.486293216000,0.096000000000
20.493980337000,0.103000000000
20.501667458000,0.110000000000
20.509354579000,0.115000000000
20.517041700000,0.117000000000
20.524728885000,0.110000000000
20.532416006000,0.091000000000
20.540103127000,0.055000000000
20.547790248000,0.014000000000
20.555477369000,-0.021000000000
20.563164490000,-0.055000000000
20.570851611000,-0.081000000000
20.578538732000,-0.096000000000
20.586225853000,-0.105000000000
20.593912974000,-0.110000000000
20.601600095000,-0.110000000000
20.609287216000,-0.113000000000
20.616974337000,-0.110000000000
20.624661458000,-0.108000000000
20.632348579000,-0.108000000000
20.640035700000,-0.108000000000
20.647722821000,-0.108000000000
20.655409942000,-0.113000000000
20.663097063000,-0.115000000000
20.670784184000,-0.117000000000
20.678471305000,-0.117000000000
20.686158426000,-0.120000000000
20.693845547000,-0.120000000000
20.701532668000,-0.120000000000
20.709219789000,-0.122000000000
20.716906910000,-0.122000000000
20.724594031000,-0.120000000000
20.732281152000,-0.117000000000
20.739968273000,-0.115000000000
20.747655394000,-0.120000000000
20.755342515000,-0.127000000000
20.763029636000,-0.129000000000
20.770716757000,-0.125000000000
20.778403878000,-0.115000000000
20.786090999000,-0.103000000000
20.793778120000,-0.096000000000
20.801465241000,-0.074000000000
20.809152362000,-0.050000000000
20.816839483000,-0.062000000000
20.824526604000,-0.088000000000
20.832213725000,-0.088000000000
20.839900846000,-0.084000000000
20.847587967000,-0.086000000000
20.855275088000,-0.084000000000
20.862962209000,-0.079000000000
20.870649330000,-0.084000000000
20.878336451000,-0.115000000000
20.886023572000,-0.127000000000
20.893710693000,0.110000000000
20.901397814000,0.685000000000
20.909084935000,1.038000000000
20.916772056000,0.565000000000
20.924459177000,-0.317000000000
20.932146298000,-0.646000000000
20.939833419000,-0.387000000000
20.947520540000,-0.240000000000
20.955207661000,-0.235000000000
20.962894782000,-0.122000000000
20.970581903000,-0.057000000000
20.978269024000,-0.084000000000
20.985956145000,-0.069000000000
20.993643266000,-0.038000000000
21.001330387000,-0.036000000000
21.009017508000,-0.031000000000
21.016704629000,-0.014000000000
21.024391750000,-0.012000000000
21.032078871000,-0.007000000000
21.039765992000,0.002000000000
21.047453113000,0.009000000000
21.055140234000,0.019000000000
21.062827355000,0.028000000000
21.070514476000,0.040000000000
21.078201597000,0.050000000000
21.085888782000,0.060000000000
21.093575903000,0.072000000000
21.101263024000,0.081000000000
21.108950145000,0.088000000000
21.116637266000,0.096000000000
21.124324387000,0.101000000000
21.132011508000,0.105000000000
21.139698629000,0.113000000000
21.147385750000,0.122000000000
21.155072871000,0.125000000000
21.162759992000,0.113000000000
21.170447113000,0.088000000000
21.178134234000,0.052000000000
21.185821355000,0.012000000000
21.193508476000,-0.026000000000
21.201195597000,-0.057000000000
21.208882718000,-0.084000000000
21.216569839000,-0.101000000000
21.224256960000,-0.108000000000
21.231944081000,-0.110000000000
21.239631202000,-0.113000000000
21.247318323000,-0.110000000000
21.255005444000,-0.110000000000
21.262692565000,-0.110000000000
21.270379686000,-0.110000000000
21.278066807000,-0.110000000000
21.285753928000,-0.113000000000
21.293441049000,-0.115000000000
21.301128170000,-0.117000000000
21.308815291000,-0.120000000000
21.316502412000,-0.122000000000
21.324189533000,-0.125000000000
21.331876654000,-0.125000000000
21.339563775000,-0.125000000000
21.347250896000,-0.125000000000
21.354938017000,-0.122000000000
21.362625138000,-0.120000000000
21.370312259000,-0.120000000000
21.377999380000,-0.120000000000
21.385686501000,-0.122000000000
21.393373622000,-0.127000000000
21.401060743000,-0.132000000000
21.408747864000,-0.129000000000
21.416434985000,-0.120000000000
21.424122106000,-0.108000000000
21.431809227000,-0.098000000000
21.439496348000,-0.079000000000
21.447183469000,-0.055000000000
21.454870590000,-0.062000000000
21.462557711000,-0.088000000000
21.470244832000,-0.093000000000
21.477931953000,-0.088000000000
21.485619074000,-0.091000000000
21.493306195000,-0.088000000000
21.500993316000,-0.081000000000
21.508680437000,-0.084000000000
21.516367558000,-0.113000000000
21.524054679000,-0.132000000000
21.531741800000,0.057000000000
21.539428921000,0.608000000000
21.547116042000,1.034000000000
21.554803163000,0.668000000000
21.562490284000,-0.218000000000
21.570177405000,-0.651000000000
21.577864526000,-0.428000000000
21.585551647000,-0.247000000000
21.593238768000,-0.245000000000
21.600925889000,-0.141000000000
21.608613010000,-0.060000000000
21.616300131000,-0.086000000000
21.623987252000,-0.079000000000
21.631674373000,-0.040000000000
21.639361494000,-0.038000000000
21.647048679000,-0.036000000000
21.654735870000,-0.021000000000
21.662423061000,-0.014000000000
21.670110252000,-0.012000000000
21.677797443000,-0.002000000000
21.685484634000,0.007000000000
21.693171825000,0.012000000000
21.700859016000,0.024000000000
21.708546207000,0.036000000000
21.716233398000,0.045000000000
21.723920589000,0.055000000000
21.731607780000,0.064000000000
21.739294971000,0.076000000000
21.746982162000,0.084000000000
21.754669353000,0.091000000000
21.762356544000,0.096000000000
21.770043735000,0.101000000000
21.777730926000,0.108000000000
21.785418117000,0.115000000000
21.793105308000,0.117000000000
21.800792499000,0.110000000000
21.808479690000,0.086000000000
21.816166881000,0.052000000000
21.823854072000,0.014000000000
21.831541263000,-0.024000000000
21.839228454000,-0.057000000000
21.846915645000,-0.084000000000
21.854602836000,-0.101000000000
21.862290027000,-0.110000000000
21.869977218000,-0.115000000000
21.877664409000,-0.115000000000
21.885351600000,-0.115000000000
21.893038791000,-0.115000000000
21.900725982000,-0.115000000000
21.908413173000,-0.113000000000
21.916100364000,-0.113000000000
21.923787555000,-0.115000000000
21.931474746000,-0.117000000000
21.939161937000,-0.120000000000
21.946849128000,-0.125000000000
21.954536319000,-0.127000000000
21.962223510000,-0.125000000000
21.969910701000,-0.127000000000
21.977597892000,-0.129000000000
21.985285083000,-0.127000000000
21.992972274000,-0.125000000000
22.000659465000,-0.125000000000
22.008346656000,-0.122000000000
22.016033847000,-0.125000000000
22.023721038000,-0.129000000000
22.031408229000,-0.134000000000
22.039095420000,-0.134000000000
22.046782611000,-0.129000000000
22.054469802000,-0.117000000000
22.062156993000,-0.108000000000
22.069844184000,-0.098000000000
22.077531375000,-0.072000000000
22.085218566000,-0.057000000000
22.092905757000,-0.081000000000
22.100592948000,-0.101000000000
22.108280139000,-0.096000000000
22.115967330000,-0.093000000000
22.123654521000,-0.093000000000
22.131341712000,-0.088000000000
22.139028903000,-0.086000000000
22.146716094000,-0.098000000000
22.154403285000,-0.134000000000
22.162090476000,-0.103000000000
22.169777667000,0.245000000000
22.177464858000,0.839000000000
22.185152049000,0.990000000000
22.192839240000,0.305000000000
22.200526431000,-0.502000000000
22.208213667000,-0.603000000000
22.215900858000,-0.319000000000
22.223588049000,-0.252000000000
22.231275240000,-0.221000000000
22.238962431000,-0.098000000000
22.246649622000,-0.072000000000
22.254336813000,-0.096000000000
22.262024004000,-0.064000000000
22.269711195000,-0.040000000000
22.277398386000,-0.043000000000
22.285085577000,-0.033000000000
22.292772768000,-0.019000000000
22.300459959000,-0.016000000000
22.308147150000,-0.012000000000
22.315834341000,-0.002000000000
22.323521532000,0.007000000000
22.331208723000,0.014000000000
22.338895914000,0.024000000000
22.346583105000,0.036000000000
22.354270296000,0.048000000000
22.361957487000,0.057000000000
22.369644678000,0.069000000000
22.377331869000,0.081000000000
22.385019060000,0.088000000000
22.392706251000,0.093000000000
22.400393442000,0.098000000000
22.408080633000,0.103000000000
22.415767824000,0.110000000000
22.423455015000,0.115000000000
22.431142206000,0.113000000000
22.438829397000,0.098000000000
22.446516588000,0.069000000000
22.454203779000,0.028000000000
22.461890970000,-0.012000000000
22.469578161000,-0.048000000000
22.477265352000,-0.079000000000
22.484952543000,-0.098000000000
22.492639734000,-0.108000000000
22.500326925000,-0.115000000000
22.508014116000,-0.117000000000
22.515701307000,-0.117000000000
22.523388498000,-0.115000000000
22.531075689000,-0.113000000000
22.538762880000,-0.113000000000
22.546450071000,-0.113000000000
22.554137262000,-0.113000000000
22.561824453000,-0.113000000000
22.569511644000,-0.117000000000
22.577198835000,-0.120000000000
22.584886026000,-0.120000000000
22.592573217000,-0.120000000000
22.600260408000,-0.122000000000
22.607947599000,-0.122000000000
22.615634790000,-0.122000000000
22.623321981000,-0.120000000000
22.631009172000,-0.117000000000
22.638696363000,-0.117000000000
22.646383554000,-0.122000000000
22.654070745000,-0.120000000000
22.661757936000,-0.122000000000
22.669445127000,-0.127000000000
22.677132318000,-0.122000000000
22.684819509000,-0.108000000000
22.692506700000,-0.096000000000
22.700193891000,-0.091000000000
22.707881082000,-0.067000000000
22.715568273000,-0.043000000000
22.723255464000,-0.055000000000
22.730942655000,-0.081000000000
22.738629846000,-0.081000000000
22.746317037000,-0.074000000000
22.754004228000,-0.076000000000
22.761691419000,-0.072000000000
22.769378651000,-0.064000000000
22.777065842000,-0.069000000000
22.784753033000,-0.096000000000
22.792440224000,-0.113000000000
22.800127415000,0.098000000000
22.807814606000,0.663000000000
22.815501797000,1.065000000000
22.823188988000,0.637000000000
22.830876179000,-0.274000000000
22.838563370000,-0.668000000000
22.846250561000,-0.418000000000
22.853937752000,-0.242000000000
22.861624943000,-0.238000000000
22.869312134000,-0.125000000000
22.876999325000,-0.045000000000
22.884686516000,-0.069000000000
22.892373707000,-0.064000000000
22.900060898000,-0.028000000000
22.907748089000,-0.024000000000
22.915435280000,-0.021000000000
22.923122471000,-0.007000000000
22.930809662000,-0.002000000000
22.938496853000,0.004000000000
22.946184044000,0.016000000000
22.953871235000,0.026000000000
22.961558426000,0.036000000000
22.969245617000,0.048000000000
22.976932808000,0.057000000000
22.984619999000,0.067000000000
22.992307190000,0.079000000000
22.999994381000,0.091000000000
23.007681572000,0.105000000000
23.015368763000,0.117000000000
23.023055954000,0.125000000000
23.030743145000,0.129000000000
23.038430336000,0.134000000000
23.046117527000,0.141000000000
23.053804718000,0.149000000000
23.061491909000,0.146000000000
23.069179100000,0.134000000000
23.076866291000,0.108000000000
23.084553482000,0.069000000000
23.092240673000,0.026000000000
23.099927864000,-0.014000000000
23.107615055000,-0.045000000000
23.115302246000,-0.072000000000
23.122989437000,-0.088000000000
23.130676628000,-0.101000000000
23.138363819000,-0.105000000000
23.146051010000,-0.108000000000
23.153738201000,-0.103000000000
23.161425392000,-0.101000000000
23.169112583000,-0.101000000000
23.176799774000,-0.098000000000
23.184486965000,-0.101000000000
23.192174156000,-0.101000000000
23.199861347000,-0.103000000000
23.207548538000,-0.108000000000
23.215235729000,-0.113000000000
23.222922920000,-0.113000000000
23.230610111000,-0.113000000000
23.238297302000,-0.115000000000
23.245984493000,-0.115000000000
23.253671684000,-0.115000000000
23.261358875000,-0.110000000000
23.269046066000,-0.110000000000
23.276733257000,-0.115000000000
23.284420448000,-0.120000000000
23.292107639000,-0.125000000000
23.299794830000,-0.122000000000
23.307482021000,-0.113000000000
23.315169212000,-0.105000000000
23.322856403000,-0.103000000000
23.330543635000,-0.088000000000
23.338230826000,-0.055000000000
23.345918017000,-0.048000000000
23.353605208000,-0.074000000000
23.361292399000,-0.093000000000
23.368979590000,-0.088000000000
23.376666781000,-0.084000000000
23.384353972000,-0.084000000000
23.392041163000,-0.076000000000
23.399728354000,-0.076000000000
23.407415545000,-0.091000000000
23.415102736000,-0.117000000000
23.422789927000,-0.031000000000
23.430477118000,0.413000000000
23.438164309000,0.988000000000
23.445851500000,0.916000000000
23.453538691000,0.040000000000
23.461225882000,-0.673000000000
23.468913073000,-0.596000000000
23.476600264000,-0.310000000000
23.484287455000,-0.271000000000
23.491974646000,-0.206000000000
23.499661837000,-0.079000000000
23.507349028000,-0.067000000000
23.515036219000,-0.076000000000
23.522723410000,-0.038000000000
23.530410601000,-0.024000000000
23.538097792000,-0.028000000000
23.545784983000,-0.016000000000
23.553472174000,-0.004000000000
23.561159365000,0.000000000000
23.568846556000,0.009000000000
23.576533747000,0.024000000000
23.584220938000,0.036000000000
23.591908129000,0.045000000000
23.599595320000,0.057000000000
23.607282511000,0.072000000000
23.614969702000,0.084000000000
23.622656893000,0.101000000000
23.630344084000,0.117000000000
23.638031275000,0.129000000000
23.645718466000,0.141000000000
23.653405657000,0.151000000000
23.661092848000,0.151000000000
23.668780039000,0.151000000000
23.676467230000,0.156000000000
23.684154421000,0.158000000000
23.691841612000,0.151000000000
23.699528803000,0.125000000000
23.707215994000,0.084000000000
23.714903185000,0.036000000000
23.722590376000,-0.012000000000
23.730277567000,-0.055000000000
23.737964758000,-0.091000000000
23.745651949000,-0.115000000000
23.753339140000,-0.127000000000
23.761026331000,-0.132000000000
23.768713522000,-0.132000000000
23.776400713000,-0.127000000000
23.784087904000,-0.125000000000
23.791775095000,-0.122000000000
23.799462286000,-0.122000000000
23.807149477000,-0.122000000000
23.814836668000,-0.122000000000
23.822523859000,-0.122000000000
23.830211050000,-0.127000000000
23.837898241000,-0.132000000000
23.845585432000,-0.137000000000
23.853272623000,-0.139000000000
23.860959814000,-0.139000000000
23.868647005000,-0.139000000000
23.876334196000,-0.144000000000
23.884021387000,-0.149000000000
23.891708619000,-0.153000000000
23.899395880000,-0.153000000000
23.907083141000,-0.156000000000
23.914770402000,-0.151000000000
23.922457663000,-0.141000000000
23.930144924000,-0.139000000000
23.937832185000,-0.122000000000
23.945519446000,-0.091000000000
23.953206707000,-0.088000000000
23.960893968000,-0.117000000000
23.968581229000,-0.129000000000
23.976268490000,-0.125000000000
23.983955751000,-0.125000000000
23.991643012000,-0.125000000000
23.999330273000,-0.117000000000
24.007017534000,-0.120000000000
24.014704795000,-0.144000000000
24.022392056000,-0.182000000000
24.030079317000,-0.069000000000
24.037766578000,0.432000000000
24.045453839000,0.990000000000
24.053141100000,0.832000000000
24.060828361000,-0.057000000000
24.068515622000,-0.694000000000
24.076202883000,-0.560000000000
24.083890144000,-0.307000000000
24.091577405000,-0.300000000000
24.099264666000,-0.226000000000
24.106951927000,-0.110000000000
24.114639188000,-0.117000000000
24.122326449000,-0.125000000000
24.130013710000,-0.086000000000
24.137700971000,-0.076000000000
24.145388232000,-0.079000000000
24.153075493000,-0.064000000000
24.160762754000,-0.057000000000
24.168450015000,-0.055000000000
24.176137276000,-0.048000000000
24.183824537000,-0.036000000000
24.191511798000,-0.028000000000
24.199199059000,-0.019000000000
24.206886320000,-0.007000000000
24.214573581000,0.004000000000
24.222260842000,0.019000000000
24.229948103000,0.031000000000
24.237635364000,0.043000000000
24.245322625000,0.055000000000
24.253009886000,0.060000000000
24.260697147000,0.060000000000
24.268384408000,0.060000000000
24.276071669000,0.057000000000
24.283758930000,0.057000000000
24.291446191000,0.055000000000
24.299133452000,0.045000000000
24.306820713000,0.028000000000
24.314507974000,0.002000000000
24.322195235000,-0.038000000000
24.329882496000,-0.081000000000
24.337569757000,-0.115000000000
24.345257018000,-0.137000000000
24.352944279000,-0.151000000000
24.360631540000,-0.163000000000
24.368318801000,-0.165000000000
24.376006062000,-0.165000000000
24.383693323000,-0.163000000000
24.391380584000,-0.163000000000
24.399067845000,-0.161000000000
24.406755106000,-0.161000000000
24.414442367000,-0.161000000000
24.422129628000,-0.163000000000
24.429816889000,-0.165000000000
24.437504150000,-0.168000000000
24.445191411000,-0.173000000000
24.452878686000,-0.175000000000
24.460565807000,-0.177000000000
24.468252928000,-0.180000000000
24.475940049000,-0.185000000000
24.483627170000,-0.192000000000
24.491314291000,-0.199000000000
24.499001412000,-0.206000000000
24.506688533000,-0.209000000000
24.514375654000,-0.204000000000
24.522062775000,-0.192000000000
24.529749896000,-0.182000000000
24.537437017000,-0.173000000000
24.545124138000,-0.149000000000
24.552811259000,-0.132000000000
24.560498380000,-0.153000000000
24.568185501000,-0.175000000000
24.575872622000,-0.175000000000
24.583559743000,-0.173000000000
24.591246864000,-0.173000000000
24.598933985000,-0.168000000000
24.606621106000,-0.163000000000
24.614308227000,-0.175000000000
24.621995348000,-0.214000000000
24.629682469000,-0.228000000000
24.637369590000,0.031000000000
24.645056711000,0.637000000000
24.652743832000,1.002000000000
24.660430953000,0.538000000000
24.668118074000,-0.348000000000
24.675805195000,-0.685000000000
24.683492316000,-0.425000000000
24.691179437000,-0.290000000000
24.698866558000,-0.307000000000
24.706553679000,-0.209000000000
24.714240800000,-0.158000000000
24.721927921000,-0.187000000000
24.729615042000,-0.168000000000
24.737302163000,-0.132000000000
24.744989284000,-0.132000000000
24.752676405000,-0.125000000000
24.760363526000,-0.108000000000
24.768050647000,-0.103000000000
24.775737768000,-0.098000000000
24.783424889000,-0.088000000000
24.791112010000,-0.079000000000
24.798799131000,-0.067000000000
24.806486252000,-0.055000000000
24.814173373000,-0.045000000000
24.821860494000,-0.036000000000
24.829547615000,-0.024000000000
24.837234736000,-0.009000000000
24.844921857000,0.000000000000
24.852608978000,0.002000000000
24.860296099000,0.002000000000
24.867983220000,-0.002000000000
24.875670341000,-0.004000000000
24.883357462000,-0.007000000000
24.891044583000,-0.007000000000
24.898731704000,-0.009000000000
24.906418825000,-0.016000000000
24.914105946000,-0.031000000000
24.921793067000,-0.055000000000
24.929480188000,-0.084000000000
24.937167309000,-0.110000000000
24.944854430000,-0.129000000000
24.952541551000,-0.141000000000
24.960228672000,-0.146000000000
24.967915793000,-0.151000000000
24.975602914000,-0.151000000000
24.983290035000,-0.151000000000
24.990977156000,-0.146000000000
24.998664277000,-0.139000000000
25.006351398000,-0.137000000000
25.014038583000,-0.134000000000
25.021725704000,-0.129000000000
25.029412825000,-0.129000000000
25.037099946000,-0.132000000000
25.044787067000,-0.132000000000
25.052474188000,-0.137000000000
25.060161309000,-0.139000000000
25.067848430000,-0.139000000000
25.075535551000,-0.137000000000
25.083222672000,-0.137000000000
25.090909793000,-0.139000000000
25.098596914000,-0.144000000000
25.106284035000,-0.149000000000
25.113971156000,-0.151000000000
25.121658277000,-0.149000000000
25.129345398000,-0.139000000000
25.137032519000,-0.127000000000
25.144719640000,-0.115000000000
25.152406761000,-0.098000000000
25.160093882000,-0.074000000000
25.167781003000,-0.076000000000
25.175468124000,-0.103000000000
25.183155245000,-0.110000000000
25.190842366000,-0.105000000000
25.198529487000,-0.108000000000
25.206216608000,-0.103000000000
25.213903729000,-0.096000000000
25.221590850000,-0.098000000000
25.229277971000,-0.117000000000
25.236965092000,-0.158000000000
25.244652213000,-0.069000000000
25.252339334000,0.401000000000
25.260026455000,0.981000000000
25.267713576000,0.930000000000
25.275400697000,0.120000000000
25.283087818000,-0.567000000000
25.290774939000,-0.512000000000
25.298462060000,-0.254000000000
25.306149181000,-0.238000000000
25.313836302000,-0.187000000000
25.321523423000,-0.081000000000
25.329210544000,-0.081000000000
25.336897665000,-0.091000000000
25.344584786000,-0.055000000000
25.352271907000,-0.040000000000
25.359959028000,-0.040000000000
25.367646149000,-0.028000000000
25.375333270000,-0.016000000000
25.383020391000,-0.009000000000
25.390707512000,0.000000000000
25.398394633000,0.007000000000
25.406081754000,0.016000000000
25.413768875000,0.031000000000
25.421455996000,0.040000000000
25.429143117000,0.050000000000
25.436830238000,0.067000000000
25.444517359000,0.086000000000
25.452204480000,0.093000000000
25.459891601000,0.098000000000
25.467578722000,0.108000000000
25.475265843000,0.105000000000
25.482952964000,0.096000000000
25.490640085000,0.098000000000
25.498327206000,0.098000000000
25.506014327000,0.093000000000
25.513701448000,0.093000000000
25.521388569000,0.079000000000
25.529075690000,0.055000000000
25.536762811000,0.024000000000
25.544449932000,-0.012000000000
25.552137053000,-0.043000000000
25.559824174000,-0.060000000000
25.567511295000,-0.074000000000
25.575198484000,-0.084000000000
25.582885605000,-0.086000000000
25.590572726000,-0.086000000000
25.598259847000,-0.086000000000
25.605946968000,-0.084000000000
25.613634089000,-0.079000000000
25.621321210000,-0.072000000000
25.629008331000,-0.074000000000
25.636695452000,-0.079000000000
25.644382573000,-0.076000000000
25.652069694000,-0.079000000000
25.659756815000,-0.081000000000
25.667443936000,-0.081000000000
25.675131057000,-0.088000000000
25.682818178000,-0.091000000000
25.690505299000,-0.086000000000
25.698192420000,-0.086000000000
25.705879541000,-0.091000000000
25.713566662000,-0.088000000000
25.721253783000,-0.088000000000
25.728940904000,-0.093000000000
25.736628025000,-0.098000000000
25.744315146000,-0.101000000000
25.752002267000,-0.101000000000
25.759689388000,-0.088000000000
25.767376509000,-0.079000000000
25.775063630000,-0.072000000000
25.782750751000,-0.048000000000
25.790437872000,-0.028000000000
25.798124993000,-0.045000000000
25.805812114000,-0.069000000000
25.813499235000,-0.072000000000
25.821186356000,-0.072000000000
25.828873477000,-0.067000000000
25.836560598000,-0.057000000000
25.844247719000,-0.057000000000
25.851934840000,-0.069000000000
25.859621961000,-0.098000000000
25.867309082000,-0.067000000000
25.874996203000,0.257000000000
25.882683324000,0.865000000000
25.890370445000,1.055000000000
25.898057566000,0.351000000000
25.905744687000,-0.519000000000
25.913431808000,-0.651000000000
25.921118929000,-0.346000000000
25.928806050000,-0.247000000000
25.936493171000,-0.221000000000
25.944180292000,-0.084000000000
25.951867413000,-0.036000000000
25.959554534000,-0.060000000000
25.967241655000,-0.033000000000
25.974928776000,-0.009000000000
25.982615897000,-0.016000000000
25.990303018000,-0.009000000000
25.997990139000,0.007000000000
26.005677260000,0.014000000000
26.013364381000,0.024000000000
26.021051502000,0.038000000000
26.028738623000,0.045000000000
26.036425744000,0.052000000000
26.044112865000,0.067000000000
26.051799986000,0.081000000000
26.059487107000,0.096000000000
26.067174228000,0.108000000000
26.074861349000,0.125000000000
26.082548470000,0.139000000000
26.090235591000,0.146000000000
26.097922712000,0.153000000000
26.105609833000,0.161000000000
26.113296954000,0.158000000000
26.120984075000,0.156000000000
26.128671196000,0.158000000000
26.136358381000,0.153000000000
26.144045502000,0.132000000000
26.151732623000,0.101000000000
26.159419744000,0.060000000000
26.167106865000,0.009000000000
26.174793986000,-0.036000000000
26.182481107000,-0.069000000000
26.190168228000,-0.096000000000
26.197855349000,-0.110000000000
26.205542470000,-0.115000000000
26.213229591000,-0.115000000000
26.220916712000,-0.115000000000
26.228603833000,-0.110000000000
26.236290954000,-0.105000000000
26.243978075000,-0.103000000000
26.251665196000,-0.105000000000
26.259352317000,-0.105000000000
26.267039438000,-0.105000000000
26.274726559000,-0.110000000000
26.282413680000,-0.117000000000
26.290100801000,-0.125000000000
26.297787922000,-0.129000000000
26.305475043000,-0.132000000000
26.313162164000,-0.132000000000
26.320849285000,-0.132000000000
26.328536406000,-0.134000000000
26.336223527000,-0.134000000000
26.343910648000,-0.139000000000
26.351597769000,-0.144000000000
26.359284890000,-0.146000000000
26.366972011000,-0.149000000000
26.374659132000,-0.149000000000
26.382346253000,-0.137000000000
26.390033374000,-0.127000000000
26.397720495000,-0.122000000000
26.405407616000,-0.098000000000
26.413094737000,-0.076000000000
26.420781858000,-0.093000000000
26.428468979000,-0.117000000000
26.436156100000,-0.115000000000
26.443843221000,-0.113000000000
26.451530342000,-0.117000000000
26.459217463000,-0.113000000000
26.466904584000,-0.108000000000
26.474591705000,-0.117000000000
26.482278826000,-0.146000000000
26.489965947000,-0.137000000000
26.497653068000,0.158000000000
26.505340189000,0.771000000000
26.513027310000,1.043000000000
26.520714431000,0.432000000000
26.528401552000,-0.468000000000
26.536088673000,-0.697000000000
26.543775794000,-0.404000000000
26.551462915000,-0.283000000000
26.559150036000,-0.271000000000
26.566837157000,-0.144000000000
26.574524278000,-0.084000000000
26.582211399000,-0.108000000000
26.589898520000,-0.088000000000
26.597585641000,-0.060000000000
26.605272762000,-0.062000000000
26.612959883000,-0.055000000000
26.620647004000,-0.038000000000
26.628334125000,-0.033000000000
26.636021246000,-0.031000000000
26.643708367000,-0.021000000000
26.651395488000,-0.009000000000
26.659082609000,0.002000000000
26.666769730000,0.014000000000
26.674456851000,0.026000000000
26.682143972000,0.040000000000
26.689831093000,0.055000000000
26.697518278000,0.069000000000
26.705205399000,0.079000000000
26.712892520000,0.088000000000
26.720579641000,0.093000000000
26.728266762000,0.096000000000
26.735953883000,0.096000000000
26.743641004000,0.093000000000
26.751328125000,0.093000000000
26.759015246000,0.091000000000
26.766702367000,0.081000000000
26.774389488000,0.057000000000
26.782076609000,0.021000000000
26.789763730000,-0.019000000000
26.797450851000,-0.057000000000
26.805137972000,-0.088000000000
26.812825093000,-0.108000000000
26.820512214000,-0.120000000000
26.828199335000,-0.127000000000
26.835886456000,-0.127000000000
26.843573577000,-0.122000000000
26.851260698000,-0.120000000000
26.858947819000,-0.115000000000
26.866634940000,-0.113000000000
26.874322061000,-0.113000000000
26.882009182000,-0.110000000000
26.889696303000,-0.113000000000
26.897383424000,-0.115000000000
26.905070545000,-0.115000000000
26.912757666000,-0.117000000000
26.920444787000,-0.120000000000
26.928131908000,-0.120000000000
26.935819029000,-0.122000000000
26.943506150000,-0.122000000000
26.951193271000,-0.122000000000
26.958880392000,-0.122000000000
26.966567513000,-0.125000000000
26.974254634000,-0.122000000000
26.981941755000,-0.127000000000
26.989628876000,-0.132000000000
26.997315997000,-0.137000000000
27.005003118000,-0.134000000000
27.012690239000,-0.122000000000
27.020377360000,-0.110000000000
27.028064481000,-0.101000000000
27.035751602000,-0.081000000000
27.043438723000,-0.057000000000
27.051125844000,-0.060000000000
27.058812965000,-0.084000000000
27.066500086000,-0.096000000000
27.074187207000,-0.088000000000
27.081874328000,-0.088000000000
27.089561449000,-0.086000000000
27.097248570000,-0.081000000000
27.104935691000,-0.079000000000
27.112622812000,-0.101000000000
27.120309933000,-0.139000000000
27.127997054000,-0.055000000000
27.135684175000,0.382000000000
27.143371296000,0.954000000000
27.151058417000,0.971000000000
27.158745538000,0.206000000000
27.166432659000,-0.531000000000
27.174119780000,-0.517000000000
27.181806901000,-0.242000000000
27.189494022000,-0.221000000000
27.197181143000,-0.187000000000
27.204868264000,-0.084000000000
27.212555385000,-0.088000000000
27.220242506000,-0.103000000000
27.227929627000,-0.067000000000
27.235616748000,-0.048000000000
27.243303869000,-0.050000000000
27.250990990000,-0.040000000000
27.258678175000,-0.031000000000
27.266365296000,-0.024000000000
27.274052417000,-0.016000000000
27.281739538000,-0.009000000000
27.289426659000,-0.002000000000
27.297113780000,0.007000000000
27.304800901000,0.016000000000
27.312488022000,0.026000000000
27.320175143000,0.038000000000
27.327862264000,0.048000000000
27.335549385000,0.055000000000
27.343236506000,0.060000000000
27.350923627000,0.062000000000
27.358610748000,0.062000000000
27.366297869000,0.057000000000
27.373984990000,0.050000000000
27.381672111000,0.048000000000
27.389359232000,0.045000000000
27.397046353000,0.040000000000
27.404733474000,0.031000000000
27.412420595000,0.016000000000
27.420107716000,-0.007000000000
27.427794837000,-0.036000000000
27.435481958000,-0.062000000000
27.443169079000,-0.081000000000
27.450856200000,-0.091000000000
27.458543321000,-0.098000000000
27.466230442000,-0.103000000000
27.473917563000,-0.105000000000
27.481604684000,-0.103000000000
27.489291805000,-0.101000000000
27.496978926000,-0.098000000000
27.504666047000,-0.098000000000
27.512353168000,-0.096000000000
27.520040289000,-0.098000000000
27.527727410000,-0.098000000000
27.535414531000,-0.098000000000
27.543101652000,-0.101000000000
27.550788773000,-0.103000000000
27.558475894000,-0.103000000000
27.566163015000,-0.103000000000
27.573850136000,-0.103000000000
27.581537257000,-0.108000000000
27.589224378000,-0.108000000000
27.596911499000,-0.108000000000
27.604598620000,-0.108000000000
27.612285741000,-0.105000000000
27.619972862000,-0.105000000000
27.627659983000,-0.105000000000
27.635347104000,-0.103000000000
27.643034225000,-0.103000000000
27.650721346000,-0.108000000000
27.658408467000,-0.115000000000
27.666095588000,-0.117000000000
27.673782709000,-0.115000000000
27.681469830000,-0.103000000000
27.689156951000,-0.086000000000
27.696844072000,-0.079000000000
27.704531193000,-0.062000000000
27.712218314000,-0.038000000000
27.719905435000,-0.045000000000
27.727592556000,-0.072000000000
27.735279677000,-0.076000000000
27.742966798000,-0.074000000000
27.750653919000,-0.074000000000
27.758341040000,-0.072000000000
27.766028161000,-0.067000000000
27.773715282000,-0.072000000000
27.781402403000,-0.093000000000
27.789089524000,-0.125000000000
27.796776645000,-0.002000000000
27.804463766000,0.480000000000
27.812150887000,1.007000000000
27.819838072000,0.870000000000
27.827525611000,0.031000000000
27.835213150000,-0.591000000000
27.842900689000,-0.468000000000
27.850588228000,-0.226000000000
27.858275767000,-0.228000000000
27.865963306000,-0.165000000000
27.873650845000,-0.069000000000
27.881338384000,-0.081000000000
27.889025923000,-0.088000000000
27.896713462000,-0.050000000000
27.904401001000,-0.040000000000
27.912088540000,-0.040000000000
27.919776079000,-0.028000000000
27.927463618000,-0.019000000000
27.935151157000,-0.019000000000
27.942838696000,-0.012000000000
27.950526235000,-0.002000000000
27.958213774000,0.007000000000
27.965901313000,0.016000000000
27.973588852000,0.031000000000
27.981276391000,0.043000000000
27.988963930000,0.052000000000
27.996651469000,0.064000000000
28.004339008000,0.076000000000
28.012026547000,0.084000000000
28.019714086000,0.084000000000
28.027401625000,0.081000000000
28.035089164000,0.076000000000
28.042776703000,0.069000000000
28.050464242000,0.064000000000
28.058151781000,0.064000000000
28.065839320000,0.062000000000
28.073526859000,0.052000000000
28.081214398000,0.033000000000
28.088901937000,0.007000000000
28.096589476000,-0.024000000000
28.104277015000,-0.052000000000
28.111964554000,-0.072000000000
28.119652093000,-0.088000000000
28.127339632000,-0.098000000000
28.135027171000,-0.103000000000
28.142714710000,-0.105000000000
28.150402249000,-0.103000000000
28.158089788000,-0.101000000000
28.165777327000,-0.098000000000
28.173464866000,-0.098000000000
28.181152405000,-0.098000000000
28.188839944000,-0.101000000000
28.196527483000,-0.098000000000
28.204215022000,-0.098000000000
28.211902561000,-0.103000000000
28.219590100000,-0.108000000000
28.227277639000,-0.108000000000
28.234965178000,-0.108000000000
28.242652717000,-0.113000000000
28.250340256000,-0.113000000000
28.258027795000,-0.113000000000
28.265715334000,-0.113000000000
28.273402873000,-0.110000000000
28.281090412000,-0.108000000000
28.288777951000,-0.108000000000
28.296465490000,-0.105000000000
28.304153029000,-0.103000000000
28.311840568000,-0.103000000000
28.319528107000,-0.101000000000
28.327215646000,-0.096000000000
28.334903185000,-0.093000000000
28.342590724000,-0.096000000000
28.350278263000,-0.103000000000
28.357965802000,-0.110000000000
28.365653341000,-0.110000000000
28.373340880000,-0.103000000000
28.381028491000,-0.091000000000
28.388715612000,-0.081000000000
28.396402733000,-0.072000000000
28.404089854000,-0.045000000000
28.411776975000,-0.036000000000
28.419464096000,-0.057000000000
28.427151217000,-0.076000000000
28.434838338000,-0.074000000000
28.442525459000,-0.074000000000
28.450212580000,-0.074000000000
28.457899701000,-0.072000000000
28.465586822000,-0.067000000000
28.473273943000,-0.076000000000
28.480961064000,-0.110000000000
28.488648185000,-0.084000000000
28.496335306000,0.242000000000
28.504022427000,0.827000000000
28.511709548000,1.007000000000
28.519396669000,0.363000000000
28.527083790000,-0.461000000000
28.534770911000,-0.598000000000
28.542458032000,-0.305000000000
28.550145153000,-0.226000000000
28.557832274000,-0.206000000000
28.565519395000,-0.086000000000
28.573206516000,-0.057000000000
28.580893637000,-0.086000000000
28.588580758000,-0.057000000000
28.596267879000,-0.033000000000
28.603955000000,-0.038000000000
28.611642121000,-0.028000000000
28.619329242000,-0.014000000000
28.627016363000,-0.012000000000
28.634703484000,-0.004000000000
28.642390605000,0.007000000000
28.650077726000,0.012000000000
28.657764847000,0.019000000000
28.665451968000,0.028000000000
28.673139089000,0.040000000000
28.680826210000,0.052000000000
28.688513331000,0.064000000000
28.696200452000,0.074000000000
28.703887573000,0.081000000000
28.711574694000,0.086000000000
28.719261815000,0.086000000000
28.726948936000,0.084000000000
28.734636057000,0.081000000000
28.742323178000,0.079000000000
28.750010299000,0.081000000000
28.757697420000,0.081000000000
28.765384541000,0.079000000000
28.773071662000,0.062000000000
28.780758783000,0.036000000000
28.788445904000,0.002000000000
28.796133025000,-0.028000000000
28.803820146000,-0.057000000000
28.811507267000,-0.076000000000
28.819194388000,-0.088000000000
28.826881509000,-0.098000000000
28.834568630000,-0.103000000000
28.842255751000,-0.103000000000
28.849942872000,-0.103000000000
28.857629993000,-0.101000000000
28.865317114000,-0.098000000000
28.873004235000,-0.098000000000
28.880691356000,-0.101000000000
28.888378477000,-0.101000000000
28.896065598000,-0.103000000000
28.903752719000,-0.108000000000
28.911439840000,-0.108000000000
28.919126961000,-0.110000000000
28.926814082000,-0.110000000000
28.934501203000,-0.113000000000
28.942188388000,-0.117000000000
28.949875509000,-0.117000000000
28.957562630000,-0.117000000000
28.965249751000,-0.115000000000
28.972936872000,-0.113000000000
28.980623993000,-0.113000000000
28.988311114000,-0.113000000000
28.995998235000,-0.110000000000
29.003685356000,-0.108000000000
29.011372477000,-0.108000000000
29.019059598000,-0.105000000000
29.026746719000,-0.105000000000
29.034433840000,-0.103000000000
29.042120961000,-0.105000000000
29.049808082000,-0.113000000000
29.057495203000,-0.117000000000
29.065182324000,-0.117000000000
29.072869445000,-0.108000000000
29.080556566000,-0.096000000000
29.088243687000,-0.086000000000
29.095930808000,-0.076000000000
29.103617929000,-0.052000000000
29.111305050000,-0.045000000000
29.118992171000,-0.072000000000
29.126679292000,-0.088000000000
29.134366413000,-0.084000000000
29.142053534000,-0.084000000000
29.149740655000,-0.086000000000
29.157427776000,-0.079000000000
29.165114897000,-0.076000000000
29.172802018000,-0.091000000000
29.180489139000,-0.125000000000
29.188176260000,-0.069000000000
29.195863381000,0.312000000000
29.203550502000,0.877000000000
29.211237623000,0.937000000000
29.218924744000,0.197000000000
29.226611865000,-0.565000000000
29.234298986000,-0.581000000000
29.241986107000,-0.290000000000
29.249673228000,-0.245000000000
29.257360349000,-0.206000000000
29.265047470000,-0.084000000000
29.272734591000,-0.072000000000
29.280421712000,-0.096000000000
29.288108833000,-0.060000000000
29.295795954000,-0.040000000000
29.303483075000,-0.043000000000
29.311170196000,-0.033000000000
29.318857317000,-0.021000000000
29.326544438000,-0.016000000000
29.334231559000,-0.009000000000
29.341918680000,0.000000000000
29.349605801000,0.009000000000
29.357292922000,0.016000000000
29.364980043000,0.026000000000
