time,LSB
0.000000000000,0.779000000000
0.007687888000,0.278000000000
0.015375776000,-0.451000000000
0.023063664000,-0.554000000000
0.030751552000,-0.281000000000
0.038439440000,-0.224000000000
0.046127328000,-0.229000000000
0.053815216000,-0.118000000000
0.061503104000,-0.064000000000
0.069190992000,-0.071000000000
0.076878880000,-0.051000000000
0.084566768000,-0.041000000000
0.092254656000,-0.046000000000
0.099942544000,-0.034000000000
0.107630432000,-0.024000000000
0.115318320000,-0.032000000000
0.123006208000,-0.022000000000
0.130694096000,-0.002000000000
0.138381984000,0.000000000000
0.146069872000,0.000000000000
0.153757760000,0.012000000000
0.161445648000,0.019000000000
0.169133536000,0.024000000000
0.176821424000,0.036000000000
0.184509312000,0.056000000000
0.192197200000,0.069000000000
0.199885110000,0.081000000000
0.207572858000,0.106000000000
0.215260606000,0.130000000000
0.222948354000,0.133000000000
0.230636102000,0.133000000000
0.238323850000,0.145000000000
0.246011598000,0.147000000000
0.253699346000,0.143000000000
0.261387094000,0.125000000000
0.269074842000,0.091000000000
0.276762590000,0.046000000000
0.284450338000,-0.004000000000
0.292138086000,-0.059000000000
0.299825834000,-0.103000000000
0.307513582000,-0.143000000000
0.315201330000,-0.165000000000
0.322889078000,-0.167000000000
0.330576826000,-0.162000000000
0.338264574000,-0.165000000000
0.345952322000,-0.170000000000
0.353640070000,-0.167000000000
0.361327818000,-0.155000000000
0.369015566000,-0.135000000000
0.376703314000,-0.130000000000
0.384391062000,-0.133000000000
0.392078810000,-0.128000000000
0.399766558000,-0.118000000000
0.407454306000,-0.115000000000
0.415142054000,-0.113000000000
0.422829802000,-0.110000000000
0.430517550000,-0.113000000000
0.438205298000,-0.113000000000
0.445893046000,-0.118000000000
0.453580794000,-0.125000000000
0.461268542000,-0.130000000000
0.468956290000,-0.130000000000
0.476644038000,-0.128000000000
0.484331786000,-0.120000000000
0.492019534000,-0.110000000000
0.499707282000,-0.093000000000
0.507395030000,-0.083000000000
0.515082778000,-0.093000000000
0.522770526000,-0.106000000000
0.530458274000,-0.108000000000
0.538146022000,-0.108000000000
0.545833770000,-0.108000000000
0.553521518000,-0.106000000000
0.561209266000,-0.098000000000
0.568897014000,-0.096000000000
0.576584762000,-0.120000000000
0.584272510000,-0.150000000000
0.591960258000,-0.024000000000
0.599648006000,0.421000000000
0.607335754000,0.816000000000
0.615023502000,0.530000000000
0.622711250000,-0.216000000000
0.630398998000,-0.520000000000
0.638086746000,-0.288000000000
0.645774494000,-0.172000000000
0.653462242000,-0.214000000000
0.661149990000,-0.138000000000
0.668837738000,-0.059000000000
0.676525486000,-0.076000000000
0.684213234000,-0.076000000000
0.691900982000,-0.051000000000
0.699588730000,-0.051000000000
0.707276478000,-0.054000000000
0.714964226000,-0.036000000000
0.722651974000,-0.034000000000
0.730339722000,-0.039000000000
0.738027470000,-0.029000000000
0.745715218000,-0.014000000000
0.753402966000,-0.004000000000
0.761090786000,-0.002000000000
0.768778534000,0.000000000000
0.776466282000,0.004000000000
0.784154030000,0.014000000000
0.791841778000,0.022000000000
0.799529526000,0.022000000000
0.807217274000,0.034000000000
0.814905022000,0.054000000000
0.822592770000,0.066000000000
0.830280518000,0.078000000000
0.837968266000,0.093000000000
0.845656014000,0.110000000000
0.853343762000,0.120000000000
0.861031510000,0.118000000000
0.868719258000,0.106000000000
0.876407006000,0.098000000000
0.884094754000,0.069000000000
0.891782502000,0.017000000000
0.899470250000,-0.032000000000
0.907157998000,-0.061000000000
0.914845746000,-0.091000000000
0.922533494000,-0.120000000000
0.930221242000,-0.125000000000
0.937908990000,-0.118000000000
0.945596738000,-0.118000000000
0.953284486000,-0.118000000000
0.960972234000,-0.115000000000
0.968659982000,-0.113000000000
0.976347730000,-0.108000000000
0.984035478000,-0.103000000000
0.991723226000,-0.101000000000
0.999410974000,-0.101000000000
1.007098722000,-0.096000000000
1.014786470000,-0.091000000000
1.022474218000,-0.088000000000
1.030161966000,-0.086000000000
1.037849714000,-0.091000000000
1.045537462000,-0.093000000000
1.053225210000,-0.086000000000
1.060912958000,-0.083000000000
1.068600706000,-0.088000000000
1.076288454000,-0.091000000000
1.083976202000,-0.098000000000
1.091663950000,-0.106000000000
1.099351698000,-0.106000000000
1.107039446000,-0.096000000000
1.114727194000,-0.081000000000
1.122414942000,-0.073000000000
1.130102690000,-0.069000000000
1.137790438000,-0.054000000000
1.145478186000,-0.051000000000
1.153165934000,-0.076000000000
1.160853682000,-0.083000000000
1.168541430000,-0.073000000000
1.176229178000,-0.076000000000
1.183916926000,-0.083000000000
1.191604674000,-0.076000000000
1.199292422000,-0.066000000000
1.206980170000,-0.078000000000
1.214667918000,-0.110000000000
1.222355666000,-0.103000000000
1.230043414000,0.133000000000
1.237731162000,0.594000000000
1.245418910000,0.786000000000
1.253106658000,0.318000000000
1.260794406000,-0.295000000000
1.268482154000,-0.357000000000
1.276169902000,-0.157000000000
1.283857650000,-0.162000000000
1.291545398000,-0.170000000000
1.299233146000,-0.073000000000
1.306920894000,-0.061000000000
1.314608642000,-0.088000000000
1.322296458000,-0.064000000000
1.329984346000,-0.044000000000
1.337672234000,-0.051000000000
1.345360122000,-0.046000000000
1.353048010000,-0.034000000000
1.360735898000,-0.036000000000
1.368423786000,-0.034000000000
1.376111674000,-0.024000000000
1.383799562000,-0.024000000000
1.391487450000,-0.019000000000
1.399175338000,-0.014000000000
1.406863226000,-0.017000000000
1.414551114000,-0.009000000000
1.422239002000,0.002000000000
1.429926890000,0.007000000000
1.437614778000,0.014000000000
1.445302666000,0.032000000000
1.452990554000,0.049000000000
1.460678442000,0.059000000000
1.468366330000,0.073000000000
1.476054218000,0.081000000000
1.483742106000,0.081000000000
1.491429994000,0.086000000000
1.499117882000,0.101000000000
1.506805770000,0.098000000000
1.514493658000,0.073000000000
1.522181546000,0.041000000000
1.529869434000,0.007000000000
1.537557322000,-0.034000000000
1.545245210000,-0.076000000000
1.552933098000,-0.103000000000
1.560620986000,-0.113000000000
1.568308874000,-0.123000000000
1.575996762000,-0.128000000000
1.583684650000,-0.123000000000
1.591372538000,-0.120000000000
1.599060426000,-0.120000000000
1.606748314000,-0.115000000000
1.614436202000,-0.115000000000
1.622124090000,-0.118000000000
1.629811978000,-0.110000000000
1.637499866000,-0.103000000000
1.645187754000,-0.103000000000
1.652875642000,-0.108000000000
1.660563530000,-0.103000000000
1.668251418000,-0.096000000000
1.675939306000,-0.103000000000
1.683627194000,-0.108000000000
1.691315082000,-0.101000000000
1.699002970000,-0.098000000000
1.706690858000,-0.103000000000
1.714378746000,-0.096000000000
1.722066634000,-0.093000000000
1.729754522000,-0.103000000000
1.737442410000,-0.108000000000
1.745130298000,-0.103000000000
1.752818186000,-0.096000000000
1.760506074000,-0.091000000000
1.768193962000,-0.091000000000
1.775881850000,-0.093000000000
1.783569738000,-0.093000000000
1.791257626000,-0.088000000000
1.798945514000,-0.086000000000
1.806633402000,-0.091000000000
1.814321290000,-0.091000000000
1.822009178000,-0.083000000000
1.829697066000,-0.081000000000
1.837384954000,-0.083000000000
1.845072842000,-0.083000000000
1.852760730000,-0.081000000000
1.860448618000,-0.076000000000
1.868136506000,-0.071000000000
1.875824394000,-0.076000000000
1.883512308000,-0.081000000000
1.891199917000,-0.076000000000
1.898887526000,-0.069000000000
1.906575135000,-0.066000000000
1.914262744000,-0.066000000000
1.921950353000,-0.069000000000
1.929637962000,-0.076000000000
1.937325571000,-0.081000000000
1.945013180000,-0.083000000000
1.952700789000,-0.081000000000
1.960388398000,-0.073000000000
1.968076007000,-0.069000000000
1.975763616000,-0.066000000000
1.983451225000,-0.054000000000
1.991138834000,-0.034000000000
1.998826443000,-0.027000000000
2.006514052000,-0.034000000000
2.014201661000,-0.051000000000
2.021889270000,-0.064000000000
2.029576879000,-0.064000000000
2.037264488000,-0.059000000000
2.044952097000,-0.061000000000
2.052639706000,-0.066000000000
2.060327315000,-0.069000000000
2.068014924000,-0.069000000000
2.075702533000,-0.081000000000
2.083390142000,-0.110000000000
2.091077751000,-0.019000000000
2.098765360000,0.372000000000
2.106452969000,0.774000000000
2.114140578000,0.599000000000
2.121828187000,-0.064000000000
2.129515796000,-0.419000000000
2.137203405000,-0.261000000000
2.144891014000,-0.152000000000
2.152578623000,-0.192000000000
2.160266232000,-0.120000000000
2.167953841000,-0.051000000000
2.175641450000,-0.083000000000
2.183329059000,-0.086000000000
2.191016668000,-0.054000000000
2.198704277000,-0.054000000000
2.206391886000,-0.056000000000
2.214079495000,-0.041000000000
2.221767104000,-0.032000000000
2.229454713000,-0.029000000000
2.237142322000,-0.032000000000
2.244829931000,-0.032000000000
2.252517540000,-0.024000000000
2.260205149000,-0.014000000000
2.267892758000,-0.004000000000
2.275580367000,-0.002000000000
2.283267976000,0.002000000000
2.290955585000,0.012000000000
2.298643194000,0.022000000000
2.306330803000,0.024000000000
2.314018412000,0.034000000000
2.321706021000,0.059000000000
2.329393630000,0.076000000000
2.337081239000,0.081000000000
2.344768848000,0.088000000000
2.352456457000,0.091000000000
2.360144066000,0.093000000000
2.367831675000,0.108000000000
2.375519284000,0.110000000000
2.383206893000,0.096000000000
2.390894502000,0.076000000000
2.398582111000,0.041000000000
2.406269720000,0.004000000000
2.413957329000,-0.034000000000
2.421644938000,-0.071000000000
2.429332547000,-0.101000000000
2.437020156000,-0.118000000000
2.444707806000,-0.123000000000
2.452395764000,-0.123000000000
2.460083722000,-0.125000000000
2.467771680000,-0.130000000000
2.475459638000,-0.125000000000
2.483147596000,-0.125000000000
2.490835554000,-0.118000000000
2.498523512000,-0.108000000000
2.506211470000,-0.113000000000
2.513899428000,-0.115000000000
2.521587386000,-0.103000000000
2.529275344000,-0.106000000000
2.536963302000,-0.113000000000
2.544651260000,-0.106000000000
2.552339218000,-0.101000000000
2.560027176000,-0.106000000000
2.567715134000,-0.108000000000
2.575403092000,-0.108000000000
2.583091050000,-0.118000000000
2.590779008000,-0.128000000000
2.598466966000,-0.123000000000
2.606154924000,-0.108000000000
2.613842882000,-0.103000000000
2.621530840000,-0.103000000000
2.629218798000,-0.110000000000
2.636906756000,-0.118000000000
2.644594714000,-0.118000000000
2.652282672000,-0.113000000000
2.659970630000,-0.113000000000
2.667658588000,-0.110000000000
2.675346546000,-0.101000000000
2.683034504000,-0.096000000000
2.690722462000,-0.096000000000
2.698410420000,-0.098000000000
2.706098378000,-0.098000000000
2.713786336000,-0.098000000000
2.721474294000,-0.101000000000
2.729162252000,-0.101000000000
2.736850210000,-0.093000000000
2.744538168000,-0.088000000000
2.752226126000,-0.093000000000
2.759914084000,-0.103000000000
2.767602042000,-0.098000000000
2.775290000000,-0.096000000000
2.782977958000,-0.101000000000
2.790665916000,-0.096000000000
2.798353874000,-0.073000000000
2.806041832000,-0.064000000000
2.813729790000,-0.064000000000
2.821417748000,-0.061000000000
2.829105706000,-0.069000000000
2.836793664000,-0.083000000000
2.844481622000,-0.083000000000
2.852169580000,-0.073000000000
2.859857538000,-0.076000000000
2.867545496000,-0.083000000000
2.875233454000,-0.076000000000
2.882921412000,-0.078000000000
2.890609370000,-0.113000000000
2.898297328000,-0.118000000000
2.905985286000,0.110000000000
2.913673244000,0.572000000000
2.921361202000,0.744000000000
2.929049160000,0.234000000000
2.936737118000,-0.389000000000
2.944425076000,-0.429000000000
2.952113034000,-0.209000000000
2.959800992000,-0.207000000000
2.967488950000,-0.207000000000
2.975176908000,-0.088000000000
2.982864866000,-0.056000000000
2.990552824000,-0.083000000000
2.998240782000,-0.059000000000
3.005928743000,-0.041000000000
3.013616422000,-0.056000000000
3.021304101000,-0.051000000000
3.028991780000,-0.041000000000
3.036679459000,-0.039000000000
3.044367138000,-0.032000000000
3.052054817000,-0.024000000000
3.059742496000,-0.022000000000
3.067430175000,-0.022000000000
3.075117854000,-0.019000000000
3.082805533000,-0.017000000000
3.090493212000,-0.012000000000
3.098180891000,-0.002000000000
3.105868570000,0.002000000000
3.113556249000,0.009000000000
3.121243928000,0.022000000000
3.128931607000,0.034000000000
3.136619286000,0.044000000000
3.144306965000,0.051000000000
3.151994644000,0.056000000000
3.159682323000,0.064000000000
3.167370002000,0.073000000000
3.175057681000,0.076000000000
3.182745360000,0.076000000000
3.190433039000,0.069000000000
3.198120718000,0.044000000000
3.205808397000,0.009000000000
3.213496076000,-0.027000000000
3.221183755000,-0.061000000000
3.228871434000,-0.098000000000
3.236559113000,-0.133000000000
3.244246792000,-0.143000000000
3.251934471000,-0.143000000000
3.259622150000,-0.150000000000
3.267309829000,-0.152000000000
3.274997508000,-0.143000000000
3.282685187000,-0.135000000000
3.290372866000,-0.138000000000
3.298060545000,-0.138000000000
3.305748224000,-0.128000000000
3.313435903000,-0.120000000000
3.321123582000,-0.120000000000
3.328811261000,-0.120000000000
3.336498940000,-0.115000000000
3.344186619000,-0.113000000000
3.351874298000,-0.108000000000
3.359561977000,-0.108000000000
3.367249656000,-0.108000000000
3.374937335000,-0.110000000000
3.382625014000,-0.108000000000
3.390312693000,-0.108000000000
3.398000372000,-0.110000000000
3.405688051000,-0.103000000000
3.413375730000,-0.103000000000
3.421063409000,-0.118000000000
3.428751088000,-0.118000000000
3.436438767000,-0.101000000000
3.444126446000,-0.101000000000
3.451814125000,-0.110000000000
3.459501804000,-0.101000000000
3.467189483000,-0.091000000000
3.474877162000,-0.098000000000
3.482564841000,-0.106000000000
3.490252520000,-0.103000000000
3.497940199000,-0.093000000000
3.505627878000,-0.091000000000
3.513315557000,-0.096000000000
3.521003236000,-0.091000000000
3.528690915000,-0.081000000000
3.536378594000,-0.083000000000
3.544066273000,-0.091000000000
3.551753952000,-0.086000000000
3.559441631000,-0.076000000000
3.567129332000,-0.091000000000
3.574817150000,-0.093000000000
3.582504968000,-0.076000000000
3.590192786000,-0.078000000000
3.597880604000,-0.081000000000
3.605568422000,-0.069000000000
3.613256240000,-0.073000000000
3.620944058000,-0.086000000000
3.628631876000,-0.083000000000
3.636319694000,-0.081000000000
3.644007512000,-0.091000000000
3.651695330000,-0.098000000000
3.659383148000,-0.088000000000
3.667070966000,-0.066000000000
3.674758784000,-0.054000000000
3.682446602000,-0.056000000000
3.690134420000,-0.049000000000
3.697822238000,-0.044000000000
3.705510056000,-0.059000000000
3.713197874000,-0.073000000000
3.720885692000,-0.066000000000
3.728573510000,-0.066000000000
3.736261328000,-0.073000000000
3.743949146000,-0.066000000000
3.751636964000,-0.066000000000
3.759324782000,-0.088000000000
3.767012600000,-0.120000000000
3.774700418000,-0.024000000000
3.782388236000,0.360000000000
3.790076054000,0.786000000000
3.797763872000,0.675000000000
3.805451690000,0.041000000000
3.813139508000,-0.342000000000
3.820827326000,-0.226000000000
3.828515144000,-0.147000000000
3.836202962000,-0.192000000000
3.843890780000,-0.128000000000
3.851578598000,-0.076000000000
3.859266416000,-0.108000000000
3.866954234000,-0.098000000000
3.874642052000,-0.069000000000
3.882329870000,-0.069000000000
3.890017688000,-0.061000000000
3.897705506000,-0.051000000000
3.905393324000,-0.054000000000
3.913081142000,-0.054000000000
3.920768960000,-0.049000000000
3.928456778000,-0.046000000000
3.936144596000,-0.039000000000
3.943832414000,-0.032000000000
3.951520232000,-0.032000000000
3.959208050000,-0.029000000000
3.966895868000,-0.022000000000
3.974583686000,-0.012000000000
3.982271504000,-0.004000000000
3.989959322000,0.007000000000
3.997647140000,0.019000000000
4.005334958000,0.024000000000
4.013022776000,0.034000000000
4.020710594000,0.049000000000
4.028398412000,0.054000000000
4.036086230000,0.056000000000
4.043774048000,0.066000000000
4.051461866000,0.069000000000
4.059149684000,0.071000000000
4.066837502000,0.071000000000
4.074525320000,0.049000000000
4.082213138000,0.012000000000
4.089900956000,-0.022000000000
4.097588774000,-0.054000000000
4.105276592000,-0.086000000000
4.112964410000,-0.108000000000
4.120652228000,-0.115000000000
4.128340091000,-0.120000000000
4.136027630000,-0.123000000000
4.143715169000,-0.120000000000
4.151402708000,-0.120000000000
4.159090247000,-0.125000000000
4.166777786000,-0.125000000000
4.174465325000,-0.113000000000
4.182152864000,-0.115000000000
4.189840403000,-0.120000000000
4.197527942000,-0.108000000000
4.205215481000,-0.093000000000
4.212903020000,-0.096000000000
4.220590559000,-0.103000000000
4.228278098000,-0.108000000000
4.235965637000,-0.101000000000
4.243653176000,-0.096000000000
4.251340715000,-0.098000000000
4.259028254000,-0.098000000000
4.266715793000,-0.098000000000
4.274403332000,-0.101000000000
4.282090871000,-0.101000000000
4.289778410000,-0.098000000000
4.297465949000,-0.096000000000
4.305153488000,-0.096000000000
4.312841027000,-0.098000000000
4.320528566000,-0.093000000000
4.328216105000,-0.086000000000
4.335903644000,-0.088000000000
4.343591183000,-0.091000000000
4.351278722000,-0.091000000000
4.358966261000,-0.093000000000
4.366653800000,-0.091000000000
4.374341339000,-0.088000000000
4.382028878000,-0.083000000000
4.389716417000,-0.081000000000
4.397403956000,-0.083000000000
4.405091495000,-0.081000000000
4.412779034000,-0.071000000000
4.420466573000,-0.071000000000
4.428154112000,-0.069000000000
4.435841651000,-0.064000000000
4.443529190000,-0.071000000000
4.451216729000,-0.073000000000
4.458904268000,-0.064000000000
4.466591807000,-0.064000000000
4.474279346000,-0.081000000000
4.481966885000,-0.088000000000
4.489654424000,-0.073000000000
4.497341963000,-0.066000000000
4.505029502000,-0.059000000000
4.512717041000,-0.049000000000
4.520404580000,-0.044000000000
4.528092119000,-0.041000000000
4.535779658000,-0.032000000000
4.543467197000,-0.039000000000
4.551154736000,-0.051000000000
4.558842275000,-0.051000000000
4.566529814000,-0.046000000000
4.574217353000,-0.046000000000
4.581904892000,-0.051000000000
4.589592431000,-0.056000000000
4.597279970000,-0.056000000000
4.604967509000,-0.073000000000
4.612655048000,-0.081000000000
4.620342587000,0.125000000000
4.628030126000,0.594000000000
4.635717665000,0.789000000000
4.643405204000,0.295000000000
4.651092743000,-0.315000000000
4.658780282000,-0.374000000000
4.666467821000,-0.182000000000
4.674155360000,-0.170000000000
4.681842899000,-0.157000000000
4.689530506000,-0.061000000000
4.697218394000,-0.041000000000
4.704906282000,-0.059000000000
4.712594170000,-0.036000000000
4.720282058000,-0.022000000000
4.727969946000,-0.027000000000
4.735657834000,-0.019000000000
4.743345722000,-0.002000000000
4.751033610000,0.000000000000
4.758721498000,0.000000000000
4.766409386000,0.002000000000
4.774097274000,0.014000000000
4.781785162000,0.019000000000
4.789473050000,0.017000000000
4.797160938000,0.027000000000
4.804848826000,0.041000000000
4.812536714000,0.051000000000
4.820224602000,0.061000000000
4.827912490000,0.078000000000
4.835600378000,0.088000000000
4.843288266000,0.103000000000
4.850976154000,0.115000000000
4.858664042000,0.123000000000
4.866351930000,0.138000000000
4.874039818000,0.150000000000
4.881727706000,0.145000000000
4.889415594000,0.145000000000
4.897103482000,0.152000000000
4.904791370000,0.138000000000
4.912479258000,0.108000000000
4.920167146000,0.076000000000
4.927855034000,0.036000000000
4.935542922000,-0.012000000000
4.943230810000,-0.051000000000
4.950918698000,-0.083000000000
4.958606586000,-0.103000000000
4.966294474000,-0.110000000000
4.973982362000,-0.110000000000
4.981670250000,-0.106000000000
4.989358138000,-0.106000000000
4.997046026000,-0.108000000000
5.004733914000,-0.101000000000
5.012421802000,-0.088000000000
5.020109690000,-0.086000000000
5.027797578000,-0.081000000000
5.035485466000,-0.073000000000
5.043173354000,-0.066000000000
5.050861242000,-0.059000000000
5.058549130000,-0.056000000000
5.066237018000,-0.059000000000
5.073924906000,-0.061000000000
5.081612794000,-0.059000000000
5.089300682000,-0.059000000000
5.096988570000,-0.066000000000
5.104676458000,-0.066000000000
5.112364346000,-0.064000000000
5.120052234000,-0.069000000000
5.127740122000,-0.069000000000
5.135428010000,-0.066000000000
5.143115898000,-0.071000000000
5.150803786000,-0.071000000000
5.158491674000,-0.066000000000
5.166179562000,-0.061000000000
5.173867450000,-0.061000000000
5.181555338000,-0.056000000000
5.189243226000,-0.056000000000
5.196931114000,-0.061000000000
5.204619002000,-0.066000000000
5.212306890000,-0.061000000000
5.219994778000,-0.056000000000
5.227682666000,-0.056000000000
5.235370554000,-0.046000000000
5.243058442000,-0.036000000000
5.250746356000,-0.041000000000
5.258433965000,-0.044000000000
5.266121574000,-0.039000000000
5.273809183000,-0.046000000000
5.281496792000,-0.051000000000
5.289184401000,-0.049000000000
5.296872010000,-0.051000000000
5.304559619000,-0.051000000000
5.312247228000,-0.034000000000
5.319934837000,-0.019000000000
5.327622446000,-0.012000000000
5.335310055000,0.000000000000
5.342997664000,-0.007000000000
5.350685273000,-0.032000000000
5.358372882000,-0.041000000000
5.366060491000,-0.036000000000
5.373748100000,-0.039000000000
5.381435709000,-0.039000000000
5.389123318000,-0.034000000000
5.396810927000,-0.036000000000
5.404498536000,-0.049000000000
5.412186145000,-0.064000000000
5.419873754000,0.012000000000
5.427561363000,0.364000000000
5.435248972000,0.776000000000
5.442936581000,0.621000000000
5.450624190000,-0.096000000000
5.458311799000,-0.510000000000
5.465999408000,-0.327000000000
5.473687017000,-0.170000000000
5.481374626000,-0.204000000000
5.489062235000,-0.118000000000
5.496749844000,-0.007000000000
5.504437453000,-0.019000000000
5.512125062000,-0.032000000000
5.519812671000,-0.007000000000
5.527500280000,0.000000000000
5.535187889000,0.000000000000
5.542875498000,0.017000000000
5.550563107000,0.024000000000
5.558250716000,0.022000000000
5.565938325000,0.022000000000
5.573625934000,0.024000000000
5.581313543000,0.024000000000
5.589001152000,0.034000000000
5.596688761000,0.046000000000
5.604376370000,0.051000000000
5.612063979000,0.054000000000
5.619751588000,0.061000000000
5.627439197000,0.064000000000
5.635126806000,0.073000000000
5.642814415000,0.088000000000
5.650502024000,0.103000000000
5.658189633000,0.118000000000
5.665877242000,0.128000000000
5.673564851000,0.130000000000
5.681252460000,0.138000000000
5.688940069000,0.147000000000
5.696627678000,0.147000000000
5.704315287000,0.135000000000
5.712002896000,0.108000000000
5.719690505000,0.071000000000
5.727378114000,0.034000000000
5.735065723000,0.000000000000
5.742753332000,-0.034000000000
5.750440941000,-0.066000000000
5.758128550000,-0.098000000000
5.765816159000,-0.118000000000
5.773503768000,-0.118000000000
5.781191377000,-0.120000000000
5.788878986000,-0.125000000000
5.796566595000,-0.120000000000
5.804254204000,-0.113000000000
5.811941854000,-0.110000000000
5.819629812000,-0.103000000000
5.827317770000,-0.101000000000
5.835005728000,-0.098000000000
5.842693686000,-0.086000000000
5.850381644000,-0.071000000000
5.858069602000,-0.073000000000
5.865757560000,-0.081000000000
5.873445518000,-0.086000000000
5.881133476000,-0.083000000000
5.888821434000,-0.078000000000
5.896509392000,-0.081000000000
5.904197350000,-0.086000000000
5.911885308000,-0.083000000000
5.919573266000,-0.088000000000
5.927261224000,-0.096000000000
5.934949182000,-0.091000000000
5.942637140000,-0.078000000000
5.950325098000,-0.081000000000
5.958013056000,-0.086000000000
5.965701014000,-0.081000000000
5.973388972000,-0.081000000000
5.981076930000,-0.081000000000
5.988764888000,-0.076000000000
5.996452846000,-0.081000000000
6.004140804000,-0.086000000000
6.011828762000,-0.081000000000
6.019516720000,-0.076000000000
6.027204678000,-0.076000000000
6.034892636000,-0.071000000000
6.042580594000,-0.066000000000
6.050268552000,-0.069000000000
6.057956510000,-0.069000000000
6.065644468000,-0.064000000000
6.073332426000,-0.069000000000
6.081020384000,-0.069000000000
6.088708342000,-0.066000000000
6.096396300000,-0.073000000000
6.104084258000,-0.076000000000
6.111772216000,-0.069000000000
6.119460174000,-0.073000000000
6.127148132000,-0.086000000000
6.134836090000,-0.083000000000
6.142524048000,-0.076000000000
6.150212006000,-0.071000000000
6.157899964000,-0.064000000000
6.165587922000,-0.056000000000
6.173275880000,-0.046000000000
6.180963838000,-0.036000000000
6.188651796000,-0.039000000000
6.196339754000,-0.056000000000
6.204027712000,-0.066000000000
6.211715670000,-0.066000000000
6.219403628000,-0.064000000000
6.227091586000,-0.066000000000
6.234779544000,-0.066000000000
6.242467502000,-0.061000000000
6.250155460000,-0.076000000000
6.257843418000,-0.108000000000
6.265531376000,0.000000000000
6.273219334000,0.414000000000
6.280907292000,0.818000000000
6.288595250000,0.641000000000
6.296283208000,-0.019000000000
6.303971166000,-0.367000000000
6.311659124000,-0.221000000000
6.319347082000,-0.138000000000
6.327035040000,-0.180000000000
6.334722998000,-0.118000000000
6.342410956000,-0.069000000000
6.350098914000,-0.096000000000
6.357786872000,-0.086000000000
6.365474830000,-0.059000000000
6.373162791000,-0.064000000000
6.380850470000,-0.066000000000
6.388538149000,-0.054000000000
6.396225828000,-0.046000000000
6.403913507000,-0.044000000000
6.411601186000,-0.039000000000
6.419288865000,-0.034000000000
6.426976544000,-0.032000000000
6.434664223000,-0.032000000000
6.442351902000,-0.029000000000
6.450039581000,-0.024000000000
6.457727260000,-0.017000000000
6.465414939000,-0.009000000000
6.473102618000,-0.002000000000
6.480790297000,0.009000000000
6.488477976000,0.019000000000
6.496165655000,0.029000000000
6.503853334000,0.044000000000
6.511541013000,0.059000000000
6.519228692000,0.071000000000
6.526916371000,0.078000000000
6.534604050000,0.073000000000
6.542291729000,0.076000000000
6.549979408000,0.081000000000
6.557667087000,0.064000000000
6.565354766000,0.032000000000
6.573042445000,0.000000000000
6.580730124000,-0.034000000000
6.588417803000,-0.071000000000
6.596105482000,-0.096000000000
6.603793161000,-0.115000000000
6.611480840000,-0.130000000000
6.619168519000,-0.135000000000
6.626856198000,-0.135000000000
6.634543877000,-0.140000000000
6.642231556000,-0.140000000000
6.649919235000,-0.130000000000
6.657606914000,-0.120000000000
6.665294593000,-0.118000000000
6.672982272000,-0.115000000000
6.680669951000,-0.115000000000
6.688357630000,-0.115000000000
6.696045309000,-0.106000000000
6.703732988000,-0.103000000000
6.711420667000,-0.103000000000
6.719108346000,-0.098000000000
6.726796025000,-0.101000000000
6.734483704000,-0.106000000000
6.742171383000,-0.108000000000
6.749859062000,-0.106000000000
6.757546741000,-0.098000000000
6.765234420000,-0.096000000000
6.772922099000,-0.098000000000
6.780609778000,-0.093000000000
6.788297457000,-0.096000000000
6.795985136000,-0.101000000000
6.803672815000,-0.098000000000
6.811360494000,-0.098000000000
6.819048173000,-0.098000000000
6.826735852000,-0.093000000000
6.834423531000,-0.088000000000
6.842111210000,-0.088000000000
6.849798889000,-0.086000000000
6.857486568000,-0.081000000000
6.865174247000,-0.078000000000
6.872861926000,-0.083000000000
6.880549605000,-0.086000000000
6.888237284000,-0.078000000000
6.895924963000,-0.076000000000
6.903612642000,-0.086000000000
6.911300321000,-0.086000000000
6.918988000000,-0.078000000000
6.926675679000,-0.078000000000
6.934363380000,-0.076000000000
6.942051198000,-0.076000000000
6.949739016000,-0.076000000000
6.957426834000,-0.066000000000
6.965114652000,-0.056000000000
6.972802470000,-0.064000000000
6.980490288000,-0.076000000000
6.988178106000,-0.081000000000
6.995865924000,-0.081000000000
7.003553742000,-0.088000000000
7.011241560000,-0.083000000000
7.018929378000,-0.059000000000
7.026617196000,-0.046000000000
7.034305014000,-0.044000000000
7.041992832000,-0.029000000000
7.049680650000,-0.032000000000
7.057368468000,-0.056000000000
7.065056286000,-0.069000000000
7.072744104000,-0.066000000000
7.080431922000,-0.061000000000
7.088119740000,-0.061000000000
7.095807558000,-0.061000000000
7.103495376000,-0.059000000000
7.111183194000,-0.073000000000
7.118871012000,-0.103000000000
7.126558830000,-0.022000000000
7.134246648000,0.340000000000
7.141934466000,0.744000000000
7.149622284000,0.599000000000
7.157310102000,-0.056000000000
7.164997920000,-0.424000000000
7.172685738000,-0.271000000000
7.180373556000,-0.155000000000
7.188061374000,-0.187000000000
7.195749192000,-0.123000000000
7.203437010000,-0.059000000000
7.211124828000,-0.083000000000
7.218812646000,-0.081000000000
7.226500464000,-0.051000000000
7.234188282000,-0.044000000000
7.241876100000,-0.049000000000
7.249563918000,-0.041000000000
7.257251736000,-0.036000000000
7.264939554000,-0.034000000000
7.272627372000,-0.024000000000
7.280315190000,-0.019000000000
7.288003008000,-0.017000000000
7.295690826000,-0.007000000000
7.303378644000,0.004000000000
7.311066462000,0.009000000000
7.318754280000,0.017000000000
7.326442098000,0.029000000000
7.334129916000,0.044000000000
7.341817734000,0.056000000000
7.349505552000,0.069000000000
7.357193370000,0.086000000000
7.364881188000,0.098000000000
7.372569006000,0.106000000000
7.380256824000,0.110000000000
7.387944642000,0.123000000000
7.395632460000,0.135000000000
7.403320278000,0.125000000000
7.411008096000,0.113000000000
7.418695914000,0.103000000000
7.426383732000,0.073000000000
7.434071550000,0.019000000000
7.441759368000,-0.024000000000
7.449447186000,-0.054000000000
7.457135004000,-0.091000000000
7.464822822000,-0.123000000000
7.472510640000,-0.130000000000
7.480198458000,-0.135000000000
7.487886276000,-0.147000000000
7.495574139000,-0.145000000000
7.503261678000,-0.135000000000
7.510949217000,-0.130000000000
7.518636756000,-0.125000000000
7.526324295000,-0.120000000000
7.534011834000,-0.118000000000
7.541699373000,-0.110000000000
7.549386912000,-0.098000000000
7.557074451000,-0.093000000000
7.564761990000,-0.103000000000
7.572449529000,-0.103000000000
7.580137068000,-0.098000000000
7.587824607000,-0.096000000000
7.595512146000,-0.096000000000
7.603199685000,-0.098000000000
7.610887224000,-0.101000000000
7.618574763000,-0.101000000000
7.626262302000,-0.098000000000
7.633949841000,-0.093000000000
7.641637380000,-0.098000000000
7.649324919000,-0.101000000000
7.657012458000,-0.103000000000
7.664699997000,-0.106000000000
7.672387536000,-0.101000000000
7.680075075000,-0.096000000000
7.687762614000,-0.091000000000
7.695450153000,-0.091000000000
7.703137692000,-0.091000000000
7.710825231000,-0.086000000000
7.718512770000,-0.091000000000
7.726200309000,-0.091000000000
7.733887848000,-0.078000000000
7.741575387000,-0.071000000000
7.749262926000,-0.076000000000
7.756950465000,-0.078000000000
7.764638004000,-0.078000000000
7.772325543000,-0.081000000000
7.780013082000,-0.076000000000
7.787700621000,-0.069000000000
7.795388160000,-0.076000000000
7.803075699000,-0.081000000000
7.810763238000,-0.073000000000
7.818450777000,-0.069000000000
7.826138316000,-0.076000000000
7.833825855000,-0.073000000000
7.841513394000,-0.054000000000
7.849200933000,-0.041000000000
7.856888472000,-0.036000000000
7.864576011000,-0.036000000000
7.872263550000,-0.061000000000
7.879951089000,-0.083000000000
7.887638628000,-0.078000000000
7.895326167000,-0.066000000000
7.903013706000,-0.066000000000
7.910701245000,-0.073000000000
7.918388784000,-0.069000000000
7.926076323000,-0.069000000000
7.933763862000,-0.091000000000
7.941451401000,-0.039000000000
7.949138940000,0.278000000000
7.956826479000,0.724000000000
7.964514018000,0.641000000000
7.972201557000,-0.076000000000
7.979889096000,-0.552000000000
7.987576635000,-0.399000000000
7.995264174000,-0.224000000000
8.002951713000,-0.246000000000
8.010639252000,-0.165000000000
8.018326791000,-0.054000000000
8.026014330000,-0.054000000000
8.033701869000,-0.064000000000
8.041389408000,-0.041000000000
8.049076947000,-0.034000000000
8.056764554000,-0.029000000000
8.064452442000,-0.017000000000
8.072140330000,-0.004000000000
8.079828218000,-0.004000000000
8.087516106000,-0.009000000000
8.095203994000,0.000000000000
8.102891882000,0.012000000000
8.110579770000,0.017000000000
8.118267658000,0.014000000000
8.125955546000,0.019000000000
8.133643434000,0.034000000000
8.141331322000,0.051000000000
8.149019210000,0.066000000000
8.156707098000,0.076000000000
8.164394986000,0.093000000000
8.172082874000,0.110000000000
8.179770762000,0.125000000000
8.187458650000,0.140000000000
8.195146538000,0.150000000000
8.202834426000,0.150000000000
8.210522314000,0.150000000000
8.218210202000,0.150000000000
8.225898090000,0.140000000000
8.233585978000,0.115000000000
8.241273866000,0.076000000000
8.248961754000,0.024000000000
8.256649642000,-0.029000000000
8.264337530000,-0.071000000000
8.272025418000,-0.108000000000
8.279713306000,-0.138000000000
8.287401194000,-0.147000000000
8.295089082000,-0.150000000000
8.302776970000,-0.160000000000
8.310464858000,-0.157000000000
8.318152746000,-0.147000000000
8.325840634000,-0.152000000000
8.333528522000,-0.150000000000
8.341216410000,-0.130000000000
8.348904298000,-0.123000000000
8.356592186000,-0.125000000000
8.364280074000,-0.113000000000
8.371967962000,-0.103000000000
8.379655850000,-0.096000000000
8.387343738000,-0.088000000000
8.395031626000,-0.091000000000
8.402719514000,-0.091000000000
8.410407402000,-0.096000000000
8.418095290000,-0.098000000000
8.425783178000,-0.091000000000
8.433471066000,-0.086000000000
8.441158954000,-0.091000000000
8.448846842000,-0.101000000000
8.456534730000,-0.103000000000
8.464222618000,-0.096000000000
8.471910506000,-0.093000000000
8.479598394000,-0.093000000000
8.487286282000,-0.096000000000
8.494974170000,-0.093000000000
8.502662058000,-0.088000000000
8.510349946000,-0.086000000000
8.518037834000,-0.086000000000
8.525725722000,-0.088000000000
8.533413610000,-0.093000000000
8.541101498000,-0.086000000000
8.548789386000,-0.078000000000
8.556477274000,-0.078000000000
8.564165162000,-0.078000000000
8.571853050000,-0.073000000000
8.579540938000,-0.078000000000
8.587228826000,-0.083000000000
8.594916714000,-0.073000000000
8.602604602000,-0.066000000000
8.610292490000,-0.066000000000
8.617980404000,-0.071000000000
8.625668013000,-0.076000000000
8.633355622000,-0.078000000000
8.641043231000,-0.078000000000
8.648730840000,-0.081000000000
8.656418449000,-0.083000000000
8.664106058000,-0.076000000000
8.671793667000,-0.064000000000
8.679481276000,-0.054000000000
8.687168885000,-0.046000000000
8.694856494000,-0.041000000000
8.702544103000,-0.041000000000
8.710231712000,-0.054000000000
8.717919321000,-0.061000000000
8.725606930000,-0.059000000000
8.733294539000,-0.059000000000
8.740982148000,-0.061000000000
8.748669757000,-0.066000000000
8.756357366000,-0.071000000000
8.764044975000,-0.071000000000
8.771732584000,-0.101000000000
8.779420193000,-0.106000000000
8.787107802000,0.143000000000
8.794795411000,0.633000000000
8.802483020000,0.821000000000
8.810170629000,0.335000000000
8.817858238000,-0.286000000000
8.825545847000,-0.374000000000
8.833233456000,-0.189000000000
8.840921065000,-0.182000000000
8.848608674000,-0.184000000000
8.856296283000,-0.091000000000
8.863983892000,-0.071000000000
8.871671501000,-0.091000000000
8.879359110000,-0.069000000000
8.887046719000,-0.056000000000
8.894734328000,-0.069000000000
8.902421937000,-0.061000000000
8.910109546000,-0.046000000000
8.917797155000,-0.044000000000
8.925484764000,-0.046000000000
8.933172373000,-0.041000000000
8.940859982000,-0.036000000000
8.948547591000,-0.032000000000
8.956235200000,-0.029000000000
8.963922809000,-0.019000000000
8.971610418000,-0.009000000000
8.979298027000,-0.007000000000
8.986985636000,-0.002000000000
8.994673245000,0.012000000000
9.002360854000,0.027000000000
9.010048463000,0.039000000000
9.017736072000,0.056000000000
9.025423681000,0.066000000000
9.033111290000,0.073000000000
9.040798899000,0.083000000000
9.048486508000,0.096000000000
9.056174117000,0.101000000000
9.063861726000,0.103000000000
9.071549335000,0.101000000000
9.079236944000,0.076000000000
9.086924553000,0.034000000000
9.094612162000,-0.004000000000
9.102299771000,-0.044000000000
9.109987380000,-0.078000000000
9.117674989000,-0.106000000000
9.125362598000,-0.123000000000
9.133050207000,-0.130000000000
9.140737816000,-0.130000000000
9.148425425000,-0.128000000000
9.156113034000,-0.130000000000
9.163800643000,-0.128000000000
9.171488252000,-0.123000000000
9.179175902000,-0.118000000000
9.186863860000,-0.115000000000
9.194551818000,-0.108000000000
9.202239776000,-0.103000000000
9.209927734000,-0.098000000000
9.217615692000,-0.101000000000
9.225303650000,-0.101000000000
9.232991608000,-0.093000000000
9.240679566000,-0.086000000000
9.248367524000,-0.088000000000
9.256055482000,-0.088000000000
9.263743440000,-0.091000000000
9.271431398000,-0.088000000000
9.279119356000,-0.086000000000
9.286807314000,-0.086000000000
9.294495272000,-0.086000000000
9.302183230000,-0.078000000000
9.309871188000,-0.081000000000
9.317559146000,-0.091000000000
9.325247104000,-0.088000000000
9.332935062000,-0.081000000000
9.340623020000,-0.083000000000
9.348310978000,-0.081000000000
9.355998936000,-0.073000000000
9.363686894000,-0.073000000000
9.371374852000,-0.073000000000
9.379062810000,-0.069000000000
9.386750768000,-0.066000000000
9.394438726000,-0.069000000000
9.402126684000,-0.071000000000
9.409814642000,-0.069000000000
9.417502600000,-0.066000000000
9.425190558000,-0.061000000000
9.432878516000,-0.059000000000
9.440566474000,-0.056000000000
9.448254432000,-0.054000000000
9.455942390000,-0.054000000000
9.463630348000,-0.054000000000
9.471318306000,-0.046000000000
9.479006264000,-0.041000000000
9.486694222000,-0.046000000000
9.494382180000,-0.049000000000
9.502070138000,-0.036000000000
9.509758096000,-0.032000000000
9.517446054000,-0.039000000000
9.525134012000,-0.041000000000
9.532821970000,-0.039000000000
9.540509928000,-0.044000000000
9.548197886000,-0.046000000000
9.555885844000,-0.046000000000
9.563573802000,-0.036000000000
9.571261760000,-0.019000000000
9.578949718000,-0.007000000000
9.586637676000,-0.002000000000
9.594325634000,0.002000000000
9.602013592000,0.000000000000
9.609701550000,-0.012000000000
9.617389508000,-0.019000000000
9.625077466000,-0.014000000000
9.632765424000,-0.019000000000
9.640453382000,-0.024000000000
9.648141340000,-0.022000000000
9.655829298000,-0.017000000000
9.663517256000,-0.029000000000
9.671205214000,-0.064000000000
9.678893172000,0.017000000000
9.686581130000,0.396000000000
9.694269088000,0.838000000000
9.701957046000,0.754000000000
9.709645004000,0.115000000000
9.717332962000,-0.310000000000
9.725020920000,-0.204000000000
9.732708878000,-0.096000000000
9.740396839000,-0.140000000000
9.748084518000,-0.083000000000
9.755772197000,-0.014000000000
9.763459876000,-0.036000000000
9.771147555000,-0.034000000000
9.778835234000,-0.009000000000
9.786522913000,-0.012000000000
9.794210592000,-0.004000000000
9.801898271000,0.012000000000
9.809585950000,0.012000000000
9.817273629000,0.009000000000
9.824961308000,0.017000000000
9.832648987000,0.032000000000
9.840336666000,0.041000000000
9.848024345000,0.036000000000
9.855712024000,0.032000000000
9.863399703000,0.051000000000
9.871087382000,0.066000000000
9.878775061000,0.064000000000
9.886462740000,0.071000000000
9.894150419000,0.086000000000
9.901838098000,0.096000000000
9.909525777000,0.113000000000
9.917213456000,0.135000000000
9.924901135000,0.150000000000
9.932588814000,0.155000000000
9.940276493000,0.165000000000
9.947964172000,0.175000000000
9.955651851000,0.182000000000
9.963339530000,0.184000000000
9.971027209000,0.175000000000
9.978714888000,0.143000000000
9.986402567000,0.096000000000
9.994090246000,0.056000000000
10.001777925000,0.024000000000
10.009465604000,-0.007000000000
10.017153283000,-0.041000000000
10.024840962000,-0.066000000000
10.032528641000,-0.071000000000
10.040216320000,-0.069000000000
10.047903999000,-0.061000000000
10.055591678000,-0.049000000000
10.063279357000,-0.054000000000
10.070967036000,-0.056000000000
10.078654715000,-0.044000000000
10.086342394000,-0.034000000000
10.094030073000,-0.039000000000
10.101717752000,-0.046000000000
10.109405431000,-0.041000000000
10.117093110000,-0.029000000000
10.124780789000,-0.024000000000
10.132468468000,-0.024000000000
10.140156147000,-0.027000000000
10.147843826000,-0.024000000000
10.155531505000,-0.022000000000
10.163219184000,-0.027000000000
10.170906863000,-0.029000000000
10.178594542000,-0.019000000000
10.186282221000,-0.017000000000
10.193969900000,-0.019000000000
10.201657579000,-0.019000000000
10.209345258000,-0.022000000000
10.217032937000,-0.024000000000
10.224720616000,-0.019000000000
10.232408295000,-0.022000000000
10.240095974000,-0.022000000000
10.247783653000,-0.019000000000
10.255471332000,-0.024000000000
10.263159011000,-0.019000000000
10.270846690000,-0.014000000000
10.278534369000,-0.017000000000
10.286222048000,-0.017000000000
10.293909727000,-0.014000000000
10.301597428000,-0.014000000000
10.309285246000,-0.012000000000
10.316973064000,-0.007000000000
10.324660882000,-0.012000000000
10.332348700000,-0.022000000000
10.340036518000,-0.019000000000
10.347724336000,-0.007000000000
10.355412154000,-0.009000000000
10.363099972000,-0.019000000000
10.370787790000,-0.012000000000
10.378475608000,0.000000000000
10.386163426000,-0.009000000000
10.393851244000,-0.024000000000
10.401539062000,-0.022000000000
10.409226880000,-0.014000000000
10.416914698000,-0.019000000000
10.424602516000,-0.019000000000
10.432290334000,-0.004000000000
10.439978152000,0.004000000000
10.447665970000,0.014000000000
10.455353788000,0.024000000000
10.463041606000,0.017000000000
10.470729424000,-0.002000000000
10.478417242000,-0.014000000000
10.486105060000,-0.014000000000
10.493792878000,-0.012000000000
10.501480696000,-0.012000000000
10.509168514000,-0.019000000000
10.516856332000,-0.014000000000
10.524544150000,-0.024000000000
10.532231968000,-0.041000000000
10.539919786000,0.078000000000
10.547607604000,0.478000000000
10.555295422000,0.826000000000
10.562983240000,0.525000000000
10.570671058000,-0.197000000000
10.578358876000,-0.475000000000
10.586046694000,-0.261000000000
10.593734512000,-0.165000000000
10.601422330000,-0.192000000000
10.609110148000,-0.083000000000
10.616797966000,0.000000000000
10.624485784000,-0.024000000000
10.632173602000,-0.014000000000
10.639861420000,0.012000000000
10.647549238000,-0.002000000000
10.655237056000,0.000000000000
10.662924874000,0.022000000000
10.670612692000,0.014000000000
10.678300510000,0.009000000000
10.685988328000,0.029000000000
10.693676146000,0.039000000000
10.701363964000,0.044000000000
10.709051782000,0.046000000000
10.716739600000,0.049000000000
10.724427418000,0.059000000000
10.732115236000,0.069000000000
10.739803054000,0.078000000000
10.747490872000,0.093000000000
10.755178690000,0.110000000000
10.762866508000,0.125000000000
10.770554326000,0.138000000000
10.778242144000,0.152000000000
10.785929962000,0.175000000000
10.793617780000,0.189000000000
10.801305598000,0.187000000000
10.808993416000,0.187000000000
10.816681234000,0.187000000000
10.824369052000,0.170000000000
10.832056870000,0.140000000000
10.839744688000,0.106000000000
10.847432506000,0.056000000000
10.855120324000,0.000000000000
10.862808187000,-0.046000000000
10.870496005000,-0.086000000000
10.878183823000,-0.120000000000
10.885871641000,-0.143000000000
10.893559459000,-0.150000000000
10.901247277000,-0.150000000000
10.908935095000,-0.150000000000
10.916622913000,-0.145000000000
10.924310731000,-0.145000000000
10.931998549000,-0.143000000000
10.939686367000,-0.135000000000
10.947374185000,-0.123000000000
10.955062003000,-0.115000000000
10.962749821000,-0.110000000000
10.970437639000,-0.103000000000
10.978125457000,-0.101000000000
10.985813275000,-0.101000000000
10.993501093000,-0.093000000000
11.001188911000,-0.091000000000
11.008876729000,-0.096000000000
11.016564547000,-0.096000000000
11.024252365000,-0.093000000000
11.031940183000,-0.096000000000
11.039628001000,-0.098000000000
11.047315819000,-0.101000000000
11.055003637000,-0.098000000000
11.062691455000,-0.093000000000
11.070379273000,-0.098000000000
11.078067091000,-0.106000000000
11.085754909000,-0.101000000000
11.093442727000,-0.093000000000
11.101130545000,-0.098000000000
11.108818363000,-0.096000000000
11.116506181000,-0.093000000000
11.124193999000,-0.096000000000
11.131881817000,-0.096000000000
11.139569635000,-0.096000000000
11.147257453000,-0.101000000000
11.154945271000,-0.101000000000
11.162633089000,-0.093000000000
11.170320907000,-0.086000000000
11.178008725000,-0.086000000000
11.185696543000,-0.088000000000
11.193384361000,-0.088000000000
11.201072179000,-0.091000000000
11.208759997000,-0.096000000000
11.216447815000,-0.101000000000
11.224135633000,-0.096000000000
11.231823451000,-0.096000000000
11.239511269000,-0.098000000000
11.247199087000,-0.088000000000
11.254886905000,-0.073000000000
11.262574723000,-0.066000000000
11.270262541000,-0.059000000000
11.277950359000,-0.056000000000
11.285638177000,-0.071000000000
11.293325995000,-0.083000000000
11.301013813000,-0.088000000000
11.308701631000,-0.083000000000
11.316389449000,-0.081000000000
11.324077267000,-0.083000000000
11.331765085000,-0.083000000000
11.339452903000,-0.083000000000
11.347140721000,-0.113000000000
11.354828539000,-0.133000000000
11.362516357000,0.046000000000
11.370204175000,0.503000000000
11.377891993000,0.786000000000
11.385579811000,0.411000000000
11.393267629000,-0.251000000000
11.400955447000,-0.433000000000
11.408643265000,-0.241000000000
11.416331083000,-0.204000000000
11.424018950000,-0.221000000000
11.431706629000,-0.125000000000
11.439394308000,-0.086000000000
11.447081987000,-0.113000000000
11.454769666000,-0.098000000000
11.462457345000,-0.083000000000
11.470145024000,-0.093000000000
11.477832703000,-0.086000000000
11.485520382000,-0.066000000000
11.493208061000,-0.064000000000
11.500895740000,-0.071000000000
11.508583419000,-0.069000000000
11.516271098000,-0.054000000000
11.523958777000,-0.046000000000
11.531646456000,-0.051000000000
11.539334135000,-0.046000000000
11.547021814000,-0.032000000000
11.554709493000,-0.027000000000
11.562397172000,-0.027000000000
11.570084851000,-0.017000000000
11.577772530000,-0.002000000000
11.585460209000,0.017000000000
11.593147888000,0.034000000000
11.600835567000,0.046000000000
11.608523246000,0.054000000000
11.616210925000,0.069000000000
11.623898604000,0.081000000000
11.631586283000,0.083000000000
11.639273962000,0.083000000000
11.646961641000,0.073000000000
11.654649320000,0.054000000000
11.662336999000,0.019000000000
11.670024678000,-0.022000000000
11.677712357000,-0.066000000000
11.685400036000,-0.113000000000
11.693087715000,-0.145000000000
11.700775394000,-0.160000000000
11.708463073000,-0.170000000000
11.716150752000,-0.175000000000
11.723838431000,-0.175000000000
11.731526110000,-0.177000000000
11.739213789000,-0.172000000000
11.746901468000,-0.160000000000
11.754589147000,-0.157000000000
11.762276826000,-0.162000000000
11.769964505000,-0.157000000000
11.777652184000,-0.145000000000
11.785339863000,-0.138000000000
11.793027542000,-0.138000000000
11.800715221000,-0.138000000000
11.808402900000,-0.133000000000
11.816090579000,-0.130000000000
11.823778258000,-0.130000000000
11.831465937000,-0.125000000000
11.839153616000,-0.118000000000
11.846841295000,-0.118000000000
11.854528974000,-0.123000000000
11.862216653000,-0.125000000000
11.869904332000,-0.128000000000
11.877592011000,-0.130000000000
11.885279690000,-0.128000000000
11.892967369000,-0.120000000000
11.900655048000,-0.113000000000
11.908342727000,-0.118000000000
11.916030406000,-0.120000000000
11.923718085000,-0.118000000000
11.931405764000,-0.130000000000
11.939093443000,-0.130000000000
11.946781122000,-0.115000000000
11.954468801000,-0.106000000000
11.962156480000,-0.113000000000
11.969844159000,-0.118000000000
11.977531838000,-0.113000000000
11.985219535000,-0.108000000000
11.992907493000,-0.110000000000
12.000595451000,-0.110000000000
12.008283409000,-0.106000000000
12.015971367000,-0.108000000000
12.023659325000,-0.106000000000
12.031347283000,-0.096000000000
12.039035241000,-0.093000000000
12.046723199000,-0.098000000000
12.054411157000,-0.108000000000
12.062099115000,-0.115000000000
12.069787073000,-0.115000000000
12.077475031000,-0.113000000000
12.085162989000,-0.110000000000
12.092850947000,-0.106000000000
12.100538905000,-0.091000000000
12.108226863000,-0.076000000000
12.115914821000,-0.071000000000
12.123602779000,-0.066000000000
12.131290737000,-0.064000000000
12.138978695000,-0.078000000000
12.146666653000,-0.091000000000
12.154354611000,-0.086000000000
12.162042569000,-0.086000000000
12.169730527000,-0.088000000000
12.177418485000,-0.091000000000
12.185106443000,-0.088000000000
12.192794401000,-0.083000000000
12.200482359000,-0.106000000000
12.208170317000,-0.115000000000
12.215858275000,0.086000000000
12.223546233000,0.544000000000
12.231234191000,0.796000000000
12.238922149000,0.396000000000
12.246610107000,-0.226000000000
12.254298065000,-0.372000000000
12.261986023000,-0.199000000000
12.269673981000,-0.189000000000
12.277361939000,-0.202000000000
12.285049897000,-0.115000000000
12.292737855000,-0.096000000000
12.300425813000,-0.120000000000
12.308113771000,-0.103000000000
12.315801729000,-0.086000000000
12.323489687000,-0.076000000000
12.331177645000,-0.069000000000
12.338865603000,-0.066000000000
12.346553561000,-0.064000000000
12.354241519000,-0.059000000000
12.361929477000,-0.054000000000
12.369617435000,-0.049000000000
12.377305393000,-0.046000000000
12.384993351000,-0.036000000000
12.392681309000,-0.024000000000
12.400369267000,-0.022000000000
12.408057225000,-0.019000000000
12.415745183000,-0.004000000000
12.423433141000,0.012000000000
12.431121099000,0.027000000000
12.438809057000,0.041000000000
12.446497015000,0.051000000000
12.454184973000,0.059000000000
12.461872931000,0.069000000000
12.469560889000,0.083000000000
12.477248847000,0.103000000000
12.484936805000,0.108000000000
12.492624763000,0.101000000000
12.500312721000,0.096000000000
12.508000679000,0.078000000000
12.515688637000,0.039000000000
12.523376595000,-0.002000000000
12.531064553000,-0.046000000000
12.538752511000,-0.098000000000
12.546440472000,-0.130000000000
12.554128081000,-0.138000000000
12.561815690000,-0.143000000000
12.569503299000,-0.150000000000
12.577190908000,-0.150000000000
12.584878517000,-0.155000000000
12.592566126000,-0.152000000000
12.600253735000,-0.140000000000
12.607941344000,-0.135000000000
12.615628953000,-0.133000000000
12.623316562000,-0.128000000000
12.631004171000,-0.130000000000
12.638691780000,-0.128000000000
12.646379389000,-0.120000000000
12.654066998000,-0.113000000000
12.661754607000,-0.108000000000
12.669442216000,-0.103000000000
12.677129825000,-0.103000000000
12.684817434000,-0.106000000000
12.692505043000,-0.108000000000
12.700192652000,-0.110000000000
12.707880261000,-0.106000000000
12.715567870000,-0.106000000000
12.723255479000,-0.108000000000
12.730943088000,-0.101000000000
12.738630697000,-0.093000000000
12.746318306000,-0.091000000000
12.754005915000,-0.098000000000
12.761693524000,-0.106000000000
12.769381133000,-0.101000000000
12.777068742000,-0.093000000000
12.784756351000,-0.093000000000
12.792443960000,-0.096000000000
12.800131569000,-0.098000000000
12.807819178000,-0.093000000000
12.815506787000,-0.083000000000
12.823194396000,-0.081000000000
12.830882005000,-0.083000000000
12.838569614000,-0.081000000000
12.846257223000,-0.078000000000
12.853944832000,-0.078000000000
12.861632441000,-0.078000000000
12.869320050000,-0.076000000000
12.877007659000,-0.076000000000
12.884695268000,-0.076000000000
12.892382877000,-0.071000000000
12.900070486000,-0.066000000000
12.907758095000,-0.071000000000
12.915445704000,-0.083000000000
12.923133313000,-0.088000000000
12.930820922000,-0.081000000000
12.938508531000,-0.073000000000
12.946196140000,-0.064000000000
12.953883749000,-0.049000000000
12.961571358000,-0.039000000000
12.969258967000,-0.032000000000
12.976946576000,-0.032000000000
12.984634185000,-0.046000000000
12.992321794000,-0.061000000000
13.000009403000,-0.059000000000
13.007697012000,-0.059000000000
13.015384621000,-0.061000000000
13.023072230000,-0.064000000000
13.030759839000,-0.056000000000
13.038447448000,-0.059000000000
13.046135057000,-0.086000000000
13.053822666000,-0.049000000000
13.061510275000,0.239000000000
13.069197884000,0.675000000000
13.076885493000,0.690000000000
13.084573102000,0.073000000000
13.092260711000,-0.453000000000
13.099948320000,-0.396000000000
13.107635974000,-0.209000000000
13.115323862000,-0.207000000000
13.123011750000,-0.155000000000
13.130699638000,-0.059000000000
13.138387526000,-0.066000000000
13.146075414000,-0.071000000000
13.153763302000,-0.034000000000
13.161451190000,-0.036000000000
13.169139078000,-0.056000000000
13.176826966000,-0.041000000000
13.184514854000,-0.024000000000
13.192202742000,-0.022000000000
13.199890630000,-0.017000000000
13.207578518000,-0.009000000000
13.215266406000,-0.002000000000
13.222954294000,0.000000000000
13.230642182000,0.004000000000
13.238330070000,0.017000000000
13.246017958000,0.032000000000
13.253705846000,0.039000000000
13.261393734000,0.044000000000
13.269081622000,0.056000000000
13.276769510000,0.073000000000
13.284457398000,0.091000000000
13.292145286000,0.106000000000
13.299833174000,0.123000000000
13.307521062000,0.147000000000
13.315208950000,0.160000000000
13.322896838000,0.152000000000
13.330584726000,0.152000000000
13.338272614000,0.160000000000
13.345960502000,0.138000000000
13.353648390000,0.088000000000
13.361336278000,0.046000000000
13.369024166000,0.004000000000
13.376712054000,-0.044000000000
13.384399942000,-0.086000000000
13.392087830000,-0.115000000000
13.399775718000,-0.135000000000
13.407463606000,-0.138000000000
13.415151494000,-0.147000000000
13.422839382000,-0.165000000000
13.430527270000,-0.155000000000
13.438215158000,-0.143000000000
13.445903046000,-0.143000000000
13.453590934000,-0.130000000000
13.461278822000,-0.120000000000
13.468966710000,-0.113000000000
13.476654598000,-0.098000000000
13.484342486000,-0.098000000000
13.492030374000,-0.115000000000
13.499718262000,-0.108000000000
13.507406150000,-0.088000000000
13.515094038000,-0.088000000000
13.522781926000,-0.088000000000
13.530469814000,-0.083000000000
13.538157702000,-0.086000000000
13.545845590000,-0.091000000000
13.553533478000,-0.091000000000
13.561221366000,-0.091000000000
13.568909254000,-0.093000000000
13.576597142000,-0.098000000000
13.584285030000,-0.093000000000
13.591972918000,-0.091000000000
13.599660806000,-0.093000000000
13.607348694000,-0.091000000000
13.615036582000,-0.086000000000
13.622724470000,-0.086000000000
13.630412358000,-0.091000000000
13.638100246000,-0.093000000000
13.645788134000,-0.091000000000
13.653476022000,-0.088000000000
13.661163910000,-0.083000000000
13.668851820000,-0.081000000000
13.676539568000,-0.078000000000
13.684227316000,-0.078000000000
13.691915064000,-0.083000000000
13.699602812000,-0.083000000000
13.707290560000,-0.071000000000
13.714978308000,-0.066000000000
13.722666056000,-0.078000000000
13.730353804000,-0.086000000000
13.738041552000,-0.083000000000
13.745729300000,-0.081000000000
13.753417048000,-0.073000000000
13.761104796000,-0.056000000000
13.768792544000,-0.049000000000
13.776480292000,-0.041000000000
13.784168040000,-0.029000000000
13.791855788000,-0.034000000000
13.799543536000,-0.056000000000
13.807231284000,-0.066000000000
13.814919032000,-0.059000000000
13.822606780000,-0.056000000000
13.830294528000,-0.064000000000
13.837982276000,-0.059000000000
13.845670024000,-0.054000000000
13.853357772000,-0.069000000000
13.861045520000,-0.096000000000
13.868733268000,-0.019000000000
13.876421016000,0.327000000000
13.884108764000,0.757000000000
13.891796512000,0.648000000000
13.899484260000,-0.054000000000
13.907172008000,-0.507000000000
13.914859756000,-0.350000000000
13.922547504000,-0.175000000000
13.930235252000,-0.212000000000
13.937923000000,-0.143000000000
13.945610748000,-0.034000000000
13.953298496000,-0.041000000000
13.960986244000,-0.061000000000
13.968673992000,-0.039000000000
13.976361740000,-0.032000000000
13.984049488000,-0.029000000000
13.991737236000,-0.022000000000
13.999424984000,-0.014000000000
14.007112732000,-0.012000000000
14.014800480000,-0.009000000000
14.022488228000,-0.004000000000
14.030175976000,-0.002000000000
14.037863724000,0.000000000000
14.045551472000,0.007000000000
14.053239220000,0.017000000000
14.060926968000,0.029000000000
14.068614716000,0.041000000000
14.076302464000,0.049000000000
14.083990212000,0.059000000000
14.091677960000,0.071000000000
14.099365708000,0.088000000000
14.107053456000,0.101000000000
14.114741204000,0.113000000000
14.122428952000,0.125000000000
14.130116700000,0.140000000000
14.137804448000,0.155000000000
14.145492196000,0.155000000000
14.153179944000,0.147000000000
14.160867692000,0.133000000000
14.168555440000,0.096000000000
14.176243188000,0.032000000000
14.183930936000,-0.017000000000
14.191618684000,-0.046000000000
14.199306432000,-0.086000000000
14.206994180000,-0.118000000000
14.214681928000,-0.125000000000
14.222369676000,-0.128000000000
14.230057496000,-0.133000000000
14.237745244000,-0.128000000000
14.245432992000,-0.115000000000
14.253120740000,-0.115000000000
14.260808488000,-0.120000000000
14.268496236000,-0.113000000000
14.276183984000,-0.103000000000
14.283871732000,-0.103000000000
14.291559480000,-0.096000000000
14.299247228000,-0.081000000000
14.306934976000,-0.076000000000
14.314622724000,-0.086000000000
14.322310472000,-0.091000000000
14.329998220000,-0.076000000000
14.337685968000,-0.066000000000
14.345373716000,-0.071000000000
14.353061464000,-0.078000000000
14.360749212000,-0.071000000000
14.368436960000,-0.066000000000
14.376124708000,-0.073000000000
14.383812456000,-0.076000000000
14.391500204000,-0.076000000000
14.399187952000,-0.073000000000
14.406875700000,-0.066000000000
14.414563448000,-0.064000000000
14.422251196000,-0.071000000000
14.429938944000,-0.073000000000
14.437626692000,-0.071000000000
14.445314440000,-0.061000000000
14.453002188000,-0.051000000000
14.460689936000,-0.056000000000
14.468377684000,-0.061000000000
14.476065432000,-0.056000000000
14.483753180000,-0.059000000000
14.491440928000,-0.059000000000
14.499128676000,-0.044000000000
14.506816424000,-0.044000000000
14.514504172000,-0.051000000000
14.522191920000,-0.046000000000
14.529879668000,-0.039000000000
14.537567416000,-0.041000000000
14.545255164000,-0.041000000000
14.552942912000,-0.036000000000
14.560630660000,-0.034000000000
14.568318408000,-0.036000000000
14.576006156000,-0.039000000000
14.583693904000,-0.034000000000
14.591381652000,-0.039000000000
14.599069400000,-0.049000000000
14.606757148000,-0.044000000000
14.614444896000,-0.036000000000
14.622132644000,-0.029000000000
14.629820392000,-0.019000000000
14.637508140000,-0.012000000000
14.645195888000,-0.002000000000
14.652883636000,0.012000000000
14.660571384000,0.002000000000
14.668259132000,-0.019000000000
14.675946880000,-0.024000000000
14.683634628000,-0.017000000000
14.691322376000,-0.022000000000
14.699010124000,-0.027000000000
14.706697872000,-0.024000000000
14.714385620000,-0.022000000000
14.722073368000,-0.036000000000
14.729761116000,-0.064000000000
14.737448864000,0.051000000000
14.745136612000,0.463000000000
14.752824360000,0.865000000000
14.760512108000,0.700000000000
14.768199856000,0.051000000000
14.775887604000,-0.313000000000
14.783575352000,-0.184000000000
14.791263168000,-0.103000000000
14.798950707000,-0.143000000000
14.806638246000,-0.083000000000
14.814325785000,-0.036000000000
14.822013324000,-0.061000000000
14.829700863000,-0.046000000000
14.837388402000,-0.019000000000
14.845075941000,-0.024000000000
14.852763480000,-0.022000000000
14.860451019000,-0.012000000000
14.868138558000,-0.009000000000
14.875826097000,-0.004000000000
14.883513636000,0.004000000000
14.891201175000,0.004000000000
14.898888714000,0.007000000000
14.906576253000,0.017000000000
14.914263792000,0.024000000000
14.921951331000,0.029000000000
14.929638870000,0.036000000000
14.937326409000,0.046000000000
14.945013948000,0.051000000000
14.952701487000,0.059000000000
14.960389026000,0.069000000000
14.968076565000,0.083000000000
14.975764104000,0.098000000000
14.983451643000,0.110000000000
14.991139182000,0.128000000000
14.998826721000,0.138000000000
15.006514260000,0.140000000000
15.014201799000,0.145000000000
15.021889338000,0.150000000000
15.029576877000,0.138000000000
15.037264416000,0.108000000000
15.044951955000,0.073000000000
15.052639494000,0.027000000000
15.060327033000,-0.017000000000
15.068014572000,-0.046000000000
15.075702111000,-0.061000000000
15.083389650000,-0.071000000000
15.091077189000,-0.081000000000
15.098764728000,-0.081000000000
15.106452267000,-0.083000000000
15.114139806000,-0.083000000000
15.121827345000,-0.078000000000
15.129514884000,-0.073000000000
15.137202423000,-0.069000000000
15.144889962000,-0.054000000000
15.152577501000,-0.051000000000
15.160265040000,-0.064000000000
15.167952579000,-0.061000000000
15.175640118000,-0.049000000000
15.183327657000,-0.044000000000
15.191015196000,-0.046000000000
15.198702735000,-0.041000000000
15.206390274000,-0.034000000000
15.214077813000,-0.039000000000
15.221765352000,-0.039000000000
15.229452891000,-0.032000000000
15.237140430000,-0.036000000000
15.244827969000,-0.041000000000
15.252515508000,-0.036000000000
15.260203047000,-0.036000000000
15.267890586000,-0.036000000000
15.275578125000,-0.029000000000
15.283265664000,-0.024000000000
15.290953203000,-0.024000000000
15.298640742000,-0.027000000000
15.306328281000,-0.036000000000
15.314015820000,-0.039000000000
15.321703359000,-0.027000000000
15.329390898000,-0.022000000000
15.337078437000,-0.029000000000
15.344765976000,-0.024000000000
15.352453583000,-0.019000000000
15.360141541000,-0.019000000000
15.367829499000,-0.022000000000
15.375517457000,-0.019000000000
15.383205415000,-0.022000000000
15.390893373000,-0.029000000000
15.398581331000,-0.029000000000
15.406269289000,-0.027000000000
15.413957247000,-0.029000000000
15.421645205000,-0.027000000000
15.429333163000,-0.022000000000
15.437021121000,-0.022000000000
15.444709079000,-0.024000000000
15.452397037000,-0.022000000000
15.460084995000,-0.024000000000
15.467772953000,-0.029000000000
15.475460911000,-0.029000000000
15.483148869000,-0.032000000000
15.490836827000,-0.036000000000
15.498524785000,-0.036000000000
15.506212743000,-0.027000000000
15.513900701000,-0.019000000000
15.521588659000,-0.014000000000
15.529276617000,-0.002000000000
15.536964575000,0.009000000000
15.544652533000,-0.002000000000
15.552340491000,-0.017000000000
15.560028449000,-0.022000000000
15.567716407000,-0.024000000000
15.575404365000,-0.024000000000
15.583092323000,-0.024000000000
15.590780281000,-0.022000000000
15.598468239000,-0.029000000000
15.606156197000,-0.049000000000
15.613844155000,-0.066000000000
15.621532113000,0.054000000000
15.629220071000,0.456000000000
15.636908029000,0.818000000000
15.644595987000,0.574000000000
15.652283945000,-0.101000000000
15.659971903000,-0.401000000000
15.667659861000,-0.239000000000
15.675347819000,-0.167000000000
15.683035777000,-0.207000000000
15.690723735000,-0.128000000000
15.698411693000,-0.064000000000
15.706099651000,-0.083000000000
15.713787609000,-0.078000000000
15.721475567000,-0.056000000000
15.729163525000,-0.056000000000
15.736851483000,-0.054000000000
15.744539441000,-0.044000000000
15.752227399000,-0.036000000000
15.759915357000,-0.036000000000
15.767603315000,-0.041000000000
15.775291273000,-0.034000000000
15.782979231000,-0.012000000000
15.790667189000,0.002000000000
15.798355147000,0.002000000000
15.806043105000,0.009000000000
15.813731063000,0.019000000000
15.821419021000,0.027000000000
15.829106979000,0.032000000000
15.836794937000,0.051000000000
15.844482895000,0.076000000000
15.852170853000,0.091000000000
15.859858811000,0.103000000000
15.867546769000,0.123000000000
15.875234727000,0.140000000000
15.882922685000,0.143000000000
15.890610643000,0.140000000000
15.898298601000,0.147000000000
15.905986559000,0.147000000000
15.913674520000,0.130000000000
15.921362129000,0.101000000000
15.929049738000,0.051000000000
15.936737347000,-0.009000000000
15.944424956000,-0.056000000000
15.952112565000,-0.088000000000
15.959800174000,-0.120000000000
15.967487783000,-0.143000000000
15.975175392000,-0.143000000000
15.982863001000,-0.147000000000
15.990550610000,-0.157000000000
15.998238219000,-0.145000000000
16.005925828000,-0.125000000000
16.013613437000,-0.128000000000
16.021301046000,-0.133000000000
16.028988655000,-0.125000000000
16.036676264000,-0.115000000000
16.044363873000,-0.106000000000
16.052051482000,-0.101000000000
16.059739091000,-0.103000000000
16.067426700000,-0.098000000000
16.075114309000,-0.088000000000
16.082801918000,-0.088000000000
16.090489527000,-0.096000000000
16.098177136000,-0.093000000000
16.105864745000,-0.083000000000
16.113552354000,-0.083000000000
16.121239963000,-0.088000000000
16.128927572000,-0.083000000000
16.136615181000,-0.088000000000
16.144302790000,-0.096000000000
16.151990399000,-0.096000000000
16.159678008000,-0.091000000000
16.167365617000,-0.088000000000
16.175053226000,-0.093000000000
16.182740835000,-0.096000000000
16.190428444000,-0.088000000000
16.198116053000,-0.086000000000
16.205803662000,-0.088000000000
16.213491271000,-0.088000000000
16.221178880000,-0.086000000000
16.228866489000,-0.083000000000
16.236554098000,-0.078000000000
16.244241707000,-0.078000000000
16.251929316000,-0.083000000000
16.259616925000,-0.078000000000
16.267304534000,-0.069000000000
16.274992143000,-0.069000000000
16.282679752000,-0.073000000000
16.290367361000,-0.071000000000
16.298054970000,-0.066000000000
16.305742579000,-0.069000000000
16.313430188000,-0.066000000000
16.321117797000,-0.066000000000
16.328805406000,-0.071000000000
16.336493015000,-0.073000000000
16.344180624000,-0.073000000000
16.351868233000,-0.071000000000
16.359555842000,-0.069000000000
16.367243451000,-0.064000000000
16.374931060000,-0.054000000000
16.382618669000,-0.041000000000
16.390306278000,-0.032000000000
16.397993887000,-0.032000000000
16.405681496000,-0.046000000000
16.413369105000,-0.059000000000
16.421056714000,-0.061000000000
16.428744323000,-0.061000000000
16.436431932000,-0.059000000000
16.444119541000,-0.051000000000
16.451807150000,-0.051000000000
16.459494759000,-0.066000000000
16.467182368000,-0.088000000000
16.474870022000,-0.091000000000
16.482557910000,0.041000000000
16.490245798000,0.448000000000
16.497933686000,0.784000000000
16.505621574000,0.456000000000
16.513309462000,-0.263000000000
16.520997350000,-0.517000000000
16.528685238000,-0.298000000000
16.536373126000,-0.209000000000
16.544061014000,-0.226000000000
16.551748902000,-0.113000000000
16.559436790000,-0.039000000000
16.567124678000,-0.066000000000
16.574812566000,-0.061000000000
16.582500454000,-0.036000000000
16.590188342000,-0.039000000000
16.597876230000,-0.041000000000
16.605564118000,-0.029000000000
16.613252006000,-0.024000000000
16.620939894000,-0.019000000000
16.628627782000,-0.014000000000
16.636315670000,-0.007000000000
16.644003558000,-0.009000000000
16.651691446000,-0.007000000000
16.659379334000,0.000000000000
16.667067222000,0.009000000000
16.674755110000,0.014000000000
16.682442998000,0.027000000000
16.690130886000,0.036000000000
16.697818774000,0.046000000000
16.705506662000,0.059000000000
16.713194550000,0.078000000000
16.720882438000,0.096000000000
16.728570326000,0.106000000000
16.736258214000,0.115000000000
16.743946102000,0.120000000000
16.751633990000,0.123000000000
16.759321878000,0.128000000000
16.767009766000,0.130000000000
16.774697654000,0.108000000000
16.782385542000,0.064000000000
16.790073430000,0.022000000000
16.797761318000,-0.024000000000
16.805449206000,-0.076000000000
16.813137094000,-0.108000000000
16.820824982000,-0.130000000000
16.828512870000,-0.150000000000
16.836200758000,-0.155000000000
16.843888646000,-0.155000000000
16.851576534000,-0.157000000000
16.859264422000,-0.157000000000
16.866952310000,-0.152000000000
16.874640198000,-0.145000000000
16.882328086000,-0.140000000000
16.890015974000,-0.140000000000
16.897703862000,-0.138000000000
16.905391750000,-0.125000000000
16.913079638000,-0.118000000000
16.920767526000,-0.115000000000
16.928455414000,-0.108000000000
16.936143302000,-0.106000000000
16.943831190000,-0.110000000000
16.951519078000,-0.108000000000
16.959206966000,-0.101000000000
16.966894854000,-0.101000000000
16.974582742000,-0.103000000000
16.982270630000,-0.106000000000
16.989958518000,-0.108000000000
16.997646406000,-0.113000000000
17.005334294000,-0.118000000000
17.013022182000,-0.115000000000
17.020710070000,-0.108000000000
17.028397958000,-0.108000000000
17.036085868000,-0.110000000000
17.043773616000,-0.103000000000
17.051461364000,-0.098000000000
17.059149112000,-0.103000000000
17.066836860000,-0.108000000000
17.074524608000,-0.106000000000
17.082212356000,-0.103000000000
17.089900104000,-0.101000000000
17.097587852000,-0.103000000000
17.105275600000,-0.106000000000
17.112963348000,-0.098000000000
17.120651096000,-0.093000000000
17.128338844000,-0.093000000000
17.136026592000,-0.091000000000
17.143714340000,-0.086000000000
17.151402088000,-0.091000000000
17.159089836000,-0.091000000000
17.166777584000,-0.088000000000
17.174465332000,-0.086000000000
17.182153080000,-0.083000000000
17.189840828000,-0.083000000000
17.197528576000,-0.088000000000
17.205216324000,-0.088000000000
17.212904072000,-0.078000000000
17.220591820000,-0.076000000000
17.228279568000,-0.088000000000
17.235967316000,-0.096000000000
17.243655064000,-0.093000000000
17.251342812000,-0.093000000000
17.259030560000,-0.101000000000
17.266718308000,-0.093000000000
17.274406056000,-0.076000000000
17.282093804000,-0.064000000000
17.289781552000,-0.059000000000
17.297469300000,-0.054000000000
17.305157048000,-0.051000000000
17.312844796000,-0.066000000000
17.320532544000,-0.076000000000
17.328220292000,-0.076000000000
17.335908040000,-0.076000000000
17.343595788000,-0.076000000000
17.351283536000,-0.071000000000
17.358971284000,-0.073000000000
17.366659032000,-0.076000000000
17.374346780000,-0.096000000000
17.382034528000,-0.130000000000
17.389722276000,-0.004000000000
17.397410024000,0.426000000000
17.405097772000,0.835000000000
17.412785520000,0.653000000000
17.420473268000,-0.009000000000
17.428161016000,-0.360000000000
17.435848764000,-0.231000000000
17.443536512000,-0.160000000000
17.451224260000,-0.202000000000
17.458912008000,-0.143000000000
17.466599756000,-0.096000000000
17.474287504000,-0.113000000000
17.481975252000,-0.108000000000
17.489663000000,-0.093000000000
17.497350748000,-0.091000000000
17.505038496000,-0.076000000000
17.512726244000,-0.066000000000
17.520413992000,-0.066000000000
17.528101740000,-0.064000000000
17.535789488000,-0.064000000000
17.543477236000,-0.061000000000
17.551164984000,-0.051000000000
17.558852732000,-0.046000000000
17.566540480000,-0.046000000000
17.574228228000,-0.041000000000
17.581915976000,-0.027000000000
17.589603724000,-0.017000000000
17.597291544000,-0.012000000000
17.604979292000,-0.004000000000
17.612667040000,0.004000000000
17.620354788000,0.019000000000
17.628042536000,0.039000000000
17.635730284000,0.054000000000
17.643418032000,0.064000000000
17.651105780000,0.073000000000
17.658793528000,0.081000000000
17.666481276000,0.088000000000
17.674169024000,0.093000000000
17.681856772000,0.083000000000
17.689544520000,0.051000000000
17.697232268000,0.012000000000
17.704920016000,-0.017000000000
17.712607764000,-0.044000000000
17.720295512000,-0.086000000000
17.727983260000,-0.123000000000
17.735671008000,-0.138000000000
17.743358756000,-0.145000000000
17.751046504000,-0.155000000000
17.758734252000,-0.145000000000
17.766422000000,-0.133000000000
17.774109748000,-0.138000000000
17.781797496000,-0.143000000000
17.789485244000,-0.138000000000
17.797172992000,-0.130000000000
17.804860740000,-0.123000000000
17.812548488000,-0.118000000000
17.820236236000,-0.113000000000
17.827923984000,-0.118000000000
17.835611732000,-0.120000000000
17.843299480000,-0.110000000000
17.850987228000,-0.103000000000
17.858674976000,-0.106000000000
17.866362724000,-0.108000000000
17.874050472000,-0.110000000000
17.881738220000,-0.106000000000
17.889425968000,-0.098000000000
17.897113716000,-0.096000000000
17.904801464000,-0.103000000000
17.912489212000,-0.110000000000
17.920176960000,-0.108000000000
17.927864708000,-0.106000000000
17.935552456000,-0.108000000000
17.943240204000,-0.101000000000
17.950927952000,-0.091000000000
17.958615700000,-0.091000000000
17.966303448000,-0.091000000000
17.973991196000,-0.091000000000
17.981678944000,-0.096000000000
17.989366692000,-0.101000000000
17.997054440000,-0.096000000000
18.004742188000,-0.086000000000
18.012429936000,-0.088000000000
18.020117684000,-0.088000000000
18.027805432000,-0.081000000000
18.035493180000,-0.078000000000
18.043180928000,-0.078000000000
18.050868676000,-0.083000000000
18.058556424000,-0.083000000000
18.066244172000,-0.076000000000
18.073931920000,-0.076000000000
18.081619668000,-0.076000000000
18.089307416000,-0.069000000000
18.096995164000,-0.069000000000
18.104682912000,-0.071000000000
18.112370660000,-0.066000000000
18.120058408000,-0.059000000000
18.127746156000,-0.059000000000
18.135433904000,-0.066000000000
18.143121652000,-0.071000000000
18.150809400000,-0.076000000000
18.158497216000,-0.081000000000
18.166184755000,-0.078000000000
18.173872294000,-0.071000000000
18.181559833000,-0.069000000000
18.189247372000,-0.059000000000
18.196934911000,-0.034000000000
18.204622450000,-0.024000000000
18.212309989000,-0.039000000000
18.219997528000,-0.046000000000
18.227685067000,-0.056000000000
18.235372606000,-0.076000000000
18.243060145000,-0.076000000000
18.250747684000,-0.061000000000
18.258435223000,-0.061000000000
18.266122762000,-0.069000000000
18.273810301000,-0.066000000000
18.281497840000,-0.071000000000
18.289185379000,-0.098000000000
18.296872918000,-0.054000000000
18.304560457000,0.256000000000
18.312247996000,0.705000000000
18.319935535000,0.705000000000
18.327623074000,0.096000000000
18.335310613000,-0.399000000000
18.342998152000,-0.327000000000
18.350685691000,-0.177000000000
18.358373230000,-0.207000000000
18.366060769000,-0.162000000000
18.373748308000,-0.071000000000
18.381435847000,-0.078000000000
18.389123386000,-0.091000000000
18.396810925000,-0.069000000000
18.404498464000,-0.064000000000
18.412186003000,-0.059000000000
18.419873542000,-0.034000000000
18.427561081000,-0.029000000000
18.435248620000,-0.041000000000
18.442936159000,-0.039000000000
18.450623698000,-0.027000000000
18.458311237000,-0.029000000000
18.465998776000,-0.027000000000
18.473686315000,-0.012000000000
18.481373854000,0.000000000000
18.489061393000,0.002000000000
18.496748932000,0.012000000000
18.504436471000,0.029000000000
18.512124010000,0.041000000000
18.519811549000,0.056000000000
18.527499088000,0.073000000000
18.535186627000,0.083000000000
18.542874166000,0.103000000000
18.550561705000,0.125000000000
18.558249244000,0.133000000000
18.565936783000,0.135000000000
18.573624322000,0.135000000000
18.581311861000,0.135000000000
18.588999400000,0.125000000000
18.596686939000,0.098000000000
18.604374478000,0.059000000000
18.612062017000,0.004000000000
18.619749556000,-0.041000000000
18.627437095000,-0.061000000000
18.635124634000,-0.086000000000
18.642812173000,-0.130000000000
18.650499712000,-0.150000000000
18.658187251000,-0.145000000000
18.665874790000,-0.152000000000
18.673562329000,-0.157000000000
18.681249868000,-0.150000000000
18.688937407000,-0.143000000000
18.696624946000,-0.140000000000
18.704312485000,-0.135000000000
18.712000024000,-0.128000000000
18.719687631000,-0.123000000000
18.727375589000,-0.120000000000
18.735063547000,-0.120000000000
18.742751505000,-0.110000000000
18.750439463000,-0.103000000000
18.758127421000,-0.108000000000
18.765815379000,-0.098000000000
18.773503337000,-0.086000000000
18.781191295000,-0.103000000000
18.788879253000,-0.118000000000
18.796567211000,-0.110000000000
18.804255169000,-0.110000000000
18.811943127000,-0.106000000000
18.819631085000,-0.096000000000
18.827319043000,-0.103000000000
18.835007001000,-0.103000000000
18.842694959000,-0.083000000000
18.850382917000,-0.086000000000
18.858070875000,-0.103000000000
18.865758833000,-0.110000000000
18.873446791000,-0.103000000000
18.881134749000,-0.093000000000
18.888822707000,-0.086000000000
18.896510665000,-0.088000000000
18.904198623000,-0.091000000000
18.911886581000,-0.086000000000
18.919574539000,-0.078000000000
18.927262497000,-0.081000000000
18.934950455000,-0.088000000000
18.942638413000,-0.086000000000
18.950326371000,-0.069000000000
18.958014329000,-0.059000000000
18.965702287000,-0.069000000000
18.973390245000,-0.081000000000
18.981078203000,-0.076000000000
18.988766161000,-0.066000000000
18.996454119000,-0.071000000000
19.004142077000,-0.081000000000
19.011830035000,-0.083000000000
19.019517993000,-0.076000000000
19.027205951000,-0.066000000000
19.034893909000,-0.056000000000
19.042581867000,-0.049000000000
19.050269825000,-0.039000000000
19.057957783000,-0.029000000000
19.065645741000,-0.032000000000
19.073333699000,-0.044000000000
19.081021657000,-0.054000000000
19.088709615000,-0.054000000000
19.096397573000,-0.059000000000
19.104085531000,-0.059000000000
19.111773489000,-0.059000000000
19.119461447000,-0.066000000000
19.127149405000,-0.076000000000
19.134837363000,-0.076000000000
19.142525321000,0.071000000000
19.150213279000,0.495000000000
19.157901237000,0.789000000000
19.165589195000,0.392000000000
19.173277153000,-0.320000000000
19.180965111000,-0.507000000000
19.188653069000,-0.276000000000
19.196341027000,-0.207000000000
19.204028985000,-0.219000000000
19.211716943000,-0.103000000000
19.219404901000,-0.041000000000
19.227092859000,-0.069000000000
19.234780817000,-0.054000000000
19.242468775000,-0.027000000000
19.250156733000,-0.034000000000
19.257844691000,-0.029000000000
19.265532649000,-0.007000000000
19.273220607000,-0.002000000000
19.280908568000,-0.009000000000
19.288596177000,-0.007000000000
19.296283786000,0.000000000000
19.303971395000,0.002000000000
19.311659004000,0.002000000000
19.319346613000,0.019000000000
19.327034222000,0.041000000000
19.334721831000,0.039000000000
19.342409440000,0.032000000000
19.350097049000,0.046000000000
19.357784658000,0.069000000000
19.365472267000,0.086000000000
19.373159876000,0.103000000000
19.380847485000,0.115000000000
19.388535094000,0.125000000000
19.396222703000,0.135000000000
19.403910312000,0.147000000000
19.411597921000,0.150000000000
19.419285530000,0.147000000000
19.426973139000,0.143000000000
19.434660748000,0.123000000000
19.442348357000,0.086000000000
19.450035966000,0.036000000000
19.457723575000,-0.012000000000
19.465411184000,-0.059000000000
19.473098793000,-0.103000000000
19.480786402000,-0.130000000000
19.488474011000,-0.138000000000
19.496161620000,-0.145000000000
19.503849229000,-0.152000000000
19.511536838000,-0.145000000000
19.519224447000,-0.138000000000
19.526912056000,-0.140000000000
19.534599665000,-0.135000000000
19.542287274000,-0.125000000000
19.549974883000,-0.118000000000
19.557662492000,-0.113000000000
19.565350101000,-0.106000000000
19.573037710000,-0.101000000000
19.580725319000,-0.101000000000
19.588412928000,-0.096000000000
19.596100537000,-0.083000000000
19.603788146000,-0.073000000000
19.611475755000,-0.073000000000
19.619163364000,-0.088000000000
19.626850973000,-0.091000000000
19.634538582000,-0.086000000000
19.642226191000,-0.093000000000
19.649913800000,-0.098000000000
19.657601409000,-0.088000000000
19.665289018000,-0.088000000000
19.672976627000,-0.101000000000
19.680664236000,-0.101000000000
19.688351845000,-0.091000000000
19.696039454000,-0.091000000000
19.703727063000,-0.093000000000
19.711414672000,-0.093000000000
19.719102281000,-0.091000000000
19.726789890000,-0.093000000000
19.734477499000,-0.093000000000
19.742165108000,-0.086000000000
19.749852717000,-0.086000000000
19.757540326000,-0.086000000000
19.765227935000,-0.078000000000
19.772915544000,-0.071000000000
19.780603153000,-0.073000000000
19.788290762000,-0.081000000000
19.795978371000,-0.078000000000
19.803665980000,-0.069000000000
19.811353589000,-0.069000000000
19.819041198000,-0.069000000000
19.826728807000,-0.069000000000
19.834416416000,-0.076000000000
19.842104070000,-0.078000000000
19.849791958000,-0.073000000000
19.857479846000,-0.073000000000
19.865167734000,-0.078000000000
19.872855622000,-0.086000000000
19.880543510000,-0.083000000000
19.888231398000,-0.078000000000
19.895919286000,-0.071000000000
19.903607174000,-0.056000000000
19.911295062000,-0.044000000000
19.918982950000,-0.039000000000
19.926670838000,-0.036000000000
19.934358726000,-0.044000000000
19.942046614000,-0.066000000000
19.949734502000,-0.073000000000
19.957422390000,-0.059000000000
19.965110278000,-0.041000000000
19.972798166000,-0.034000000000
19.980486054000,-0.032000000000
19.988173942000,-0.046000000000
19.995861830000,-0.086000000000
20.003549718000,-0.110000000000
20.011237606000,0.036000000000
20.018925494000,0.473000000000
20.026613382000,0.848000000000
20.034301270000,0.613000000000
20.041989158000,-0.054000000000
20.049677046000,-0.367000000000
20.057364934000,-0.221000000000
20.065052822000,-0.157000000000
20.072740710000,-0.187000000000
20.080428598000,-0.110000000000
20.088116486000,-0.071000000000
20.095804374000,-0.106000000000
20.103492262000,-0.091000000000
20.111180150000,-0.064000000000
20.118868038000,-0.064000000000
20.126555926000,-0.059000000000
20.134243814000,-0.049000000000
20.141931702000,-0.051000000000
20.149619590000,-0.049000000000
20.157307478000,-0.039000000000
20.164995366000,-0.041000000000
20.172683254000,-0.044000000000
20.180371142000,-0.034000000000
20.188059030000,-0.024000000000
20.195746918000,-0.022000000000
20.203434806000,-0.012000000000
20.211122694000,-0.004000000000
20.218810582000,-0.002000000000
20.226498470000,0.009000000000
20.234186358000,0.032000000000
20.241874246000,0.041000000000
20.249562134000,0.049000000000
20.257250022000,0.071000000000
20.264937910000,0.088000000000
20.272625798000,0.088000000000
20.280313686000,0.093000000000
20.288001574000,0.103000000000
20.295689462000,0.103000000000
20.303377350000,0.101000000000
20.311065238000,0.076000000000
20.318753126000,0.032000000000
20.326441014000,-0.014000000000
20.334128902000,-0.049000000000
20.341816790000,-0.081000000000
20.349504678000,-0.115000000000
20.357192566000,-0.140000000000
20.364880454000,-0.147000000000
20.372568342000,-0.145000000000
20.380256230000,-0.135000000000
20.387944118000,-0.128000000000
20.395632006000,-0.133000000000
20.403319916000,-0.135000000000
20.411007455000,-0.120000000000
20.418694994000,-0.108000000000
20.426382533000,-0.103000000000
20.434070072000,-0.106000000000
20.441757611000,-0.108000000000
20.449445150000,-0.108000000000
20.457132689000,-0.106000000000
20.464820228000,-0.106000000000
20.472507767000,-0.108000000000
20.480195306000,-0.106000000000
20.487882845000,-0.098000000000
20.495570384000,-0.096000000000
20.503257923000,-0.098000000000
20.510945462000,-0.101000000000
20.518633001000,-0.101000000000
20.526320540000,-0.101000000000
20.534008079000,-0.103000000000
20.541695618000,-0.106000000000
20.549383157000,-0.103000000000
20.557070696000,-0.098000000000
20.564758235000,-0.096000000000
20.572445774000,-0.096000000000
20.580133313000,-0.096000000000
20.587820852000,-0.093000000000
20.595508391000,-0.088000000000
20.603195930000,-0.091000000000
20.610883469000,-0.083000000000
20.618571008000,-0.064000000000
20.626258547000,-0.056000000000
20.633946086000,-0.069000000000
20.641633625000,-0.078000000000
20.649321164000,-0.083000000000
20.657008703000,-0.078000000000
20.664696242000,-0.066000000000
20.672383781000,-0.064000000000
20.680071320000,-0.066000000000
20.687758859000,-0.069000000000
20.695446398000,-0.073000000000
20.703133937000,-0.076000000000
20.710821476000,-0.069000000000
20.718509015000,-0.066000000000
20.726196554000,-0.071000000000
20.733884093000,-0.069000000000
20.741571632000,-0.066000000000
20.749259171000,-0.066000000000
20.756946710000,-0.071000000000
20.764634249000,-0.076000000000
20.772321788000,-0.071000000000
20.780009327000,-0.054000000000
20.787696866000,-0.032000000000
20.795384405000,-0.022000000000
20.803071944000,-0.019000000000
20.810759483000,-0.027000000000
20.818447022000,-0.044000000000
20.826134561000,-0.049000000000
20.833822100000,-0.049000000000
20.841509639000,-0.051000000000
20.849197178000,-0.041000000000
20.856884717000,-0.034000000000
20.864572256000,-0.046000000000
20.872259795000,-0.066000000000
20.879947334000,-0.078000000000
20.887634873000,0.044000000000
20.895322412000,0.441000000000
20.903009951000,0.806000000000
20.910697490000,0.569000000000
20.918385029000,-0.101000000000
20.926072568000,-0.409000000000
20.933760107000,-0.251000000000
20.941447646000,-0.155000000000
20.949135185000,-0.172000000000
20.956822724000,-0.096000000000
20.964510331000,-0.027000000000
20.972198149000,-0.032000000000
20.979885967000,-0.034000000000
20.987573785000,-0.022000000000
20.995261603000,-0.012000000000
21.002949421000,0.002000000000
21.010637239000,0.012000000000
21.018325057000,0.007000000000
21.026012875000,0.012000000000
21.033700693000,0.027000000000
21.041388511000,0.032000000000
21.049076329000,0.032000000000
21.056764147000,0.039000000000
21.064451965000,0.051000000000
21.072139783000,0.064000000000
21.079827601000,0.078000000000
21.087515419000,0.091000000000
21.095203237000,0.103000000000
21.102891055000,0.113000000000
21.110578873000,0.138000000000
21.118266691000,0.177000000000
21.125954509000,0.197000000000
21.133642327000,0.192000000000
21.141330145000,0.207000000000
21.149017963000,0.219000000000
21.156705781000,0.214000000000
21.164393599000,0.212000000000
21.172081417000,0.221000000000
21.179769235000,0.221000000000
21.187457053000,0.175000000000
21.195144871000,0.110000000000
21.202832689000,0.073000000000
21.210520507000,0.034000000000
21.218208325000,-0.012000000000
21.225896143000,-0.039000000000
21.233583961000,-0.049000000000
21.241271779000,-0.054000000000
21.248959597000,-0.059000000000
21.256647415000,-0.061000000000
21.264335233000,-0.066000000000
21.272023051000,-0.061000000000
21.279710869000,-0.046000000000
21.287398687000,-0.041000000000
21.295086505000,-0.046000000000
21.302774323000,-0.027000000000
21.310462141000,-0.007000000000
21.318149959000,-0.014000000000
21.325837777000,-0.017000000000
21.333525595000,-0.004000000000
21.341213413000,0.002000000000
21.348901231000,-0.002000000000
21.356589049000,-0.002000000000
21.364276867000,0.002000000000
21.371964685000,0.002000000000
21.379652503000,0.002000000000
21.387340321000,0.000000000000
21.395028139000,0.004000000000
21.402715957000,0.012000000000
21.410403775000,0.002000000000
21.418091593000,-0.007000000000
21.425779411000,0.007000000000
21.433467229000,0.019000000000
21.441155047000,0.002000000000
21.448842865000,-0.002000000000
21.456530683000,0.007000000000
21.464218501000,0.004000000000
21.471906319000,0.002000000000
21.479594137000,0.009000000000
21.487281955000,0.014000000000
21.494969773000,0.014000000000
21.502657591000,0.019000000000
21.510345409000,0.022000000000
21.518033227000,0.009000000000
21.525721094000,0.012000000000
21.533408773000,0.027000000000
21.541096452000,0.029000000000
21.548784131000,0.022000000000
21.556471810000,0.024000000000
21.564159489000,0.024000000000
21.571847168000,0.017000000000
21.579534847000,0.012000000000
21.587222526000,0.019000000000
21.594910205000,0.036000000000
21.602597884000,0.046000000000
21.610285563000,0.051000000000
21.617973242000,0.061000000000
21.625660921000,0.056000000000
21.633348600000,0.036000000000
21.641036279000,0.029000000000
21.648723958000,0.022000000000
21.656411637000,0.019000000000
21.664099316000,0.024000000000
21.671786995000,0.027000000000
21.679474674000,0.019000000000
21.687162353000,0.019000000000
21.694850032000,0.009000000000
21.702537711000,0.012000000000
21.710225390000,0.214000000000
21.717913069000,0.665000000000
21.725600748000,0.855000000000
21.733288427000,0.337000000000
21.740976106000,-0.325000000000
21.748663785000,-0.404000000000
21.756351464000,-0.180000000000
21.764039143000,-0.147000000000
21.771726822000,-0.123000000000
21.779414501000,0.009000000000
21.787102180000,0.041000000000
21.794789859000,0.004000000000
21.802477538000,0.024000000000
21.810165217000,0.046000000000
21.817852896000,0.036000000000
21.825540575000,0.039000000000
21.833228254000,0.046000000000
21.840915933000,0.049000000000
21.848603612000,0.059000000000
21.856291291000,0.066000000000
21.863978970000,0.061000000000
21.871666649000,0.064000000000
21.879354328000,0.071000000000
21.887042007000,0.076000000000
21.894729686000,0.086000000000
21.902417365000,0.101000000000
21.910105044000,0.101000000000
21.917792723000,0.106000000000
21.925480402000,0.123000000000
21.933168081000,0.145000000000
21.940855760000,0.162000000000
21.948543439000,0.175000000000
21.956231118000,0.187000000000
21.963918797000,0.207000000000
21.971606476000,0.219000000000
21.979294155000,0.216000000000
21.986981834000,0.209000000000
21.994669513000,0.199000000000
22.002357192000,0.165000000000
22.010044871000,0.120000000000
22.017732550000,0.071000000000
22.025420229000,0.017000000000
22.033107908000,-0.034000000000
22.040795587000,-0.064000000000
22.048483266000,-0.078000000000
22.056170945000,-0.096000000000
22.063858624000,-0.110000000000
22.071546303000,-0.113000000000
22.079233982000,-0.106000000000
22.086921679000,-0.103000000000
22.094609637000,-0.108000000000
22.102297595000,-0.101000000000
22.109985553000,-0.093000000000
22.117673511000,-0.088000000000
22.125361469000,-0.081000000000
22.133049427000,-0.071000000000
22.140737385000,-0.066000000000
22.148425343000,-0.066000000000
22.156113301000,-0.069000000000
22.163801259000,-0.069000000000
22.171489217000,-0.066000000000
22.179177175000,-0.061000000000
22.186865133000,-0.061000000000
22.194553091000,-0.066000000000
22.202241049000,-0.073000000000
22.209929007000,-0.073000000000
22.217616965000,-0.066000000000
22.225304923000,-0.071000000000
22.232992881000,-0.076000000000
22.240680839000,-0.071000000000
22.248368797000,-0.071000000000
22.256056755000,-0.081000000000
22.263744713000,-0.081000000000
22.271432671000,-0.076000000000
22.279120629000,-0.073000000000
22.286808587000,-0.064000000000
22.294496545000,-0.061000000000
22.302184503000,-0.071000000000
22.309872461000,-0.073000000000
22.317560419000,-0.069000000000
22.325248377000,-0.069000000000
22.332936335000,-0.069000000000
22.340624293000,-0.064000000000
22.348312251000,-0.061000000000
22.356000209000,-0.064000000000
22.363688167000,-0.066000000000
22.371376125000,-0.066000000000
22.379064083000,-0.066000000000
22.386752041000,-0.064000000000
22.394439999000,-0.059000000000
22.402127957000,-0.051000000000
22.409815915000,-0.059000000000
22.417503873000,-0.073000000000
22.425191831000,-0.076000000000
22.432879789000,-0.071000000000
22.440567747000,-0.073000000000
22.448255705000,-0.069000000000
22.455943663000,-0.054000000000
22.463631621000,-0.046000000000
22.471319579000,-0.039000000000
22.479007537000,-0.027000000000
22.486695495000,-0.029000000000
22.494383453000,-0.039000000000
22.502071411000,-0.044000000000
22.509759369000,-0.056000000000
22.517447327000,-0.061000000000
22.525135285000,-0.059000000000
22.532823243000,-0.054000000000
22.540511201000,-0.056000000000
22.548199159000,-0.078000000000
22.555887117000,-0.115000000000
22.563575075000,-0.027000000000
22.571263033000,0.357000000000
22.578950991000,0.798000000000
22.586638949000,0.722000000000
22.594326907000,0.083000000000
22.602014865000,-0.364000000000
22.609702823000,-0.266000000000
22.617390781000,-0.145000000000
22.625078739000,-0.194000000000
22.632766697000,-0.152000000000
22.640454655000,-0.081000000000
22.648142616000,-0.096000000000
22.655830225000,-0.101000000000
22.663517834000,-0.076000000000
22.671205443000,-0.073000000000
22.678893052000,-0.076000000000
22.686580661000,-0.069000000000
22.694268270000,-0.061000000000
22.701955879000,-0.056000000000
22.709643488000,-0.051000000000
22.717331097000,-0.054000000000
22.725018706000,-0.054000000000
22.732706315000,-0.046000000000
22.740393924000,-0.036000000000
22.748081533000,-0.034000000000
22.755769142000,-0.036000000000
22.763456751000,-0.029000000000
22.771144360000,-0.014000000000
22.778831969000,-0.002000000000
22.786519578000,0.012000000000
22.794207187000,0.027000000000
22.801894796000,0.039000000000
22.809582405000,0.056000000000
22.817270014000,0.071000000000
22.824957623000,0.081000000000
22.832645232000,0.086000000000
22.840332841000,0.093000000000
22.848020450000,0.093000000000
22.855708059000,0.081000000000
22.863395668000,0.051000000000
22.871083277000,0.014000000000
22.878770886000,-0.022000000000
22.886458495000,-0.066000000000
22.894146104000,-0.108000000000
22.901833713000,-0.133000000000
22.909521322000,-0.147000000000
22.917208931000,-0.160000000000
22.924896540000,-0.165000000000
22.932584149000,-0.167000000000
22.940271758000,-0.160000000000
22.947959367000,-0.150000000000
22.955646976000,-0.150000000000
22.963334585000,-0.145000000000
22.971022194000,-0.138000000000
22.978709803000,-0.140000000000
22.986397412000,-0.143000000000
22.994085021000,-0.138000000000
23.001772630000,-0.133000000000
23.009460239000,-0.133000000000
23.017147848000,-0.135000000000
23.024835457000,-0.128000000000
23.032523066000,-0.123000000000
23.040210675000,-0.125000000000
23.047898284000,-0.123000000000
23.055585893000,-0.120000000000
23.063273502000,-0.128000000000
23.070961111000,-0.135000000000
23.078648720000,-0.125000000000
23.086336329000,-0.115000000000
23.094023938000,-0.115000000000
23.101711547000,-0.120000000000
23.109399156000,-0.120000000000
23.117086765000,-0.128000000000
23.124774374000,-0.133000000000
23.132461983000,-0.125000000000
23.140149592000,-0.115000000000
23.147837201000,-0.120000000000
23.155524810000,-0.125000000000
23.163212419000,-0.123000000000
23.170900028000,-0.123000000000
23.178587637000,-0.118000000000
23.186275246000,-0.106000000000
23.193962855000,-0.108000000000
23.201650464000,-0.115000000000
23.209338118000,-0.110000000000
23.217026006000,-0.103000000000
23.224713894000,-0.106000000000
23.232401782000,-0.108000000000
23.240089670000,-0.106000000000
23.247777558000,-0.106000000000
23.255465446000,-0.106000000000
23.263153334000,-0.103000000000
23.270841222000,-0.103000000000
23.278529110000,-0.096000000000
23.286216998000,-0.096000000000
23.293904886000,-0.103000000000
23.301592774000,-0.108000000000
23.309280662000,-0.108000000000
23.316968550000,-0.106000000000
23.324656438000,-0.101000000000
23.332344326000,-0.096000000000
23.340032214000,-0.088000000000
23.347720102000,-0.076000000000
23.355407990000,-0.071000000000
23.363095878000,-0.066000000000
23.370783766000,-0.064000000000
23.378471654000,-0.081000000000
23.386159542000,-0.091000000000
23.393847430000,-0.086000000000
23.401535318000,-0.091000000000
23.409223206000,-0.096000000000
23.416911094000,-0.088000000000
23.424598982000,-0.088000000000
23.432286870000,-0.096000000000
23.439974758000,-0.115000000000
23.447662646000,-0.076000000000
23.455350534000,0.221000000000
23.463038422000,0.678000000000
23.470726310000,0.710000000000
23.478414198000,0.118000000000
23.486102086000,-0.409000000000
23.493789974000,-0.379000000000
23.501477862000,-0.207000000000
23.509165750000,-0.216000000000
23.516853638000,-0.184000000000
23.524541526000,-0.096000000000
23.532229414000,-0.098000000000
23.539917302000,-0.110000000000
23.547605190000,-0.076000000000
23.555293078000,-0.066000000000
23.562980966000,-0.078000000000
23.570668854000,-0.073000000000
23.578356742000,-0.051000000000
23.586044630000,-0.049000000000
23.593732518000,-0.054000000000
23.601420406000,-0.044000000000
23.609108294000,-0.034000000000
23.616796182000,-0.036000000000
23.624484070000,-0.029000000000
23.632171958000,-0.012000000000
23.639859846000,-0.002000000000
23.647547734000,0.004000000000
23.655235622000,0.012000000000
23.662923510000,0.024000000000
23.670611398000,0.039000000000
23.678299286000,0.054000000000
23.685987174000,0.078000000000
23.693675062000,0.103000000000
23.701362950000,0.113000000000
23.709050838000,0.123000000000
23.716738726000,0.140000000000
23.724426614000,0.143000000000
23.732114502000,0.140000000000
23.739802390000,0.125000000000
23.747490278000,0.093000000000
23.755178166000,0.049000000000
23.762866054000,0.000000000000
23.770553964000,-0.051000000000
23.778241503000,-0.093000000000
23.785929042000,-0.123000000000
23.793616581000,-0.155000000000
23.801304120000,-0.170000000000
23.808991659000,-0.162000000000
23.816679198000,-0.160000000000
23.824366737000,-0.162000000000
23.832054276000,-0.152000000000
23.839741815000,-0.150000000000
23.847429354000,-0.152000000000
23.855116893000,-0.140000000000
23.862804432000,-0.130000000000
23.870491971000,-0.138000000000
23.878179510000,-0.140000000000
23.885867049000,-0.130000000000
23.893554588000,-0.120000000000
23.901242127000,-0.118000000000
23.908929666000,-0.108000000000
23.916617205000,-0.101000000000
23.924304744000,-0.108000000000
23.931992283000,-0.123000000000
23.939679822000,-0.118000000000
23.947367361000,-0.096000000000
23.955054900000,-0.088000000000
23.962742439000,-0.106000000000
23.970429978000,-0.115000000000
23.978117517000,-0.106000000000
23.985805056000,-0.103000000000
23.993492595000,-0.110000000000
24.001180134000,-0.113000000000
24.008867673000,-0.108000000000
24.016555212000,-0.108000000000
24.024242751000,-0.106000000000
24.031930290000,-0.103000000000
24.039617829000,-0.098000000000
24.047305368000,-0.096000000000
24.054992907000,-0.096000000000
24.062680446000,-0.091000000000
24.070367985000,-0.088000000000
24.078055524000,-0.093000000000
24.085743063000,-0.098000000000
24.093430602000,-0.096000000000
24.101118141000,-0.086000000000
24.108805680000,-0.086000000000
24.116493219000,-0.086000000000
24.124180758000,-0.081000000000
24.131868297000,-0.078000000000
24.139555836000,-0.078000000000
24.147243375000,-0.071000000000
24.154930914000,-0.073000000000
24.162618453000,-0.083000000000
24.170305992000,-0.086000000000
24.177993531000,-0.083000000000
24.185681070000,-0.088000000000
24.193368609000,-0.078000000000
24.201056148000,-0.059000000000
24.208743687000,-0.049000000000
24.216431226000,-0.039000000000
24.224118765000,-0.041000000000
24.231806304000,-0.066000000000
24.239493843000,-0.073000000000
24.247181382000,-0.069000000000
24.254868921000,-0.071000000000
24.262556460000,-0.078000000000
24.270243999000,-0.076000000000
24.277931538000,-0.073000000000
24.285619077000,-0.078000000000
24.293306616000,-0.093000000000
24.300994155000,-0.091000000000
24.308681694000,0.096000000000
24.316369233000,0.540000000000
24.324056772000,0.779000000000
24.331744379000,0.332000000000
24.339432336000,-0.342000000000
24.347120293000,-0.488000000000
24.354808250000,-0.273000000000
24.362496207000,-0.226000000000
24.370184164000,-0.226000000000
24.377872121000,-0.108000000000
24.385560078000,-0.051000000000
24.393248035000,-0.073000000000
24.400935992000,-0.066000000000
24.408623949000,-0.054000000000
24.416311906000,-0.056000000000
24.423999863000,-0.046000000000
24.431687820000,-0.032000000000
24.439375777000,-0.027000000000
24.447063734000,-0.029000000000
24.454751691000,-0.029000000000
24.462439648000,-0.022000000000
24.470127605000,-0.009000000000
24.477815562000,-0.002000000000
24.485503519000,0.002000000000
24.493191476000,0.009000000000
24.500879433000,0.017000000000
24.508567390000,0.024000000000
24.516255347000,0.034000000000
24.523943304000,0.049000000000
24.531631261000,0.069000000000
24.539319218000,0.086000000000
24.547007175000,0.096000000000
24.554695132000,0.110000000000
24.562383089000,0.128000000000
24.570071046000,0.140000000000
24.577759003000,0.147000000000
24.585446960000,0.145000000000
24.593134917000,0.138000000000
24.600822874000,0.125000000000
24.608510831000,0.086000000000
24.616198788000,0.022000000000
24.623886745000,-0.032000000000
24.631574702000,-0.066000000000
24.639262659000,-0.098000000000
24.646950616000,-0.125000000000
24.654638573000,-0.143000000000
24.662326530000,-0.150000000000
24.670014487000,-0.150000000000
24.677702444000,-0.147000000000
24.685390401000,-0.145000000000
24.693078358000,-0.143000000000
24.700766315000,-0.140000000000
24.708454272000,-0.138000000000
24.716142229000,-0.130000000000
24.723830186000,-0.118000000000
24.731518143000,-0.113000000000
24.739206100000,-0.118000000000
24.746894057000,-0.110000000000
24.754582014000,-0.091000000000
24.762269971000,-0.093000000000
24.769957928000,-0.098000000000
24.777645885000,-0.093000000000
24.785333842000,-0.091000000000
24.793021799000,-0.096000000000
24.800709756000,-0.093000000000
24.808397713000,-0.096000000000
24.816085670000,-0.096000000000
24.823773627000,-0.098000000000
24.831461584000,-0.101000000000
24.839149541000,-0.101000000000
24.846837498000,-0.103000000000
24.854525455000,-0.101000000000
24.862213412000,-0.101000000000
24.869901369000,-0.106000000000
24.877589326000,-0.103000000000
24.885277283000,-0.093000000000
24.892965312000,-0.093000000000
24.900653200000,-0.091000000000
24.908341088000,-0.083000000000
24.916028976000,-0.083000000000
24.923716864000,-0.091000000000
24.931404752000,-0.088000000000
24.939092640000,-0.086000000000
24.946780528000,-0.091000000000
24.954468416000,-0.093000000000
24.962156304000,-0.086000000000
24.969844192000,-0.081000000000
24.977532080000,-0.083000000000
24.985219968000,-0.083000000000
24.992907856000,-0.078000000000
25.000595744000,-0.081000000000
25.008283632000,-0.078000000000
25.015971520000,-0.076000000000
25.023659408000,-0.078000000000
25.031347296000,-0.088000000000
25.039035184000,-0.091000000000
25.046723072000,-0.086000000000
25.054410960000,-0.076000000000
25.062098848000,-0.069000000000
25.069786736000,-0.064000000000
25.077474624000,-0.051000000000
25.085162512000,-0.041000000000
25.092850400000,-0.046000000000
25.100538288000,-0.056000000000
25.108226176000,-0.061000000000
25.115914064000,-0.061000000000
25.123601952000,-0.056000000000
25.131289840000,-0.056000000000
25.138977728000,-0.064000000000
25.146665616000,-0.066000000000
25.154353504000,-0.071000000000
25.162041392000,-0.101000000000
25.169729280000,-0.101000000000
25.177417168000,0.128000000000
25.185105056000,0.604000000000
25.192792944000,0.843000000000
25.200480832000,0.426000000000
25.208168720000,-0.212000000000
25.215856608000,-0.355000000000
25.223544496000,-0.182000000000
25.231232384000,-0.167000000000
25.238920272000,-0.177000000000
25.246608160000,-0.091000000000
25.254296048000,-0.071000000000
25.261983936000,-0.096000000000
25.269671824000,-0.081000000000
25.277359712000,-0.069000000000
25.285047600000,-0.071000000000
25.292735488000,-0.066000000000
25.300423376000,-0.059000000000
25.308111264000,-0.054000000000
25.315799152000,-0.049000000000
25.323487040000,-0.044000000000
25.331174928000,-0.041000000000
25.338862816000,-0.039000000000
25.346550704000,-0.032000000000
25.354238592000,-0.022000000000
25.361926480000,-0.019000000000
25.369614368000,-0.012000000000
25.377302256000,-0.007000000000
25.384990144000,-0.002000000000
25.392678032000,0.012000000000
25.400365920000,0.024000000000
25.408053808000,0.046000000000
25.415741696000,0.076000000000
25.423429584000,0.091000000000
25.431117472000,0.096000000000
25.438805360000,0.103000000000
25.446493248000,0.115000000000
25.454181162000,0.118000000000
25.461868771000,0.113000000000
25.469556380000,0.091000000000
25.477243989000,0.059000000000
25.484931598000,0.019000000000
25.492619207000,-0.022000000000
25.500306816000,-0.059000000000
25.507994425000,-0.086000000000
25.515682034000,-0.113000000000
25.523369643000,-0.135000000000
25.531057252000,-0.140000000000
25.538744861000,-0.138000000000
25.546432470000,-0.135000000000
25.554120079000,-0.130000000000
25.561807688000,-0.128000000000
25.569495297000,-0.128000000000
25.577182906000,-0.123000000000
25.584870515000,-0.118000000000
25.592558124000,-0.115000000000
25.600245733000,-0.108000000000
25.607933342000,-0.101000000000
25.615620951000,-0.103000000000
25.623308560000,-0.103000000000
25.630996169000,-0.098000000000
25.638683778000,-0.091000000000
25.646371387000,-0.086000000000
25.654058996000,-0.086000000000
25.661746605000,-0.086000000000
25.669434214000,-0.088000000000
25.677121823000,-0.096000000000
25.684809432000,-0.096000000000
25.692497041000,-0.091000000000
25.700184650000,-0.091000000000
25.707872259000,-0.088000000000
25.715559868000,-0.086000000000
25.723247477000,-0.088000000000
25.730935086000,-0.091000000000
25.738622695000,-0.088000000000
25.746310304000,-0.083000000000
25.753997913000,-0.078000000000
25.761685522000,-0.078000000000
25.769373131000,-0.081000000000
25.777060740000,-0.076000000000
25.784748349000,-0.071000000000
25.792435958000,-0.069000000000
25.800123567000,-0.071000000000
25.807811176000,-0.073000000000
25.815498785000,-0.073000000000
25.823186394000,-0.069000000000
25.830874003000,-0.061000000000
25.838561612000,-0.061000000000
25.846249221000,-0.066000000000
25.853936830000,-0.064000000000
25.861624439000,-0.059000000000
25.869312048000,-0.056000000000
25.876999657000,-0.059000000000
25.884687266000,-0.066000000000
25.892374875000,-0.071000000000
25.900062484000,-0.066000000000
25.907750093000,-0.056000000000
25.915437702000,-0.051000000000
25.923125311000,-0.059000000000
25.930812920000,-0.069000000000
25.938500529000,-0.069000000000
25.946188138000,-0.054000000000
25.953875747000,-0.041000000000
25.961563356000,-0.036000000000
25.969250965000,-0.027000000000
25.976938574000,-0.019000000000
25.984626183000,-0.039000000000
25.992313792000,-0.049000000000
26.000001401000,-0.044000000000
26.007689010000,-0.041000000000
26.015376660000,-0.046000000000
26.023064269000,-0.046000000000
26.030751878000,-0.046000000000
26.038439487000,-0.056000000000
26.046127096000,-0.076000000000
26.053814705000,-0.073000000000
26.061502314000,0.118000000000
26.069189923000,0.567000000000
26.076877532000,0.806000000000
26.084565141000,0.374000000000
26.092252750000,-0.271000000000
26.099940359000,-0.411000000000
26.107627968000,-0.224000000000
26.115315577000,-0.192000000000
26.123003186000,-0.192000000000
26.130690795000,-0.088000000000
26.138378404000,-0.046000000000
26.146066013000,-0.056000000000
26.153753622000,-0.039000000000
26.161441231000,-0.029000000000
26.169128840000,-0.039000000000
26.176816449000,-0.039000000000
26.184504058000,-0.032000000000
26.192191667000,-0.019000000000
26.199879276000,0.000000000000
26.207566885000,-0.002000000000
26.215254494000,-0.017000000000
26.222942103000,-0.012000000000
26.230629712000,0.002000000000
26.238317321000,0.009000000000
26.246004930000,0.019000000000
26.253692539000,0.032000000000
26.261380148000,0.034000000000
26.269067757000,0.041000000000
26.276755366000,0.061000000000
26.284442975000,0.083000000000
26.292130584000,0.103000000000
26.299818193000,0.120000000000
26.307505802000,0.135000000000
26.315193411000,0.150000000000
26.322881020000,0.162000000000
26.330568629000,0.172000000000
26.338256238000,0.180000000000
26.345943847000,0.167000000000
26.353631456000,0.125000000000
26.361319065000,0.083000000000
26.369006674000,0.046000000000
26.376694283000,-0.002000000000
26.384381892000,-0.059000000000
26.392069501000,-0.096000000000
26.399757110000,-0.110000000000
26.407444719000,-0.123000000000
26.415132328000,-0.135000000000
26.422819937000,-0.147000000000
26.430507546000,-0.152000000000
26.438195155000,-0.138000000000
26.445882764000,-0.125000000000
26.453570373000,-0.138000000000
26.461257982000,-0.135000000000
26.468945591000,-0.110000000000
26.476633200000,-0.110000000000
26.484320809000,-0.123000000000
26.492008418000,-0.106000000000
26.499696027000,-0.093000000000
26.507383636000,-0.098000000000
26.515071245000,-0.101000000000
26.522758854000,-0.096000000000
26.530446463000,-0.088000000000
26.538134072000,-0.081000000000
26.545821681000,-0.083000000000
26.553509290000,-0.093000000000
26.561196899000,-0.101000000000
26.568884508000,-0.098000000000
26.576572166000,-0.093000000000
26.584260054000,-0.093000000000
26.591947942000,-0.086000000000
26.599635830000,-0.069000000000
26.607323718000,-0.071000000000
26.615011606000,-0.096000000000
26.622699494000,-0.103000000000
26.630387382000,-0.093000000000
26.638075270000,-0.091000000000
26.645763158000,-0.098000000000
26.653451046000,-0.093000000000
26.661138934000,-0.083000000000
26.668826822000,-0.088000000000
26.676514710000,-0.093000000000
26.684202598000,-0.083000000000
26.691890486000,-0.061000000000
26.699578374000,-0.054000000000
26.707266262000,-0.064000000000
26.714954150000,-0.071000000000
26.722642038000,-0.071000000000
26.730329926000,-0.078000000000
26.738017814000,-0.081000000000
26.745705702000,-0.083000000000
26.753393590000,-0.091000000000
26.761081478000,-0.083000000000
26.768769366000,-0.073000000000
26.776457254000,-0.064000000000
26.784145142000,-0.049000000000
26.791833030000,-0.041000000000
26.799520918000,-0.041000000000
26.807208806000,-0.046000000000
26.814896694000,-0.066000000000
26.822584582000,-0.081000000000
26.830272470000,-0.071000000000
26.837960358000,-0.056000000000
26.845648246000,-0.054000000000
26.853336134000,-0.056000000000
26.861024022000,-0.061000000000
26.868711910000,-0.071000000000
26.876399798000,-0.091000000000
26.884087686000,-0.093000000000
26.891775574000,0.083000000000
26.899463462000,0.527000000000
26.907151350000,0.789000000000
26.914839238000,0.364000000000
26.922527126000,-0.320000000000
26.930215014000,-0.490000000000
26.937902902000,-0.281000000000
26.945590790000,-0.219000000000
26.953278678000,-0.219000000000
26.960966566000,-0.108000000000
26.968654454000,-0.051000000000
26.976342342000,-0.071000000000
26.984030230000,-0.064000000000
26.991718118000,-0.044000000000
26.999406006000,-0.046000000000
27.007093894000,-0.044000000000
27.014781782000,-0.027000000000
27.022469670000,-0.017000000000
27.030157558000,-0.014000000000
27.037845446000,-0.004000000000
27.045533334000,0.002000000000
27.053221222000,-0.004000000000
27.060909110000,-0.009000000000
27.068596998000,0.004000000000
27.076284886000,0.017000000000
27.083972774000,0.017000000000
27.091660662000,0.036000000000
27.099348550000,0.056000000000
27.107036438000,0.056000000000
27.114724326000,0.061000000000
27.122412214000,0.081000000000
27.130100102000,0.093000000000
27.137788012000,0.108000000000
27.145475551000,0.133000000000
27.153163090000,0.145000000000
27.160850629000,0.143000000000
27.168538168000,0.140000000000
27.176225707000,0.133000000000
27.183913246000,0.113000000000
27.191600785000,0.078000000000
27.199288324000,0.027000000000
27.206975863000,-0.041000000000
27.214663402000,-0.086000000000
27.222350941000,-0.103000000000
27.230038480000,-0.120000000000
27.237726019000,-0.138000000000
27.245413558000,-0.135000000000
27.253101097000,-0.135000000000
27.260788636000,-0.155000000000
27.268476175000,-0.157000000000
27.276163714000,-0.138000000000
27.283851253000,-0.133000000000
27.291538792000,-0.138000000000
27.299226331000,-0.140000000000
27.306913870000,-0.125000000000
27.314601409000,-0.106000000000
27.322288948000,-0.098000000000
27.329976487000,-0.110000000000
27.337664026000,-0.110000000000
27.345351565000,-0.101000000000
27.353039104000,-0.103000000000
27.360726643000,-0.101000000000
27.368414182000,-0.086000000000
27.376101721000,-0.088000000000
27.383789260000,-0.098000000000
27.391476799000,-0.098000000000
27.399164338000,-0.101000000000
27.406851877000,-0.103000000000
27.414539416000,-0.101000000000
27.422226955000,-0.098000000000
27.429914494000,-0.093000000000
27.437602033000,-0.086000000000
27.445289572000,-0.078000000000
27.452977111000,-0.078000000000
27.460664650000,-0.083000000000
27.468352189000,-0.093000000000
27.476039728000,-0.088000000000
27.483727267000,-0.081000000000
27.491414806000,-0.091000000000
27.499102345000,-0.096000000000
27.506789884000,-0.086000000000
27.514477423000,-0.071000000000
27.522164962000,-0.073000000000
27.529852501000,-0.071000000000
27.537540040000,-0.061000000000
27.545227579000,-0.056000000000
27.552915118000,-0.059000000000
27.560602657000,-0.059000000000
27.568290196000,-0.061000000000
27.575977735000,-0.071000000000
27.583665274000,-0.076000000000
27.591352813000,-0.069000000000
27.599040352000,-0.069000000000
27.606727891000,-0.081000000000
27.614415430000,-0.088000000000
27.622102969000,-0.083000000000
27.629790508000,-0.073000000000
27.637478047000,-0.066000000000
27.645165586000,-0.059000000000
27.652853125000,-0.041000000000
27.660540664000,-0.034000000000
27.668228203000,-0.046000000000
27.675915742000,-0.061000000000
27.683603281000,-0.064000000000
27.691290820000,-0.066000000000
27.698978427000,-0.066000000000
27.706666245000,-0.064000000000
27.714354063000,-0.061000000000
27.722041881000,-0.064000000000
27.729729699000,-0.071000000000
27.737417517000,-0.098000000000
27.745105335000,-0.083000000000
27.752793153000,0.155000000000
27.760480971000,0.623000000000
27.768168789000,0.830000000000
27.775856607000,0.394000000000
27.783544425000,-0.221000000000
27.791232243000,-0.345000000000
27.798920061000,-0.180000000000
27.806607879000,-0.175000000000
27.814295697000,-0.180000000000
27.821983515000,-0.096000000000
27.829671333000,-0.081000000000
27.837359151000,-0.103000000000
27.845046969000,-0.073000000000
27.852734787000,-0.051000000000
27.860422605000,-0.054000000000
27.868110423000,-0.049000000000
27.875798241000,-0.044000000000
27.883486059000,-0.049000000000
27.891173877000,-0.041000000000
27.898861695000,-0.036000000000
27.906549513000,-0.041000000000
27.914237331000,-0.039000000000
27.921925149000,-0.027000000000
27.929612967000,-0.019000000000
27.937300785000,-0.014000000000
27.944988603000,0.000000000000
27.952676421000,0.017000000000
27.960364239000,0.022000000000
27.968052057000,0.027000000000
27.975739875000,0.049000000000
27.983427693000,0.059000000000
27.991115511000,0.059000000000
27.998803329000,0.078000000000
28.006491147000,0.096000000000
28.014178965000,0.098000000000
28.021866783000,0.108000000000
28.029554601000,0.113000000000
28.037242419000,0.108000000000
28.044930237000,0.098000000000
28.052618055000,0.083000000000
28.060305873000,0.049000000000
28.067993691000,0.002000000000
28.075681509000,-0.041000000000
28.083369327000,-0.078000000000
28.091057145000,-0.101000000000
28.098744963000,-0.113000000000
28.106432781000,-0.118000000000
28.114120599000,-0.115000000000
28.121808417000,-0.113000000000
28.129496235000,-0.110000000000
28.137184053000,-0.101000000000
28.144871871000,-0.096000000000
28.152559689000,-0.101000000000
28.160247507000,-0.098000000000
28.167935325000,-0.088000000000
28.175623143000,-0.083000000000
28.183310961000,-0.088000000000
28.190998779000,-0.081000000000
28.198686597000,-0.073000000000
28.206374415000,-0.088000000000
28.214062233000,-0.101000000000
28.221750051000,-0.083000000000
28.229437869000,-0.071000000000
28.237125687000,-0.076000000000
28.244813505000,-0.081000000000
28.252501323000,-0.078000000000
28.260189190000,-0.071000000000
28.267876869000,-0.064000000000
28.275564548000,-0.061000000000
28.283252227000,-0.064000000000
28.290939906000,-0.064000000000
28.298627585000,-0.064000000000
28.306315264000,-0.073000000000
28.314002943000,-0.076000000000
28.321690622000,-0.066000000000
28.329378301000,-0.061000000000
28.337065980000,-0.069000000000
28.344753659000,-0.071000000000
28.352441338000,-0.071000000000
28.360129017000,-0.069000000000
28.367816696000,-0.054000000000
28.375504375000,-0.049000000000
28.383192054000,-0.066000000000
28.390879733000,-0.071000000000
28.398567412000,-0.056000000000
28.406255091000,-0.054000000000
28.413942770000,-0.071000000000
28.421630449000,-0.069000000000
28.429318128000,-0.044000000000
28.437005807000,-0.036000000000
28.444693486000,-0.061000000000
28.452381165000,-0.073000000000
28.460068844000,-0.056000000000
28.467756523000,-0.051000000000
28.475444202000,-0.061000000000
28.483131881000,-0.066000000000
28.490819560000,-0.059000000000
28.498507239000,-0.041000000000
28.506194918000,-0.032000000000
28.513882597000,-0.019000000000
28.521570276000,-0.007000000000
28.529257955000,-0.009000000000
28.536945634000,-0.029000000000
28.544633313000,-0.044000000000
28.552320992000,-0.049000000000
28.560008671000,-0.049000000000
28.567696350000,-0.041000000000
28.575384029000,-0.041000000000
28.583071708000,-0.041000000000
28.590759387000,-0.049000000000
28.598447066000,-0.076000000000
28.606134745000,-0.027000000000
28.613822424000,0.278000000000
28.621510103000,0.717000000000
28.629197782000,0.724000000000
28.636885461000,0.128000000000
28.644573140000,-0.379000000000
28.652260819000,-0.327000000000
28.659948498000,-0.160000000000
28.667636177000,-0.180000000000
28.675323856000,-0.150000000000
28.683011535000,-0.066000000000
28.690699214000,-0.064000000000
28.698386893000,-0.066000000000
28.706074572000,-0.029000000000
28.713762251000,-0.024000000000
28.721449930000,-0.039000000000
28.729137609000,-0.034000000000
28.736825288000,-0.022000000000
28.744512967000,-0.009000000000
28.752200646000,0.002000000000
28.759888325000,0.000000000000
28.767576004000,-0.007000000000
28.775263683000,-0.012000000000
28.782951362000,0.002000000000
28.790639041000,0.027000000000
28.798326720000,0.039000000000
28.806014399000,0.036000000000
28.813702078000,0.041000000000
28.821389775000,0.056000000000
28.829077314000,0.073000000000
28.836764853000,0.091000000000
28.844452392000,0.096000000000
28.852139931000,0.110000000000
28.859827470000,0.143000000000
28.867515009000,0.157000000000
28.875202548000,0.150000000000
28.882890087000,0.152000000000
28.890577626000,0.165000000000
28.898265165000,0.152000000000
28.905952704000,0.110000000000
28.913640243000,0.061000000000
28.921327782000,0.019000000000
28.929015321000,-0.024000000000
28.936702860000,-0.076000000000
28.944390399000,-0.106000000000
28.952077938000,-0.115000000000
28.959765477000,-0.133000000000
28.967453016000,-0.143000000000
28.975140555000,-0.140000000000
28.982828094000,-0.145000000000
28.990515633000,-0.145000000000
28.998203172000,-0.138000000000
29.005890711000,-0.130000000000
29.013578250000,-0.125000000000
29.021265789000,-0.128000000000
29.028953328000,-0.120000000000
29.036640867000,-0.108000000000
29.044328406000,-0.110000000000
29.052015945000,-0.108000000000
29.059703484000,-0.091000000000
29.067391023000,-0.081000000000
29.075078562000,-0.086000000000
29.082766101000,-0.096000000000
29.090453640000,-0.093000000000
29.098141179000,-0.086000000000
29.105828718000,-0.091000000000
29.113516257000,-0.096000000000
29.121203796000,-0.088000000000
29.128891335000,-0.088000000000
29.136578874000,-0.088000000000
29.144266413000,-0.083000000000
29.151953952000,-0.081000000000
29.159641491000,-0.083000000000
29.167329030000,-0.091000000000
29.175016569000,-0.091000000000
29.182704108000,-0.076000000000
29.190391647000,-0.078000000000
29.198079186000,-0.086000000000
29.205766725000,-0.076000000000
29.213454264000,-0.076000000000
29.221141803000,-0.078000000000
29.228829342000,-0.071000000000
29.236516881000,-0.066000000000
29.244204420000,-0.069000000000
29.251891959000,-0.069000000000
29.259579498000,-0.066000000000
29.267267037000,-0.064000000000
29.274954576000,-0.061000000000
29.282642115000,-0.071000000000
29.290329654000,-0.078000000000
29.298017193000,-0.073000000000
29.305704732000,-0.066000000000
29.313392271000,-0.056000000000
29.321079810000,-0.044000000000
29.328767349000,-0.027000000000
