time,LSB
0.000000000000,1.357000000000
0.007687121000,0.627000000000
0.015374242000,-0.389000000000
0.023061363000,-0.622000000000
0.030748484000,-0.279000000000
0.038435605000,-0.184000000000
0.046122726000,-0.214000000000
0.053809847000,-0.107000000000
0.061496968000,-0.075000000000
0.069184089000,-0.111000000000
0.076871210000,-0.082000000000
0.084558331000,-0.053000000000
0.092245452000,-0.060000000000
0.099932573000,-0.053000000000
0.107619694000,-0.036000000000
0.115306883000,-0.031000000000
0.122993586000,-0.024000000000
0.130680289000,-0.009000000000
0.138366992000,-0.002000000000
0.146053695000,0.004000000000
0.153740398000,0.014000000000
0.161427101000,0.024000000000
0.169113804000,0.034000000000
0.176800507000,0.043000000000
0.184487210000,0.051000000000
0.192173913000,0.060000000000
0.199860616000,0.070000000000
0.207547319000,0.080000000000
0.215234022000,0.090000000000
0.222920725000,0.099000000000
0.230607428000,0.111000000000
0.238294131000,0.124000000000
0.245980834000,0.138000000000
0.253667537000,0.150000000000
0.261354240000,0.160000000000
0.269040943000,0.170000000000
0.276727646000,0.175000000000
0.284414349000,0.177000000000
0.292101052000,0.175000000000
0.299787755000,0.172000000000
0.307474458000,0.167000000000
0.315161161000,0.150000000000
0.322847864000,0.126000000000
0.330534567000,0.092000000000
0.338221270000,0.048000000000
0.345907973000,0.004000000000
0.353594676000,-0.038000000000
0.361281379000,-0.075000000000
0.368968082000,-0.104000000000
0.376654785000,-0.124000000000
0.384341488000,-0.138000000000
0.392028191000,-0.143000000000
0.399714894000,-0.143000000000
0.407401597000,-0.143000000000
0.415088300000,-0.143000000000
0.422775003000,-0.141000000000
0.430461706000,-0.136000000000
0.438148409000,-0.133000000000
0.445835112000,-0.131000000000
0.453521815000,-0.126000000000
0.461208518000,-0.124000000000
0.468895221000,-0.124000000000
0.476581924000,-0.121000000000
0.484268627000,-0.124000000000
0.491955330000,-0.124000000000
0.499642033000,-0.124000000000
0.507328736000,-0.124000000000
0.515015439000,-0.121000000000
0.522702142000,-0.121000000000
0.530388845000,-0.121000000000
0.538075548000,-0.119000000000
0.545762251000,-0.119000000000
0.553448954000,-0.116000000000
0.561135657000,-0.114000000000
0.568822360000,-0.114000000000
0.576509063000,-0.109000000000
0.584195766000,-0.107000000000
0.591882469000,-0.104000000000
0.599569172000,-0.102000000000
0.607255875000,-0.097000000000
0.614942578000,-0.094000000000
0.622629281000,-0.090000000000
0.630315984000,-0.087000000000
0.638002687000,-0.087000000000
0.645689390000,-0.085000000000
0.653376093000,-0.082000000000
0.661062796000,-0.080000000000
0.668749499000,-0.080000000000
0.676436262000,-0.077000000000
0.684123383000,-0.075000000000
0.691810504000,-0.070000000000
0.699497625000,-0.068000000000
0.707184746000,-0.068000000000
0.714871867000,-0.065000000000
0.722558988000,-0.063000000000
0.730246109000,-0.060000000000
0.737933230000,-0.060000000000
0.745620351000,-0.060000000000
0.753307472000,-0.058000000000
0.760994593000,-0.058000000000
0.768681714000,-0.055000000000
0.776368835000,-0.053000000000
0.784055956000,-0.051000000000
0.791743077000,-0.048000000000
0.799430198000,-0.046000000000
0.807117319000,-0.043000000000
0.814804440000,-0.043000000000
0.822491561000,-0.043000000000
0.830178682000,-0.046000000000
0.837865803000,-0.043000000000
0.845552924000,-0.043000000000
0.853240045000,-0.041000000000
0.860927166000,-0.038000000000
0.868614287000,-0.038000000000
0.876301408000,-0.043000000000
0.883988529000,-0.043000000000
0.891675650000,-0.041000000000
0.899362771000,-0.031000000000
0.907049892000,-0.014000000000
0.914737013000,-0.002000000000
0.922424134000,-0.004000000000
0.930111255000,-0.004000000000
0.937798376000,-0.009000000000
0.945485497000,-0.031000000000
0.953172618000,-0.046000000000
0.960859739000,-0.043000000000
0.968546860000,-0.041000000000
0.976233981000,-0.043000000000
0.983921102000,-0.038000000000
0.991608223000,-0.038000000000
0.999295344000,-0.055000000000
1.006982465000,-0.090000000000
1.014669586000,-0.024000000000
1.022356707000,0.428000000000
1.030043828000,1.148000000000
1.037730949000,1.309000000000
1.045418070000,0.457000000000
1.053105191000,-0.532000000000
1.060792312000,-0.644000000000
1.068479433000,-0.284000000000
1.076166554000,-0.216000000000
1.083853675000,-0.211000000000
1.091540796000,-0.082000000000
1.099227917000,-0.063000000000
1.106915038000,-0.094000000000
1.114602159000,-0.060000000000
1.122289280000,-0.036000000000
1.129976401000,-0.046000000000
1.137663522000,-0.036000000000
1.145350643000,-0.019000000000
1.153037764000,-0.014000000000
1.160724885000,-0.009000000000
1.168412006000,0.000000000000
1.176099127000,0.009000000000
1.183786248000,0.017000000000
1.191473369000,0.026000000000
1.199160490000,0.036000000000
1.206847611000,0.043000000000
1.214534732000,0.051000000000
1.222221853000,0.060000000000
1.229908974000,0.068000000000
1.237596159000,0.080000000000
1.245282862000,0.092000000000
1.252969565000,0.102000000000
1.260656268000,0.111000000000
1.268342971000,0.128000000000
1.276029674000,0.145000000000
1.283716377000,0.160000000000
1.291403080000,0.170000000000
1.299089783000,0.184000000000
1.306776486000,0.197000000000
1.314463189000,0.201000000000
1.322149892000,0.199000000000
1.329836595000,0.199000000000
1.337523298000,0.199000000000
1.345210001000,0.184000000000
1.352896704000,0.155000000000
1.360583407000,0.119000000000
1.368270110000,0.072000000000
1.375956813000,0.014000000000
1.383643516000,-0.043000000000
1.391330219000,-0.090000000000
1.399016922000,-0.124000000000
1.406703625000,-0.150000000000
1.414390328000,-0.165000000000
1.422077031000,-0.172000000000
1.429763734000,-0.177000000000
1.437450437000,-0.177000000000
1.445137140000,-0.170000000000
1.452823843000,-0.163000000000
1.460510546000,-0.163000000000
1.468197249000,-0.160000000000
1.475883952000,-0.153000000000
1.483570655000,-0.148000000000
1.491257358000,-0.150000000000
1.498944061000,-0.150000000000
1.506630764000,-0.145000000000
1.514317467000,-0.141000000000
1.522004170000,-0.145000000000
1.529690873000,-0.145000000000
1.537377576000,-0.145000000000
1.545064279000,-0.143000000000
1.552750982000,-0.145000000000
1.560437685000,-0.148000000000
1.568124388000,-0.145000000000
1.575811091000,-0.143000000000
1.583497794000,-0.141000000000
1.591184497000,-0.141000000000
1.598871200000,-0.138000000000
1.606557903000,-0.133000000000
1.614244606000,-0.131000000000
1.621931309000,-0.131000000000
1.629618012000,-0.131000000000
1.637304715000,-0.126000000000
1.644991418000,-0.121000000000
1.652678121000,-0.116000000000
1.660364824000,-0.116000000000
1.668051527000,-0.116000000000
1.675738230000,-0.111000000000
1.683424933000,-0.107000000000
1.691111636000,-0.107000000000
1.698798339000,-0.107000000000
1.706485042000,-0.104000000000
1.714171745000,-0.097000000000
1.721858448000,-0.094000000000
1.729545151000,-0.097000000000
1.737231854000,-0.094000000000
1.744918557000,-0.092000000000
1.752605260000,-0.094000000000
1.760291963000,-0.097000000000
1.767978666000,-0.092000000000
1.775665369000,-0.090000000000
1.783352072000,-0.085000000000
1.791038775000,-0.065000000000
1.798725538000,-0.051000000000
1.806412659000,-0.048000000000
1.814099780000,-0.043000000000
1.821786901000,-0.048000000000
1.829474022000,-0.075000000000
1.837161143000,-0.085000000000
1.844848264000,-0.077000000000
1.852535385000,-0.085000000000
1.860222506000,-0.087000000000
1.867909627000,-0.077000000000
1.875596748000,-0.075000000000
1.883283869000,-0.085000000000
1.890970990000,-0.099000000000
1.898658111000,-0.012000000000
1.906345232000,0.452000000000
1.914032353000,1.189000000000
1.921719474000,1.313000000000
1.929406595000,0.321000000000
1.937093716000,-0.749000000000
1.944780837000,-0.776000000000
1.952467958000,-0.357000000000
1.960155079000,-0.311000000000
1.967842200000,-0.282000000000
1.975529321000,-0.094000000000
1.983216442000,-0.058000000000
1.990903563000,-0.104000000000
1.998590684000,-0.068000000000
2.006277805000,-0.036000000000
2.013964926000,-0.048000000000
2.021652047000,-0.036000000000
2.029339168000,-0.017000000000
2.037026289000,-0.014000000000
2.044713410000,-0.009000000000
2.052400531000,0.000000000000
2.060087652000,0.007000000000
2.067774773000,0.014000000000
2.075461894000,0.026000000000
2.083149015000,0.036000000000
2.090836136000,0.043000000000
2.098523257000,0.055000000000
2.106210378000,0.065000000000
2.113897499000,0.075000000000
2.121584620000,0.087000000000
2.129271741000,0.102000000000
2.136958862000,0.119000000000
2.144645983000,0.133000000000
2.152333104000,0.153000000000
2.160020225000,0.172000000000
2.167707346000,0.194000000000
2.175394467000,0.214000000000
2.183081588000,0.231000000000
2.190768709000,0.243000000000
2.198455830000,0.250000000000
2.206142951000,0.253000000000
2.213830072000,0.250000000000
2.221517193000,0.240000000000
2.229204314000,0.216000000000
2.236891435000,0.175000000000
2.244578556000,0.116000000000
2.252265677000,0.048000000000
2.259952798000,-0.021000000000
2.267639919000,-0.085000000000
2.275327040000,-0.136000000000
2.283014161000,-0.170000000000
2.290701282000,-0.192000000000
2.298388403000,-0.204000000000
2.306075524000,-0.206000000000
2.313762645000,-0.204000000000
2.321449766000,-0.197000000000
2.329136887000,-0.189000000000
2.336824008000,-0.182000000000
2.344511129000,-0.175000000000
2.352198250000,-0.170000000000
2.359885435000,-0.165000000000
2.367572138000,-0.163000000000
2.375258841000,-0.158000000000
2.382945544000,-0.155000000000
2.390632247000,-0.155000000000
2.398318950000,-0.158000000000
2.406005653000,-0.158000000000
2.413692356000,-0.158000000000
2.421379059000,-0.160000000000
2.429065762000,-0.160000000000
2.436752465000,-0.158000000000
2.444439168000,-0.155000000000
2.452125871000,-0.153000000000
2.459812574000,-0.153000000000
2.467499277000,-0.150000000000
2.475185980000,-0.148000000000
2.482872683000,-0.145000000000
2.490559386000,-0.143000000000
2.498246089000,-0.138000000000
2.505932792000,-0.136000000000
2.513619495000,-0.133000000000
2.521306198000,-0.131000000000
2.528992901000,-0.126000000000
2.536679604000,-0.124000000000
2.544366307000,-0.121000000000
2.552053010000,-0.119000000000
2.559739713000,-0.116000000000
2.567426416000,-0.114000000000
2.575113119000,-0.111000000000
2.582799822000,-0.107000000000
2.590486525000,-0.104000000000
2.598173228000,-0.109000000000
2.605859931000,-0.111000000000
2.613546634000,-0.111000000000
2.621233337000,-0.104000000000
2.628920040000,-0.090000000000
2.636606743000,-0.070000000000
2.644293446000,-0.058000000000
2.651980149000,-0.053000000000
2.659666852000,-0.048000000000
2.667353555000,-0.053000000000
2.675040258000,-0.075000000000
2.682726961000,-0.090000000000
2.690413664000,-0.090000000000
2.698100367000,-0.090000000000
2.705787070000,-0.087000000000
2.713473773000,-0.082000000000
2.721160476000,-0.080000000000
2.728847179000,-0.092000000000
2.736533882000,-0.128000000000
2.744220585000,-0.097000000000
2.751907288000,0.299000000000
2.759593991000,1.065000000000
2.767280694000,1.423000000000
2.774967397000,0.708000000000
2.782654100000,-0.433000000000
2.790340803000,-0.759000000000
2.798027506000,-0.369000000000
2.805714209000,-0.226000000000
2.813400912000,-0.262000000000
2.821087615000,-0.138000000000
2.828774318000,-0.087000000000
2.836461021000,-0.131000000000
2.844147724000,-0.109000000000
2.851834427000,-0.075000000000
2.859521130000,-0.082000000000
2.867207833000,-0.075000000000
2.874894536000,-0.055000000000
2.882581239000,-0.051000000000
2.890267942000,-0.046000000000
2.897954645000,-0.034000000000
2.905641348000,-0.026000000000
2.913328051000,-0.017000000000
2.921014814000,-0.007000000000
2.928701935000,0.000000000000
2.936389056000,0.007000000000
2.944076177000,0.017000000000
2.951763298000,0.029000000000
2.959450419000,0.041000000000
2.967137540000,0.053000000000
2.974824661000,0.065000000000
2.982511782000,0.080000000000
2.990198903000,0.094000000000
2.997886024000,0.111000000000
3.005573145000,0.126000000000
3.013260266000,0.145000000000
3.020947387000,0.163000000000
3.028634508000,0.177000000000
3.036321629000,0.189000000000
3.044008750000,0.197000000000
3.051695871000,0.201000000000
3.059382992000,0.199000000000
3.067070113000,0.194000000000
3.074757234000,0.180000000000
3.082444355000,0.143000000000
3.090131476000,0.097000000000
3.097818597000,0.041000000000
3.105505718000,-0.017000000000
3.113192839000,-0.070000000000
3.120879960000,-0.114000000000
3.128567081000,-0.145000000000
3.136254202000,-0.167000000000
3.143941323000,-0.180000000000
3.151628444000,-0.182000000000
3.159315565000,-0.182000000000
3.167002686000,-0.182000000000
3.174689807000,-0.177000000000
3.182376928000,-0.172000000000
3.190064049000,-0.167000000000
3.197751170000,-0.163000000000
3.205438291000,-0.158000000000
3.213125412000,-0.155000000000
3.220812533000,-0.153000000000
3.228499654000,-0.150000000000
3.236186775000,-0.148000000000
3.243873896000,-0.148000000000
3.251561017000,-0.148000000000
3.259248138000,-0.145000000000
3.266935259000,-0.143000000000
3.274622380000,-0.143000000000
3.282309501000,-0.143000000000
3.289996622000,-0.141000000000
3.297683743000,-0.141000000000
3.305370864000,-0.138000000000
3.313057985000,-0.136000000000
3.320745106000,-0.133000000000
3.328432227000,-0.131000000000
3.336119348000,-0.128000000000
3.343806469000,-0.126000000000
3.351493590000,-0.124000000000
3.359180711000,-0.121000000000
3.366867832000,-0.116000000000
3.374554953000,-0.114000000000
3.382242074000,-0.111000000000
3.389929195000,-0.109000000000
3.397616316000,-0.107000000000
3.405303437000,-0.104000000000
3.412990558000,-0.102000000000
3.420677679000,-0.097000000000
3.428364800000,-0.097000000000
3.436051921000,-0.094000000000
3.443739042000,-0.092000000000
3.451426163000,-0.090000000000
3.459113284000,-0.087000000000
3.466800405000,-0.085000000000
3.474487526000,-0.085000000000
3.482174715000,-0.082000000000
3.489861836000,-0.082000000000
3.497548957000,-0.080000000000
3.505236078000,-0.077000000000
3.512923199000,-0.075000000000
3.520610320000,-0.075000000000
3.528297441000,-0.077000000000
3.535984562000,-0.080000000000
3.543671683000,-0.082000000000
3.551358804000,-0.080000000000
3.559045925000,-0.075000000000
3.566733046000,-0.060000000000
3.574420167000,-0.038000000000
3.582107288000,-0.034000000000
3.589794409000,-0.036000000000
3.597481530000,-0.034000000000
3.605168651000,-0.041000000000
3.612855772000,-0.065000000000
3.620542893000,-0.075000000000
3.628230014000,-0.070000000000
3.635917135000,-0.075000000000
3.643604256000,-0.080000000000
3.651291377000,-0.075000000000
3.658978498000,-0.072000000000
3.666665619000,-0.087000000000
3.674352740000,-0.128000000000
3.682039861000,-0.058000000000
3.689726982000,0.418000000000
3.697414103000,1.160000000000
3.705101224000,1.352000000000
3.712788345000,0.520000000000
3.720475466000,-0.510000000000
3.728162587000,-0.642000000000
3.735849708000,-0.262000000000
3.743536829000,-0.206000000000
3.751223950000,-0.233000000000
3.758911071000,-0.119000000000
3.766598192000,-0.099000000000
3.774285313000,-0.133000000000
3.781972434000,-0.099000000000
3.789659555000,-0.075000000000
3.797346676000,-0.082000000000
3.805033797000,-0.072000000000
3.812720918000,-0.055000000000
3.820408039000,-0.051000000000
3.828095160000,-0.043000000000
3.835782281000,-0.031000000000
3.843469402000,-0.021000000000
3.851156523000,-0.014000000000
3.858843644000,-0.004000000000
3.866530765000,0.004000000000
3.874217886000,0.014000000000
3.881905007000,0.024000000000
3.889592128000,0.036000000000
3.897279249000,0.046000000000
3.904966370000,0.055000000000
3.912653491000,0.068000000000
3.920340612000,0.080000000000
3.928027733000,0.092000000000
3.935714854000,0.107000000000
3.943401975000,0.121000000000
3.951089096000,0.136000000000
3.958776217000,0.150000000000
3.966463338000,0.163000000000
3.974150459000,0.172000000000
3.981837580000,0.180000000000
3.989524701000,0.184000000000
3.997211822000,0.184000000000
4.004898943000,0.180000000000
4.012586064000,0.170000000000
4.020273185000,0.145000000000
4.027960306000,0.107000000000
4.035647427000,0.058000000000
4.043334612000,0.009000000000
4.051021524000,-0.036000000000
4.058708436000,-0.077000000000
4.066395348000,-0.109000000000
4.074082260000,-0.131000000000
4.081769172000,-0.145000000000
4.089456084000,-0.153000000000
4.097142996000,-0.153000000000
4.104829908000,-0.153000000000
4.112516820000,-0.150000000000
4.120203732000,-0.148000000000
4.127890644000,-0.145000000000
4.135577556000,-0.143000000000
4.143264468000,-0.143000000000
4.150951380000,-0.141000000000
4.158638292000,-0.138000000000
4.166325204000,-0.138000000000
4.174012116000,-0.133000000000
4.181699028000,-0.133000000000
4.189385940000,-0.133000000000
4.197072852000,-0.133000000000
4.204759764000,-0.133000000000
4.212446676000,-0.133000000000
4.220133588000,-0.133000000000
4.227820500000,-0.131000000000
4.235507412000,-0.128000000000
4.243194324000,-0.128000000000
4.250881236000,-0.126000000000
4.258568148000,-0.124000000000
4.266255060000,-0.121000000000
4.273941972000,-0.119000000000
4.281628884000,-0.114000000000
4.289315796000,-0.111000000000
4.297002708000,-0.109000000000
4.304689620000,-0.107000000000
4.312376532000,-0.104000000000
4.320063444000,-0.104000000000
4.327750356000,-0.102000000000
4.335437268000,-0.097000000000
4.343124180000,-0.094000000000
4.350811092000,-0.090000000000
4.358498004000,-0.087000000000
4.366184916000,-0.085000000000
4.373871828000,-0.085000000000
4.381558740000,-0.085000000000
4.389245652000,-0.080000000000
4.396932564000,-0.077000000000
4.404619476000,-0.075000000000
4.412306388000,-0.075000000000
4.419993300000,-0.075000000000
4.427680212000,-0.072000000000
4.435367124000,-0.068000000000
4.443054036000,-0.068000000000
4.450740948000,-0.068000000000
4.458427860000,-0.065000000000
4.466114772000,-0.065000000000
4.473801684000,-0.065000000000
4.481488596000,-0.063000000000
4.489175508000,-0.060000000000
4.496862420000,-0.060000000000
4.504549332000,-0.058000000000
4.512236244000,-0.055000000000
4.519923156000,-0.053000000000
4.527610068000,-0.055000000000
4.535296980000,-0.053000000000
4.542983892000,-0.051000000000
4.550670804000,-0.053000000000
4.558357716000,-0.051000000000
4.566044628000,-0.051000000000
4.573731540000,-0.051000000000
4.581418452000,-0.048000000000
4.589105364000,-0.048000000000
4.596792276000,-0.048000000000
4.604479252000,-0.046000000000
4.612166164000,-0.043000000000
4.619853076000,-0.043000000000
4.627539988000,-0.038000000000
4.635226900000,-0.038000000000
4.642913812000,-0.041000000000
4.650600724000,-0.046000000000
4.658287636000,-0.046000000000
4.665974548000,-0.051000000000
4.673661460000,-0.053000000000
4.681348372000,-0.051000000000
4.689035284000,-0.043000000000
4.696722196000,-0.031000000000
4.704409108000,-0.014000000000
4.712096020000,-0.012000000000
4.719782932000,-0.012000000000
4.727469844000,-0.014000000000
4.735156756000,-0.029000000000
4.742843668000,-0.048000000000
4.750530580000,-0.055000000000
4.758217492000,-0.053000000000
4.765904404000,-0.053000000000
4.773591316000,-0.051000000000
4.781278228000,-0.051000000000
4.788965140000,-0.055000000000
4.796652052000,-0.077000000000
4.804338964000,-0.114000000000
4.812025876000,0.034000000000
4.819712788000,0.627000000000
4.827399700000,1.294000000000
4.835086612000,1.163000000000
4.842773524000,0.131000000000
4.850460436000,-0.681000000000
4.858147348000,-0.545000000000
4.865834260000,-0.223000000000
4.873521172000,-0.243000000000
4.881208084000,-0.199000000000
4.888894996000,-0.082000000000
4.896581908000,-0.099000000000
4.904268820000,-0.116000000000
4.911955732000,-0.075000000000
4.919642644000,-0.065000000000
4.927329556000,-0.070000000000
4.935016468000,-0.051000000000
4.942703380000,-0.041000000000
4.950390292000,-0.041000000000
4.958077204000,-0.031000000000
4.965764116000,-0.019000000000
4.973451028000,-0.009000000000
4.981137940000,0.000000000000
4.988824852000,0.007000000000
4.996511764000,0.014000000000
5.004198676000,0.019000000000
5.011885588000,0.029000000000
5.019572500000,0.036000000000
5.027259412000,0.048000000000
5.034946324000,0.058000000000
5.042633236000,0.065000000000
5.050320148000,0.080000000000
5.058007060000,0.097000000000
5.065693972000,0.107000000000
5.073380884000,0.116000000000
5.081067796000,0.133000000000
5.088754708000,0.145000000000
5.096441620000,0.153000000000
5.104128532000,0.158000000000
5.111815444000,0.167000000000
5.119502356000,0.175000000000
5.127189268000,0.177000000000
5.134876180000,0.172000000000
5.142563092000,0.165000000000
5.150250004000,0.150000000000
5.157936916000,0.119000000000
5.165623888000,0.077000000000
5.173310940000,0.031000000000
5.180997992000,-0.017000000000
5.188685044000,-0.063000000000
5.196372096000,-0.099000000000
5.204059148000,-0.124000000000
5.211746200000,-0.138000000000
5.219433252000,-0.150000000000
5.227120304000,-0.153000000000
5.234807356000,-0.153000000000
5.242494408000,-0.153000000000
5.250181460000,-0.150000000000
5.257868512000,-0.145000000000
5.265555564000,-0.141000000000
5.273242616000,-0.141000000000
5.280929668000,-0.138000000000
5.288616720000,-0.136000000000
5.296303772000,-0.133000000000
5.303990824000,-0.136000000000
5.311677876000,-0.136000000000
5.319364928000,-0.138000000000
5.327051980000,-0.138000000000
5.334739032000,-0.138000000000
5.342426084000,-0.138000000000
5.350113136000,-0.141000000000
5.357800188000,-0.141000000000
5.365487240000,-0.138000000000
5.373174292000,-0.136000000000
5.380861344000,-0.136000000000
5.388548396000,-0.133000000000
5.396235448000,-0.131000000000
5.403922500000,-0.128000000000
5.411609552000,-0.128000000000
5.419296604000,-0.126000000000
5.426983656000,-0.124000000000
5.434670708000,-0.121000000000
5.442357760000,-0.119000000000
5.450044812000,-0.116000000000
5.457731864000,-0.111000000000
5.465418916000,-0.109000000000
5.473105968000,-0.107000000000
5.480793020000,-0.104000000000
5.488480072000,-0.102000000000
5.496167124000,-0.099000000000
5.503854176000,-0.097000000000
5.511541228000,-0.094000000000
5.519228280000,-0.094000000000
5.526915332000,-0.092000000000
5.534602384000,-0.090000000000
5.542289436000,-0.087000000000
5.549976488000,-0.087000000000
5.557663540000,-0.087000000000
5.565350592000,-0.085000000000
5.573037644000,-0.082000000000
5.580724696000,-0.077000000000
5.588411748000,-0.077000000000
5.596098800000,-0.077000000000
5.603785852000,-0.077000000000
5.611472904000,-0.075000000000
5.619159956000,-0.072000000000
5.626847008000,-0.070000000000
5.634534060000,-0.068000000000
5.642221112000,-0.068000000000
5.649908164000,-0.065000000000
5.657595216000,-0.065000000000
5.665282268000,-0.065000000000
5.672969320000,-0.063000000000
5.680656372000,-0.063000000000
5.688343424000,-0.068000000000
5.696030476000,-0.070000000000
5.703717528000,-0.068000000000
5.711404580000,-0.060000000000
5.719091632000,-0.048000000000
5.726778702000,-0.029000000000
5.734465475000,-0.021000000000
5.742152248000,-0.021000000000
5.749839021000,-0.019000000000
5.757525794000,-0.034000000000
5.765212567000,-0.055000000000
5.772899340000,-0.060000000000
5.780586113000,-0.058000000000
5.788272886000,-0.060000000000
5.795959659000,-0.060000000000
5.803646432000,-0.058000000000
5.811333205000,-0.058000000000
5.819019978000,-0.075000000000
5.826706751000,-0.109000000000
5.834393524000,0.000000000000
5.842080297000,0.542000000000
5.849767070000,1.262000000000
5.857453843000,1.275000000000
5.865140616000,0.289000000000
5.872827389000,-0.659000000000
5.880514162000,-0.625000000000
5.888200935000,-0.255000000000
5.895887708000,-0.245000000000
5.903574481000,-0.223000000000
5.911261254000,-0.087000000000
5.918948027000,-0.090000000000
5.926634800000,-0.119000000000
5.934321573000,-0.077000000000
5.942008346000,-0.060000000000
5.949695119000,-0.070000000000
5.957381892000,-0.055000000000
5.965068665000,-0.041000000000
5.972755438000,-0.038000000000
5.980442211000,-0.031000000000
5.988128984000,-0.019000000000
5.995815757000,-0.012000000000
6.003502530000,-0.007000000000
6.011189303000,0.004000000000
6.018876076000,0.014000000000
6.026562849000,0.021000000000
6.034249622000,0.031000000000
6.041936395000,0.041000000000
6.049623168000,0.053000000000
6.057309941000,0.060000000000
6.064996714000,0.072000000000
6.072683487000,0.085000000000
6.080370260000,0.097000000000
6.088057033000,0.109000000000
6.095743806000,0.126000000000
6.103430579000,0.141000000000
6.111117352000,0.155000000000
6.118804125000,0.170000000000
6.126490898000,0.180000000000
6.134177671000,0.184000000000
6.141864444000,0.187000000000
6.149551217000,0.187000000000
6.157237990000,0.184000000000
6.164924763000,0.170000000000
6.172611536000,0.143000000000
6.180298309000,0.102000000000
6.187985082000,0.053000000000
6.195671855000,-0.002000000000
6.203358628000,-0.053000000000
6.211045401000,-0.097000000000
6.218732174000,-0.128000000000
6.226418947000,-0.153000000000
6.234105720000,-0.167000000000
6.241792493000,-0.172000000000
6.249479266000,-0.172000000000
6.257166039000,-0.170000000000
6.264852812000,-0.165000000000
6.272539585000,-0.160000000000
6.280226358000,-0.153000000000
6.287913164000,-0.148000000000
6.295600285000,-0.143000000000
6.303287406000,-0.141000000000
6.310974527000,-0.138000000000
6.318661648000,-0.138000000000
6.326348769000,-0.136000000000
6.334035890000,-0.136000000000
6.341723011000,-0.136000000000
6.349410132000,-0.136000000000
6.357097253000,-0.136000000000
6.364784374000,-0.136000000000
6.372471495000,-0.136000000000
6.380158616000,-0.136000000000
6.387845737000,-0.133000000000
6.395532858000,-0.133000000000
6.403219979000,-0.131000000000
6.410907100000,-0.128000000000
6.418594221000,-0.126000000000
6.426281342000,-0.124000000000
6.433968463000,-0.121000000000
6.441655584000,-0.119000000000
6.449342705000,-0.116000000000
6.457029826000,-0.114000000000
6.464716947000,-0.111000000000
6.472404068000,-0.109000000000
6.480091189000,-0.107000000000
6.487778310000,-0.107000000000
6.495465431000,-0.104000000000
6.503152552000,-0.099000000000
6.510839673000,-0.099000000000
6.518526794000,-0.097000000000
6.526213915000,-0.094000000000
6.533901036000,-0.092000000000
6.541588157000,-0.090000000000
6.549275278000,-0.090000000000
6.556962399000,-0.087000000000
6.564649520000,-0.085000000000
6.572336641000,-0.085000000000
6.580023762000,-0.082000000000
6.587710883000,-0.082000000000
6.595398004000,-0.080000000000
6.603085125000,-0.077000000000
6.610772246000,-0.077000000000
6.618459367000,-0.075000000000
6.626146488000,-0.072000000000
6.633833609000,-0.072000000000
6.641520730000,-0.070000000000
6.649207851000,-0.070000000000
6.656894972000,-0.068000000000
6.664582093000,-0.068000000000
6.672269214000,-0.065000000000
6.679956335000,-0.063000000000
6.687643456000,-0.063000000000
6.695330577000,-0.060000000000
6.703017698000,-0.060000000000
6.710704819000,-0.060000000000
6.718391940000,-0.058000000000
6.726079061000,-0.055000000000
6.733766182000,-0.055000000000
6.741453303000,-0.053000000000
6.749140424000,-0.053000000000
6.756827545000,-0.053000000000
6.764514666000,-0.053000000000
6.772201787000,-0.053000000000
6.779888908000,-0.051000000000
6.787576029000,-0.048000000000
6.795263150000,-0.048000000000
6.802950271000,-0.048000000000
6.810637392000,-0.046000000000
6.818324513000,-0.046000000000
6.826011634000,-0.048000000000
6.833698755000,-0.046000000000
6.841385876000,-0.043000000000
6.849073065000,-0.046000000000
6.856760186000,-0.046000000000
6.864447307000,-0.043000000000
6.872134428000,-0.043000000000
6.879821549000,-0.043000000000
6.887508670000,-0.041000000000
6.895195791000,-0.041000000000
6.902882912000,-0.043000000000
6.910570033000,-0.041000000000
6.918257154000,-0.041000000000
6.925944275000,-0.043000000000
6.933631396000,-0.043000000000
6.941318517000,-0.041000000000
6.949005638000,-0.041000000000
6.956692759000,-0.046000000000
6.964379880000,-0.053000000000
6.972067001000,-0.053000000000
6.979754122000,-0.048000000000
6.987441243000,-0.041000000000
6.995128364000,-0.021000000000
7.002815485000,-0.009000000000
7.010502606000,-0.012000000000
7.018189727000,-0.012000000000
7.025876848000,-0.012000000000
7.033563969000,-0.034000000000
7.041251090000,-0.051000000000
7.048938211000,-0.053000000000
7.056625332000,-0.051000000000
7.064312453000,-0.053000000000
7.071999574000,-0.051000000000
7.079686695000,-0.048000000000
7.087373816000,-0.060000000000
7.095060937000,-0.104000000000
7.102748058000,-0.092000000000
7.110435179000,0.262000000000
7.118122300000,0.985000000000
7.125809421000,1.384000000000
7.133496542000,0.817000000000
7.141183663000,-0.257000000000
7.148870784000,-0.656000000000
7.156557905000,-0.313000000000
7.164245026000,-0.165000000000
7.171932147000,-0.233000000000
7.179619268000,-0.143000000000
7.187306389000,-0.090000000000
7.194993510000,-0.128000000000
7.202680631000,-0.109000000000
7.210367752000,-0.077000000000
7.218054873000,-0.080000000000
7.225741994000,-0.075000000000
7.233429115000,-0.055000000000
7.241116236000,-0.051000000000
7.248803357000,-0.046000000000
7.256490478000,-0.034000000000
7.264177599000,-0.024000000000
7.271864720000,-0.019000000000
7.279551841000,-0.009000000000
7.287238962000,0.000000000000
7.294926083000,0.009000000000
7.302613204000,0.017000000000
7.310300325000,0.026000000000
7.317987446000,0.036000000000
7.325674567000,0.043000000000
7.333361688000,0.055000000000
7.341048809000,0.065000000000
7.348735930000,0.072000000000
7.356423051000,0.082000000000
7.364110172000,0.094000000000
7.371797293000,0.104000000000
7.379484414000,0.116000000000
7.387171535000,0.124000000000
7.394858656000,0.133000000000
7.402545777000,0.141000000000
7.410232962000,0.145000000000
7.417919874000,0.148000000000
7.425606786000,0.148000000000
7.433293698000,0.145000000000
7.440980610000,0.136000000000
7.448667522000,0.119000000000
7.456354434000,0.092000000000
7.464041346000,0.055000000000
7.471728258000,0.014000000000
7.479415170000,-0.024000000000
7.487102082000,-0.063000000000
7.494788994000,-0.092000000000
7.502475906000,-0.114000000000
7.510162818000,-0.131000000000
7.517849730000,-0.141000000000
7.525536642000,-0.143000000000
7.533223554000,-0.143000000000
7.540910466000,-0.143000000000
7.548597378000,-0.141000000000
7.556284290000,-0.138000000000
7.563971202000,-0.136000000000
7.571658114000,-0.133000000000
7.579345026000,-0.131000000000
7.587031938000,-0.128000000000
7.594718850000,-0.128000000000
7.602405762000,-0.128000000000
7.610092674000,-0.128000000000
7.617779586000,-0.128000000000
7.625466498000,-0.128000000000
7.633153410000,-0.128000000000
7.640840322000,-0.128000000000
7.648527234000,-0.128000000000
7.656214146000,-0.128000000000
7.663901058000,-0.128000000000
7.671587970000,-0.126000000000
7.679274882000,-0.126000000000
7.686961794000,-0.124000000000
7.694648706000,-0.121000000000
7.702335618000,-0.121000000000
7.710022530000,-0.119000000000
7.717709442000,-0.116000000000
7.725396354000,-0.111000000000
7.733083266000,-0.109000000000
7.740770178000,-0.107000000000
7.748457090000,-0.104000000000
7.756144002000,-0.102000000000
7.763830914000,-0.099000000000
7.771517826000,-0.097000000000
7.779204738000,-0.094000000000
7.786891650000,-0.092000000000
7.794578562000,-0.092000000000
7.802265474000,-0.090000000000
7.809952386000,-0.087000000000
7.817639298000,-0.087000000000
7.825326210000,-0.085000000000
7.833013122000,-0.082000000000
7.840700034000,-0.082000000000
7.848386946000,-0.080000000000
7.856073858000,-0.080000000000
7.863760770000,-0.077000000000
7.871447682000,-0.077000000000
7.879134594000,-0.075000000000
7.886821506000,-0.075000000000
7.894508418000,-0.072000000000
7.902195330000,-0.070000000000
7.909882242000,-0.070000000000
7.917569154000,-0.070000000000
7.925256066000,-0.068000000000
7.932942978000,-0.065000000000
7.940629890000,-0.065000000000
7.948316802000,-0.063000000000
7.956003714000,-0.063000000000
7.963690626000,-0.063000000000
7.971377602000,-0.060000000000
7.979064514000,-0.060000000000
7.986751426000,-0.058000000000
7.994438338000,-0.058000000000
8.002125250000,-0.055000000000
8.009812162000,-0.055000000000
8.017499074000,-0.055000000000
8.025185986000,-0.055000000000
8.032872898000,-0.053000000000
8.040559810000,-0.053000000000
8.048246722000,-0.051000000000
8.055933634000,-0.051000000000
8.063620546000,-0.053000000000
8.071307458000,-0.053000000000
8.078994370000,-0.051000000000
8.086681282000,-0.051000000000
8.094368194000,-0.051000000000
8.102055106000,-0.048000000000
8.109742018000,-0.048000000000
8.117428930000,-0.048000000000
8.125115842000,-0.046000000000
8.132802754000,-0.046000000000
8.140489666000,-0.048000000000
8.148176578000,-0.046000000000
8.155863490000,-0.043000000000
8.163550402000,-0.043000000000
8.171237314000,-0.043000000000
8.178924226000,-0.043000000000
8.186611138000,-0.041000000000
8.194298050000,-0.038000000000
8.201984962000,-0.038000000000
8.209671874000,-0.041000000000
8.217358786000,-0.041000000000
8.225045698000,-0.038000000000
8.232732610000,-0.038000000000
8.240419522000,-0.041000000000
8.248106434000,-0.048000000000
8.255793346000,-0.051000000000
8.263480258000,-0.046000000000
8.271167170000,-0.036000000000
8.278854082000,-0.019000000000
8.286540994000,-0.004000000000
8.294227906000,-0.007000000000
8.301914818000,-0.007000000000
8.309601730000,-0.012000000000
8.317288642000,-0.031000000000
8.324975554000,-0.051000000000
8.332662466000,-0.051000000000
8.340349378000,-0.048000000000
8.348036290000,-0.048000000000
8.355723202000,-0.046000000000
8.363410114000,-0.048000000000
8.371097026000,-0.060000000000
8.378783938000,-0.097000000000
8.386470850000,-0.075000000000
8.394157762000,0.294000000000
8.401844674000,1.007000000000
8.409531586000,1.330000000000
8.417218498000,0.678000000000
8.424905410000,-0.357000000000
8.432592322000,-0.656000000000
8.440279234000,-0.309000000000
8.447966146000,-0.187000000000
8.455653058000,-0.226000000000
8.463339970000,-0.121000000000
8.471026882000,-0.080000000000
8.478713794000,-0.119000000000
8.486400706000,-0.094000000000
8.494087618000,-0.065000000000
8.501774530000,-0.070000000000
8.509461442000,-0.063000000000
8.517148354000,-0.046000000000
8.524835266000,-0.041000000000
8.532522238000,-0.036000000000
8.540209290000,-0.024000000000
8.547896342000,-0.017000000000
8.555583394000,-0.009000000000
8.563270446000,0.000000000000
8.570957498000,0.007000000000
8.578644550000,0.014000000000
8.586331602000,0.024000000000
8.594018654000,0.031000000000
8.601705706000,0.041000000000
8.609392758000,0.051000000000
8.617079810000,0.058000000000
8.624766862000,0.070000000000
8.632453914000,0.080000000000
8.640140966000,0.090000000000
8.647828018000,0.099000000000
8.655515070000,0.111000000000
8.663202122000,0.126000000000
8.670889174000,0.133000000000
8.678576226000,0.141000000000
8.686263278000,0.145000000000
8.693950330000,0.150000000000
8.701637382000,0.150000000000
8.709324434000,0.148000000000
8.717011486000,0.143000000000
8.724698538000,0.128000000000
8.732385590000,0.111000000000
8.740072642000,0.082000000000
8.747759694000,0.041000000000
8.755446746000,-0.002000000000
8.763133798000,-0.043000000000
8.770820850000,-0.077000000000
8.778507902000,-0.107000000000
8.786194954000,-0.126000000000
8.793882006000,-0.141000000000
8.801569058000,-0.150000000000
8.809256110000,-0.150000000000
8.816943162000,-0.150000000000
8.824630214000,-0.145000000000
8.832317266000,-0.143000000000
8.840004318000,-0.141000000000
8.847691370000,-0.138000000000
8.855378422000,-0.133000000000
8.863065474000,-0.131000000000
8.870752526000,-0.128000000000
8.878439578000,-0.126000000000
8.886126630000,-0.126000000000
8.893813682000,-0.124000000000
8.901500734000,-0.126000000000
8.909187786000,-0.131000000000
8.916874838000,-0.131000000000
8.924561890000,-0.131000000000
8.932248942000,-0.131000000000
8.939935994000,-0.131000000000
8.947623046000,-0.126000000000
8.955310098000,-0.124000000000
8.962997150000,-0.124000000000
8.970684202000,-0.119000000000
8.978371254000,-0.116000000000
8.986058306000,-0.119000000000
8.993745358000,-0.116000000000
9.001432410000,-0.114000000000
9.009119462000,-0.111000000000
9.016806514000,-0.109000000000
9.024493566000,-0.107000000000
9.032180618000,-0.102000000000
9.039867670000,-0.099000000000
9.047554722000,-0.099000000000
9.055241774000,-0.099000000000
9.062928826000,-0.097000000000
9.070615878000,-0.097000000000
9.078302930000,-0.094000000000
9.085989982000,-0.090000000000
9.093677052000,-0.087000000000
9.101363825000,-0.087000000000
9.109050598000,-0.087000000000
9.116737371000,-0.082000000000
9.124424144000,-0.082000000000
9.132110917000,-0.082000000000
9.139797690000,-0.080000000000
9.147484463000,-0.077000000000
9.155171236000,-0.077000000000
9.162858009000,-0.077000000000
9.170544782000,-0.072000000000
9.178231555000,-0.072000000000
9.185918328000,-0.072000000000
9.193605101000,-0.072000000000
9.201291874000,-0.070000000000
9.208978647000,-0.068000000000
9.216665420000,-0.068000000000
9.224352193000,-0.065000000000
9.232038966000,-0.063000000000
9.239725739000,-0.063000000000
9.247412512000,-0.063000000000
9.255099285000,-0.063000000000
9.262786058000,-0.060000000000
9.270472831000,-0.058000000000
9.278159604000,-0.058000000000
9.285846377000,-0.058000000000
9.293533150000,-0.058000000000
9.301219923000,-0.058000000000
9.308906696000,-0.053000000000
9.316593469000,-0.055000000000
9.324280242000,-0.055000000000
9.331967015000,-0.055000000000
9.339653788000,-0.055000000000
9.347340561000,-0.055000000000
9.355027334000,-0.053000000000
9.362714107000,-0.053000000000
9.370400880000,-0.053000000000
9.378087653000,-0.051000000000
9.385774426000,-0.051000000000
9.393461199000,-0.053000000000
9.401147972000,-0.051000000000
9.408834745000,-0.051000000000
9.416521518000,-0.055000000000
9.424208291000,-0.058000000000
9.431895064000,-0.058000000000
9.439581837000,-0.053000000000
9.447268610000,-0.043000000000
9.454955383000,-0.024000000000
9.462642156000,-0.014000000000
9.470328929000,-0.014000000000
9.478015702000,-0.014000000000
9.485702475000,-0.026000000000
9.493389248000,-0.048000000000
9.501076021000,-0.055000000000
9.508762794000,-0.055000000000
9.516449567000,-0.055000000000
9.524136340000,-0.055000000000
9.531823113000,-0.053000000000
9.539509886000,-0.055000000000
9.547196659000,-0.075000000000
9.554883432000,-0.092000000000
9.562570205000,0.099000000000
9.570256978000,0.725000000000
9.577943751000,1.328000000000
9.585630524000,1.046000000000
9.593317297000,-0.053000000000
9.601004070000,-0.754000000000
9.608690843000,-0.518000000000
9.616377616000,-0.233000000000
9.624064389000,-0.267000000000
9.631751162000,-0.180000000000
9.639437935000,-0.060000000000
9.647124708000,-0.094000000000
9.654811514000,-0.102000000000
9.662498635000,-0.055000000000
9.670185756000,-0.051000000000
9.677872877000,-0.055000000000
9.685559998000,-0.038000000000
9.693247119000,-0.029000000000
9.700934240000,-0.026000000000
9.708621361000,-0.017000000000
9.716308482000,-0.007000000000
9.723995603000,0.000000000000
9.731682724000,0.007000000000
9.739369845000,0.017000000000
9.747056966000,0.024000000000
9.754744087000,0.034000000000
9.762431208000,0.041000000000
9.770118329000,0.048000000000
9.777805450000,0.060000000000
9.785492571000,0.070000000000
9.793179692000,0.080000000000
9.800866813000,0.090000000000
9.808553934000,0.102000000000
9.816241055000,0.111000000000
9.823928176000,0.124000000000
9.831615297000,0.138000000000
9.839302418000,0.148000000000
9.846989539000,0.160000000000
9.854676660000,0.167000000000
9.862363781000,0.172000000000
9.870050902000,0.172000000000
9.877738023000,0.170000000000
9.885425144000,0.165000000000
9.893112265000,0.155000000000
9.900799386000,0.133000000000
9.908486507000,0.099000000000
9.916173628000,0.055000000000
9.923860749000,0.007000000000
9.931547870000,-0.038000000000
9.939234991000,-0.080000000000
9.946922112000,-0.111000000000
9.954609233000,-0.136000000000
9.962296354000,-0.150000000000
9.969983475000,-0.158000000000
9.977670596000,-0.160000000000
9.985357717000,-0.158000000000
9.993044838000,-0.153000000000
10.000731959000,-0.150000000000
10.008419080000,-0.145000000000
10.016106201000,-0.141000000000
10.023793322000,-0.136000000000
10.031480443000,-0.131000000000
10.039167564000,-0.128000000000
10.046854685000,-0.126000000000
10.054541806000,-0.126000000000
10.062228927000,-0.128000000000
10.069916048000,-0.128000000000
10.077603169000,-0.131000000000
10.085290290000,-0.131000000000
10.092977411000,-0.131000000000
10.100664532000,-0.133000000000
10.108351653000,-0.131000000000
10.116038774000,-0.131000000000
10.123725895000,-0.131000000000
10.131413016000,-0.128000000000
10.139100137000,-0.126000000000
10.146787258000,-0.124000000000
10.154474379000,-0.121000000000
10.162161500000,-0.119000000000
10.169848621000,-0.116000000000
10.177535742000,-0.116000000000
10.185222863000,-0.114000000000
10.192909984000,-0.111000000000
10.200597105000,-0.109000000000
10.208284226000,-0.107000000000
10.215971415000,-0.104000000000
10.223658536000,-0.102000000000
10.231345657000,-0.099000000000
10.239032778000,-0.094000000000
10.246719899000,-0.092000000000
10.254407020000,-0.092000000000
10.262094141000,-0.090000000000
10.269781262000,-0.087000000000
10.277468383000,-0.085000000000
10.285155504000,-0.085000000000
10.292842625000,-0.082000000000
10.300529746000,-0.080000000000
10.308216867000,-0.077000000000
10.315903988000,-0.077000000000
10.323591109000,-0.075000000000
10.331278230000,-0.072000000000
10.338965351000,-0.072000000000
10.346652472000,-0.070000000000
10.354339593000,-0.068000000000
10.362026714000,-0.068000000000
10.369713835000,-0.065000000000
10.377400956000,-0.065000000000
10.385088077000,-0.063000000000
10.392775198000,-0.063000000000
10.400462319000,-0.063000000000
10.408149440000,-0.060000000000
10.415836561000,-0.060000000000
10.423523682000,-0.058000000000
10.431210803000,-0.058000000000
10.438897924000,-0.058000000000
10.446585045000,-0.055000000000
10.454272166000,-0.055000000000
10.461959287000,-0.055000000000
10.469646408000,-0.053000000000
10.477333529000,-0.051000000000
10.485020650000,-0.051000000000
10.492707771000,-0.051000000000
10.500394892000,-0.048000000000
10.508082013000,-0.051000000000
10.515769134000,-0.048000000000
10.523456255000,-0.048000000000
10.531143376000,-0.048000000000
10.538830497000,-0.046000000000
10.546517618000,-0.046000000000
10.554204739000,-0.046000000000
10.561891860000,-0.046000000000
10.569578981000,-0.046000000000
10.577266102000,-0.046000000000
10.584953223000,-0.046000000000
10.592640344000,-0.043000000000
10.600327465000,-0.043000000000
10.608014586000,-0.046000000000
10.615701707000,-0.043000000000
10.623388828000,-0.041000000000
10.631075949000,-0.043000000000
10.638763070000,-0.043000000000
10.646450191000,-0.041000000000
10.654137312000,-0.043000000000
10.661824433000,-0.048000000000
10.669511554000,-0.053000000000
10.677198675000,-0.051000000000
10.684885796000,-0.046000000000
10.692572917000,-0.034000000000
10.700260038000,-0.014000000000
10.707947159000,-0.009000000000
10.715634280000,-0.012000000000
10.723321401000,-0.009000000000
10.731008522000,-0.019000000000
10.738695643000,-0.041000000000
10.746382764000,-0.053000000000
10.754069885000,-0.048000000000
10.761757006000,-0.051000000000
10.769444127000,-0.053000000000
10.777131312000,-0.048000000000
10.784818433000,-0.051000000000
10.792505554000,-0.077000000000
10.800192675000,-0.111000000000
10.807879796000,0.060000000000
10.815566917000,0.669000000000
10.823254038000,1.306000000000
10.830941159000,1.153000000000
10.838628280000,0.145000000000
10.846315401000,-0.627000000000
10.854002522000,-0.479000000000
10.861689643000,-0.187000000000
10.869376764000,-0.223000000000
10.877063885000,-0.187000000000
10.884751006000,-0.087000000000
10.892438127000,-0.109000000000
10.900125248000,-0.121000000000
10.907812369000,-0.080000000000
10.915499490000,-0.072000000000
10.923186611000,-0.077000000000
10.930873732000,-0.060000000000
10.938560853000,-0.048000000000
10.946247974000,-0.043000000000
10.953935095000,-0.034000000000
10.961622216000,-0.024000000000
10.969309337000,-0.017000000000
10.976996458000,-0.007000000000
10.984683579000,0.002000000000
10.992370700000,0.009000000000
11.000057821000,0.019000000000
11.007744942000,0.029000000000
11.015432063000,0.038000000000
11.023119184000,0.046000000000
11.030806305000,0.058000000000
11.038493426000,0.065000000000
11.046180547000,0.075000000000
11.053867668000,0.085000000000
11.061554789000,0.094000000000
11.069241910000,0.107000000000
11.076929031000,0.116000000000
11.084616152000,0.126000000000
11.092303273000,0.136000000000
11.099990394000,0.141000000000
11.107677515000,0.143000000000
11.115364636000,0.143000000000
11.123051757000,0.143000000000
11.130738878000,0.138000000000
11.138425999000,0.131000000000
11.146113120000,0.114000000000
11.153800241000,0.090000000000
11.161487362000,0.055000000000
11.169174483000,0.019000000000
11.176861604000,-0.021000000000
11.184548725000,-0.060000000000
11.192235846000,-0.092000000000
11.199922967000,-0.114000000000
11.207610088000,-0.131000000000
11.215297209000,-0.141000000000
11.222984330000,-0.145000000000
11.230671451000,-0.143000000000
11.238358572000,-0.141000000000
11.246045693000,-0.138000000000
11.253732814000,-0.136000000000
11.261419935000,-0.131000000000
11.269107056000,-0.128000000000
11.276794177000,-0.126000000000
11.284481298000,-0.124000000000
11.292168419000,-0.121000000000
11.299855540000,-0.119000000000
11.307542661000,-0.119000000000
11.315229782000,-0.119000000000
11.322916903000,-0.119000000000
11.330604024000,-0.119000000000
11.338291209000,-0.121000000000
11.345977912000,-0.121000000000
11.353664615000,-0.121000000000
11.361351318000,-0.121000000000
11.369038021000,-0.119000000000
11.376724724000,-0.116000000000
11.384411427000,-0.116000000000
11.392098130000,-0.116000000000
11.399784833000,-0.114000000000
11.407471536000,-0.111000000000
11.415158239000,-0.109000000000
11.422844942000,-0.107000000000
11.430531645000,-0.107000000000
11.438218348000,-0.102000000000
11.445905051000,-0.099000000000
11.453591754000,-0.099000000000
11.461278457000,-0.097000000000
11.468965160000,-0.094000000000
11.476651863000,-0.092000000000
11.484338566000,-0.090000000000
11.492025269000,-0.087000000000
11.499711972000,-0.085000000000
11.507398675000,-0.085000000000
11.515085378000,-0.085000000000
11.522772081000,-0.082000000000
11.530458784000,-0.077000000000
11.538145487000,-0.077000000000
11.545832190000,-0.077000000000
11.553518893000,-0.075000000000
11.561205596000,-0.072000000000
11.568892299000,-0.070000000000
11.576579002000,-0.070000000000
11.584265705000,-0.072000000000
11.591952408000,-0.072000000000
11.599639111000,-0.070000000000
11.607325814000,-0.068000000000
11.615012517000,-0.070000000000
11.622699220000,-0.070000000000
11.630385923000,-0.068000000000
11.638072626000,-0.065000000000
11.645759329000,-0.063000000000
11.653446032000,-0.063000000000
11.661132735000,-0.060000000000
11.668819438000,-0.060000000000
11.676506141000,-0.060000000000
11.684192844000,-0.058000000000
11.691879547000,-0.058000000000
11.699566250000,-0.053000000000
11.707252953000,-0.053000000000
11.714939656000,-0.053000000000
11.722626359000,-0.055000000000
11.730313062000,-0.055000000000
11.737999765000,-0.053000000000
11.745686468000,-0.051000000000
11.753373171000,-0.048000000000
11.761059874000,-0.051000000000
11.768746577000,-0.051000000000
11.776433280000,-0.051000000000
11.784119983000,-0.051000000000
11.791806686000,-0.048000000000
11.799493389000,-0.046000000000
11.807180092000,-0.046000000000
11.814866795000,-0.043000000000
11.822553498000,-0.043000000000
11.830240201000,-0.043000000000
11.837926904000,-0.043000000000
11.845613607000,-0.043000000000
11.853300310000,-0.048000000000
11.860987013000,-0.055000000000
11.868673716000,-0.058000000000
11.876360419000,-0.051000000000
11.884047122000,-0.046000000000
11.891733825000,-0.031000000000
11.899420588000,-0.014000000000
11.907107709000,-0.012000000000
11.914794830000,-0.012000000000
11.922481951000,-0.012000000000
11.930169072000,-0.029000000000
11.937856193000,-0.053000000000
11.945543314000,-0.058000000000
11.953230435000,-0.055000000000
11.960917556000,-0.060000000000
11.968604677000,-0.060000000000
11.976291798000,-0.053000000000
11.983978919000,-0.060000000000
11.991666040000,-0.092000000000
11.999353161000,-0.080000000000
12.007040282000,0.236000000000
12.014727403000,0.936000000000
12.022414524000,1.348000000000
12.030101645000,0.776000000000
12.037788766000,-0.301000000000
12.045475887000,-0.710000000000
12.053163008000,-0.379000000000
12.060850129000,-0.211000000000
12.068537250000,-0.250000000000
12.076224371000,-0.138000000000
12.083911492000,-0.072000000000
12.091598613000,-0.114000000000
12.099285734000,-0.099000000000
12.106972855000,-0.063000000000
12.114659976000,-0.065000000000
12.122347097000,-0.063000000000
12.130034218000,-0.043000000000
12.137721339000,-0.036000000000
12.145408460000,-0.031000000000
12.153095581000,-0.021000000000
12.160782702000,-0.014000000000
12.168469823000,-0.009000000000
12.176156944000,0.000000000000
12.183844065000,0.012000000000
12.191531186000,0.019000000000
12.199218307000,0.029000000000
12.206905428000,0.041000000000
12.214592549000,0.051000000000
12.222279670000,0.058000000000
12.229966791000,0.065000000000
12.237653912000,0.072000000000
12.245341033000,0.085000000000
12.253028154000,0.099000000000
12.260715275000,0.111000000000
12.268402396000,0.124000000000
12.276089517000,0.133000000000
12.283776638000,0.145000000000
12.291463759000,0.155000000000
12.299150880000,0.160000000000
12.306838001000,0.158000000000
12.314525122000,0.155000000000
12.322212243000,0.155000000000
12.329899364000,0.150000000000
12.337586485000,0.138000000000
12.345273606000,0.114000000000
12.352960727000,0.082000000000
12.360647848000,0.038000000000
12.368334969000,-0.012000000000
12.376022090000,-0.055000000000
12.383709211000,-0.090000000000
12.391396332000,-0.116000000000
12.399083453000,-0.141000000000
12.406770574000,-0.158000000000
12.414457695000,-0.165000000000
12.422144816000,-0.163000000000
12.429831937000,-0.155000000000
12.437519058000,-0.153000000000
12.445206179000,-0.150000000000
12.452893300000,-0.145000000000
12.460580485000,-0.141000000000
12.468267188000,-0.136000000000
12.475953891000,-0.133000000000
12.483640594000,-0.131000000000
12.491327297000,-0.131000000000
12.499014000000,-0.128000000000
12.506700703000,-0.128000000000
12.514387406000,-0.131000000000
12.522074109000,-0.131000000000
12.529760812000,-0.131000000000
12.537447515000,-0.133000000000
12.545134218000,-0.136000000000
12.552820921000,-0.136000000000
12.560507624000,-0.133000000000
12.568194327000,-0.131000000000
12.575881030000,-0.128000000000
12.583567733000,-0.128000000000
12.591254436000,-0.128000000000
12.598941139000,-0.126000000000
12.606627842000,-0.121000000000
12.614314545000,-0.119000000000
12.622001248000,-0.119000000000
12.629687951000,-0.116000000000
12.637374654000,-0.114000000000
12.645061357000,-0.111000000000
12.652748060000,-0.109000000000
12.660434763000,-0.104000000000
12.668121466000,-0.102000000000
12.675808169000,-0.099000000000
12.683494872000,-0.099000000000
12.691181575000,-0.094000000000
12.698868278000,-0.092000000000
12.706554981000,-0.090000000000
12.714241684000,-0.090000000000
12.721928387000,-0.087000000000
12.729615090000,-0.085000000000
12.737301793000,-0.082000000000
12.744988496000,-0.080000000000
12.752675199000,-0.077000000000
12.760361902000,-0.077000000000
12.768048605000,-0.077000000000
12.775735308000,-0.077000000000
12.783422011000,-0.072000000000
12.791108714000,-0.070000000000
12.798795417000,-0.068000000000
12.806482120000,-0.068000000000
12.814168823000,-0.068000000000
12.821855526000,-0.068000000000
12.829542229000,-0.065000000000
12.837228932000,-0.065000000000
12.844915635000,-0.063000000000
12.852602338000,-0.060000000000
12.860289041000,-0.058000000000
12.867975744000,-0.058000000000
12.875662447000,-0.058000000000
12.883349150000,-0.055000000000
12.891035853000,-0.053000000000
12.898722556000,-0.051000000000
12.906409259000,-0.051000000000
12.914095962000,-0.051000000000
12.921782665000,-0.046000000000
12.929469368000,-0.046000000000
12.937156071000,-0.048000000000
12.944842774000,-0.053000000000
12.952529477000,-0.053000000000
12.960216180000,-0.053000000000
12.967902883000,-0.048000000000
12.975589586000,-0.034000000000
12.983276289000,-0.017000000000
12.990962992000,-0.009000000000
12.998649695000,-0.009000000000
13.006336398000,-0.009000000000
13.014023101000,-0.024000000000
13.021709864000,-0.046000000000
13.029397055000,-0.051000000000
13.037084246000,-0.048000000000
13.044771437000,-0.051000000000
13.052458628000,-0.048000000000
13.060145819000,-0.048000000000
13.067833010000,-0.053000000000
13.075520201000,-0.077000000000
13.083207392000,-0.082000000000
13.090894583000,0.187000000000
13.098581774000,0.880000000000
13.106268965000,1.391000000000
13.113956156000,0.927000000000
13.121643347000,-0.189000000000
13.129330538000,-0.725000000000
13.137017729000,-0.425000000000
13.144704920000,-0.214000000000
13.152392111000,-0.255000000000
13.160079302000,-0.148000000000
13.167766493000,-0.065000000000
13.175453684000,-0.107000000000
13.183140875000,-0.097000000000
13.190828066000,-0.058000000000
13.198515257000,-0.058000000000
13.206202448000,-0.058000000000
13.213889639000,-0.041000000000
13.221576830000,-0.034000000000
13.229264021000,-0.029000000000
13.236951212000,-0.019000000000
13.244638403000,-0.009000000000
13.252325594000,-0.004000000000
13.260012785000,0.004000000000
13.267699976000,0.014000000000
13.275387167000,0.021000000000
13.283074358000,0.031000000000
13.290761549000,0.041000000000
13.298448740000,0.048000000000
13.306135931000,0.058000000000
13.313823122000,0.068000000000
13.321510313000,0.077000000000
13.329197504000,0.087000000000
13.336884695000,0.099000000000
13.344571886000,0.114000000000
13.352259077000,0.126000000000
13.359946268000,0.138000000000
13.367633459000,0.150000000000
13.375320650000,0.160000000000
13.383007841000,0.167000000000
13.390695032000,0.170000000000
13.398382223000,0.170000000000
13.406069414000,0.165000000000
13.413756605000,0.158000000000
13.421443796000,0.143000000000
13.429130987000,0.116000000000
13.436818178000,0.080000000000
13.444505369000,0.036000000000
13.452192560000,-0.012000000000
13.459879751000,-0.058000000000
13.467566942000,-0.094000000000
13.475254133000,-0.121000000000
13.482941324000,-0.143000000000
13.490628515000,-0.153000000000
13.498315706000,-0.158000000000
13.506002897000,-0.158000000000
13.513690088000,-0.155000000000
13.521377279000,-0.153000000000
13.529064470000,-0.148000000000
13.536751661000,-0.143000000000
13.544438852000,-0.141000000000
13.552126043000,-0.136000000000
13.559813234000,-0.133000000000
13.567500425000,-0.131000000000
13.575187616000,-0.128000000000
13.582874852000,-0.128000000000
13.590561904000,-0.128000000000
13.598248956000,-0.128000000000
13.605936008000,-0.128000000000
13.613623060000,-0.128000000000
13.621310112000,-0.131000000000
13.628997164000,-0.128000000000
13.636684216000,-0.126000000000
13.644371268000,-0.126000000000
13.652058320000,-0.126000000000
13.659745372000,-0.124000000000
13.667432424000,-0.121000000000
13.675119476000,-0.119000000000
13.682806528000,-0.116000000000
13.690493580000,-0.114000000000
13.698180632000,-0.111000000000
13.705867684000,-0.109000000000
13.713554736000,-0.107000000000
13.721241788000,-0.104000000000
13.728928840000,-0.099000000000
13.736615892000,-0.097000000000
13.744302944000,-0.094000000000
13.751989996000,-0.092000000000
13.759677048000,-0.090000000000
13.767364100000,-0.087000000000
13.775051152000,-0.085000000000
13.782738204000,-0.082000000000
13.790425256000,-0.080000000000
13.798112308000,-0.080000000000
13.805799360000,-0.077000000000
13.813486412000,-0.075000000000
13.821173464000,-0.075000000000
13.828860516000,-0.072000000000
13.836547568000,-0.072000000000
13.844234620000,-0.070000000000
13.851921672000,-0.068000000000
13.859608724000,-0.065000000000
13.867295776000,-0.065000000000
13.874982828000,-0.063000000000
13.882669880000,-0.060000000000
13.890356932000,-0.060000000000
13.898043984000,-0.058000000000
13.905731036000,-0.055000000000
13.913418088000,-0.058000000000
13.921105140000,-0.055000000000
13.928792192000,-0.055000000000
13.936479244000,-0.055000000000
13.944166296000,-0.053000000000
13.951853348000,-0.053000000000
13.959540400000,-0.053000000000
13.967227452000,-0.051000000000
13.974914504000,-0.051000000000
13.982601556000,-0.051000000000
13.990288608000,-0.048000000000
13.997975660000,-0.048000000000
14.005662712000,-0.048000000000
14.013349764000,-0.046000000000
14.021036816000,-0.046000000000
14.028723868000,-0.046000000000
14.036410920000,-0.043000000000
14.044097972000,-0.043000000000
14.051785024000,-0.046000000000
14.059472076000,-0.046000000000
14.067159128000,-0.048000000000
14.074846180000,-0.053000000000
14.082533232000,-0.055000000000
14.090220284000,-0.048000000000
14.097907336000,-0.036000000000
14.105594388000,-0.019000000000
14.113281440000,-0.009000000000
14.120968492000,-0.012000000000
14.128655544000,-0.009000000000
14.136342596000,-0.017000000000
14.144029662000,-0.038000000000
14.151716783000,-0.051000000000
14.159403904000,-0.051000000000
14.167091025000,-0.051000000000
14.174778146000,-0.048000000000
14.182465267000,-0.048000000000
14.190152388000,-0.051000000000
14.197839509000,-0.068000000000
14.205526630000,-0.107000000000
14.213213751000,-0.014000000000
14.220900872000,0.501000000000
14.228587993000,1.216000000000
14.236275114000,1.284000000000
14.243962235000,0.389000000000
14.251649356000,-0.530000000000
14.259336477000,-0.557000000000
14.267023598000,-0.231000000000
14.274710719000,-0.211000000000
14.282397840000,-0.201000000000
14.290084961000,-0.092000000000
14.297772082000,-0.092000000000
14.305459203000,-0.116000000000
14.313146324000,-0.080000000000
14.320833445000,-0.060000000000
14.328520566000,-0.068000000000
14.336207687000,-0.053000000000
14.343894808000,-0.041000000000
14.351581929000,-0.038000000000
14.359269050000,-0.029000000000
14.366956171000,-0.017000000000
14.374643292000,-0.009000000000
14.382330413000,-0.002000000000
14.390017534000,0.007000000000
14.397704655000,0.017000000000
14.405391776000,0.026000000000
14.413078897000,0.036000000000
14.420766018000,0.046000000000
14.428453139000,0.055000000000
14.436140260000,0.065000000000
14.443827381000,0.075000000000
14.451514502000,0.085000000000
14.459201623000,0.094000000000
14.466888744000,0.107000000000
14.474575865000,0.116000000000
14.482262986000,0.126000000000
14.489950107000,0.138000000000
14.497637228000,0.148000000000
14.505324349000,0.155000000000
14.513011470000,0.158000000000
14.520698591000,0.160000000000
14.528385712000,0.158000000000
14.536072833000,0.155000000000
14.543759954000,0.145000000000
14.551447075000,0.128000000000
14.559134196000,0.102000000000
14.566821317000,0.065000000000
14.574508438000,0.021000000000
14.582195559000,-0.021000000000
14.589882680000,-0.058000000000
14.597569801000,-0.090000000000
14.605256922000,-0.111000000000
14.612944043000,-0.128000000000
14.620631164000,-0.141000000000
14.628318285000,-0.141000000000
14.636005406000,-0.141000000000
14.643692527000,-0.141000000000
14.651379648000,-0.136000000000
14.659066769000,-0.131000000000
14.666753890000,-0.128000000000
14.674441011000,-0.126000000000
14.682128132000,-0.124000000000
14.689815253000,-0.121000000000
14.697502374000,-0.121000000000
14.705189559000,-0.121000000000
14.712876680000,-0.119000000000
14.720563801000,-0.119000000000
14.728250922000,-0.119000000000
14.735938043000,-0.119000000000
14.743625164000,-0.121000000000
14.751312285000,-0.121000000000
14.758999406000,-0.121000000000
14.766686527000,-0.121000000000
14.774373648000,-0.119000000000
14.782060769000,-0.119000000000
14.789747890000,-0.116000000000
14.797435011000,-0.114000000000
14.805122132000,-0.111000000000
14.812809253000,-0.111000000000
14.820496374000,-0.107000000000
14.828183495000,-0.104000000000
14.835870616000,-0.102000000000
14.843557737000,-0.099000000000
14.851244858000,-0.097000000000
14.858931979000,-0.094000000000
14.866619100000,-0.092000000000
14.874306221000,-0.090000000000
14.881993342000,-0.087000000000
14.889680463000,-0.085000000000
14.897367584000,-0.085000000000
14.905054705000,-0.082000000000
14.912741826000,-0.080000000000
14.920428947000,-0.077000000000
14.928116068000,-0.077000000000
14.935803189000,-0.075000000000
14.943490310000,-0.075000000000
14.951177431000,-0.072000000000
14.958864552000,-0.072000000000
14.966551673000,-0.070000000000
14.974238794000,-0.068000000000
14.981925915000,-0.065000000000
14.989613036000,-0.065000000000
14.997300157000,-0.063000000000
15.004987278000,-0.063000000000
15.012674399000,-0.063000000000
15.020361520000,-0.060000000000
15.028048641000,-0.060000000000
15.035735762000,-0.060000000000
15.043422883000,-0.058000000000
15.051110004000,-0.058000000000
15.058797125000,-0.058000000000
15.066484246000,-0.055000000000
15.074171367000,-0.055000000000
15.081858488000,-0.053000000000
15.089545609000,-0.053000000000
15.097232730000,-0.053000000000
15.104919851000,-0.051000000000
15.112606972000,-0.051000000000
15.120294093000,-0.053000000000
15.127981214000,-0.053000000000
15.135668335000,-0.058000000000
15.143355456000,-0.063000000000
15.151042577000,-0.060000000000
15.158729698000,-0.051000000000
15.166416819000,-0.038000000000
15.174103940000,-0.021000000000
15.181791061000,-0.017000000000
15.189478182000,-0.019000000000
15.197165303000,-0.017000000000
15.204852424000,-0.029000000000
15.212539545000,-0.051000000000
15.220226666000,-0.058000000000
15.227913787000,-0.055000000000
15.235600908000,-0.058000000000
15.243288029000,-0.055000000000
15.250975150000,-0.051000000000
15.258662271000,-0.058000000000
15.266349456000,-0.085000000000
15.274036508000,-0.104000000000
15.281723560000,0.116000000000
15.289410612000,0.781000000000
15.297097664000,1.352000000000
15.304784716000,1.014000000000
15.312471768000,-0.053000000000
15.320158820000,-0.669000000000
15.327845872000,-0.435000000000
15.335532924000,-0.204000000000
15.343219976000,-0.238000000000
15.350907028000,-0.163000000000
15.358594080000,-0.077000000000
15.366281132000,-0.109000000000
15.373968184000,-0.107000000000
15.381655236000,-0.068000000000
15.389342288000,-0.065000000000
15.397029340000,-0.068000000000
15.404716392000,-0.051000000000
15.412403444000,-0.038000000000
15.420090496000,-0.034000000000
15.427777548000,-0.024000000000
15.435464600000,-0.017000000000
15.443151652000,-0.007000000000
15.450838704000,0.002000000000
15.458525756000,0.012000000000
15.466212808000,0.019000000000
15.473899860000,0.029000000000
15.481586912000,0.038000000000
15.489273964000,0.048000000000
15.496961016000,0.058000000000
15.504648068000,0.065000000000
15.512335120000,0.077000000000
15.520022172000,0.087000000000
15.527709224000,0.099000000000
15.535396276000,0.109000000000
15.543083328000,0.121000000000
15.550770380000,0.133000000000
15.558457432000,0.143000000000
15.566144484000,0.150000000000
15.573831536000,0.155000000000
15.581518588000,0.158000000000
15.589205640000,0.158000000000
15.596892692000,0.155000000000
15.604579744000,0.150000000000
15.612266796000,0.136000000000
15.619953848000,0.109000000000
15.627640900000,0.072000000000
15.635327952000,0.031000000000
15.643015004000,-0.014000000000
15.650702056000,-0.055000000000
15.658389108000,-0.090000000000
15.666076160000,-0.116000000000
15.673763212000,-0.133000000000
15.681450264000,-0.143000000000
15.689137316000,-0.148000000000
15.696824368000,-0.148000000000
15.704511420000,-0.148000000000
15.712198472000,-0.145000000000
15.719885524000,-0.141000000000
15.727572576000,-0.136000000000
15.735259628000,-0.133000000000
15.742946680000,-0.131000000000
15.750633732000,-0.128000000000
15.758320784000,-0.126000000000
15.766007836000,-0.126000000000
15.773694888000,-0.128000000000
15.781381940000,-0.128000000000
15.789068992000,-0.128000000000
15.796756044000,-0.128000000000
15.804443096000,-0.128000000000
15.812130148000,-0.128000000000
15.819817200000,-0.126000000000
15.827504270000,-0.126000000000
15.835191043000,-0.126000000000
15.842877816000,-0.124000000000
15.850564589000,-0.121000000000
15.858251362000,-0.119000000000
15.865938135000,-0.116000000000
15.873624908000,-0.116000000000
15.881311681000,-0.114000000000
15.888998454000,-0.111000000000
15.896685227000,-0.107000000000
15.904372000000,-0.104000000000
15.912058773000,-0.102000000000
15.919745546000,-0.097000000000
15.927432319000,-0.094000000000
15.935119092000,-0.092000000000
15.942805865000,-0.090000000000
15.950492638000,-0.087000000000
15.958179411000,-0.087000000000
15.965866184000,-0.085000000000
15.973552957000,-0.082000000000
15.981239730000,-0.077000000000
15.988926503000,-0.077000000000
15.996613276000,-0.075000000000
16.004300049000,-0.072000000000
16.011986822000,-0.072000000000
16.019673595000,-0.070000000000
16.027360368000,-0.070000000000
16.035047141000,-0.070000000000
16.042733914000,-0.068000000000
16.050420687000,-0.068000000000
16.058107460000,-0.068000000000
16.065794233000,-0.068000000000
16.073481006000,-0.065000000000
16.081167779000,-0.060000000000
16.088854552000,-0.058000000000
16.096541325000,-0.058000000000
16.104228098000,-0.055000000000
16.111914871000,-0.055000000000
16.119601644000,-0.058000000000
16.127288417000,-0.060000000000
16.134975190000,-0.063000000000
16.142661963000,-0.065000000000
16.150348736000,-0.063000000000
16.158035509000,-0.055000000000
16.165722282000,-0.043000000000
16.173409055000,-0.021000000000
16.181095828000,-0.017000000000
16.188782601000,-0.019000000000
16.196469374000,-0.017000000000
16.204156147000,-0.031000000000
16.211842920000,-0.053000000000
16.219529693000,-0.058000000000
16.227216466000,-0.055000000000
16.234903239000,-0.055000000000
16.242590012000,-0.053000000000
16.250276785000,-0.051000000000
16.257963558000,-0.055000000000
16.265650331000,-0.082000000000
16.273337104000,-0.082000000000
16.281023877000,0.201000000000
16.288710650000,0.900000000000
16.296397423000,1.362000000000
16.304084196000,0.812000000000
16.311770969000,-0.291000000000
16.319457742000,-0.734000000000
16.327144515000,-0.416000000000
16.334831288000,-0.228000000000
16.342518061000,-0.250000000000
16.350204834000,-0.133000000000
16.357891607000,-0.060000000000
16.365578380000,-0.099000000000
16.373265153000,-0.087000000000
16.380951926000,-0.048000000000
16.388638732000,-0.053000000000
16.396325853000,-0.048000000000
16.404012974000,-0.026000000000
16.411700095000,-0.017000000000
16.419387216000,-0.014000000000
16.427074337000,-0.009000000000
16.434761458000,-0.002000000000
16.442448579000,0.002000000000
16.450135700000,0.012000000000
16.457822821000,0.024000000000
16.465509942000,0.036000000000
16.473197063000,0.043000000000
16.480884184000,0.053000000000
16.488571305000,0.063000000000
16.496258426000,0.070000000000
16.503945547000,0.080000000000
16.511632668000,0.094000000000
16.519319789000,0.107000000000
16.527006910000,0.119000000000
16.534694031000,0.133000000000
16.542381152000,0.145000000000
16.550068273000,0.158000000000
16.557755394000,0.172000000000
16.565442515000,0.184000000000
16.573129636000,0.189000000000
16.580816757000,0.189000000000
16.588503878000,0.184000000000
16.596190999000,0.182000000000
16.603878120000,0.177000000000
16.611565241000,0.158000000000
16.619252362000,0.126000000000
16.626939483000,0.080000000000
16.634626604000,0.026000000000
16.642313725000,-0.026000000000
16.650000846000,-0.072000000000
16.657687967000,-0.104000000000
16.665375088000,-0.131000000000
16.673062209000,-0.148000000000
16.680749330000,-0.158000000000
16.688436451000,-0.155000000000
16.696123572000,-0.153000000000
16.703810693000,-0.150000000000
16.711497814000,-0.148000000000
16.719184935000,-0.143000000000
16.726872056000,-0.133000000000
16.734559177000,-0.131000000000
16.742246298000,-0.131000000000
16.749933419000,-0.128000000000
16.757620540000,-0.128000000000
16.765307661000,-0.128000000000
16.772994782000,-0.128000000000
16.780681903000,-0.128000000000
16.788369024000,-0.131000000000
16.796056145000,-0.131000000000
16.803743266000,-0.131000000000
16.811430387000,-0.131000000000
16.819117508000,-0.131000000000
16.826804629000,-0.131000000000
16.834491750000,-0.128000000000
16.842178871000,-0.126000000000
16.849865992000,-0.124000000000
16.857553113000,-0.121000000000
16.865240234000,-0.119000000000
16.872927355000,-0.116000000000
16.880614476000,-0.116000000000
16.888301597000,-0.114000000000
16.895988718000,-0.109000000000
16.903675839000,-0.107000000000
16.911362960000,-0.104000000000
16.919050081000,-0.102000000000
16.926737202000,-0.097000000000
16.934424323000,-0.097000000000
16.942111444000,-0.094000000000
16.949798633000,-0.090000000000
16.957485754000,-0.087000000000
16.965172875000,-0.087000000000
16.972859996000,-0.085000000000
16.980547117000,-0.082000000000
16.988234238000,-0.080000000000
16.995921359000,-0.077000000000
17.003608480000,-0.075000000000
17.011295601000,-0.072000000000
17.018982722000,-0.072000000000
17.026669843000,-0.070000000000
17.034356964000,-0.070000000000
17.042044085000,-0.068000000000
17.049731206000,-0.065000000000
17.057418327000,-0.065000000000
17.065105448000,-0.068000000000
17.072792569000,-0.070000000000
17.080479690000,-0.070000000000
17.088166811000,-0.068000000000
17.095853932000,-0.063000000000
17.103541053000,-0.051000000000
17.111228174000,-0.031000000000
17.118915295000,-0.024000000000
17.126602416000,-0.021000000000
17.134289537000,-0.024000000000
17.141976658000,-0.043000000000
17.149663779000,-0.060000000000
17.157350900000,-0.060000000000
17.165038021000,-0.063000000000
17.172725142000,-0.060000000000
17.180412263000,-0.055000000000
17.188099384000,-0.055000000000
17.195786505000,-0.060000000000
17.203473626000,-0.077000000000
17.211160747000,-0.060000000000
17.218847868000,0.231000000000
17.226534989000,0.931000000000
17.234222110000,1.389000000000
17.241909231000,0.783000000000
17.249596352000,-0.386000000000
17.257283473000,-0.815000000000
17.264970594000,-0.445000000000
17.272657715000,-0.257000000000
17.280344836000,-0.279000000000
17.288031957000,-0.128000000000
17.295719078000,-0.038000000000
17.303406199000,-0.085000000000
17.311093320000,-0.070000000000
17.318780441000,-0.026000000000
17.326467562000,-0.029000000000
17.334154683000,-0.029000000000
17.341841804000,-0.012000000000
17.349528925000,-0.004000000000
17.357216046000,0.000000000000
17.364903167000,0.009000000000
17.372590288000,0.017000000000
17.380277409000,0.024000000000
17.387964530000,0.036000000000
17.395651651000,0.046000000000
17.403338772000,0.051000000000
17.411025893000,0.060000000000
17.418713014000,0.072000000000
17.426400135000,0.080000000000
17.434087256000,0.092000000000
17.441774377000,0.102000000000
17.449461498000,0.114000000000
17.457148619000,0.126000000000
17.464835740000,0.138000000000
17.472522861000,0.153000000000
17.480209982000,0.167000000000
17.487897103000,0.182000000000
17.495584224000,0.197000000000
17.503271345000,0.206000000000
17.510958530000,0.214000000000
17.518645442000,0.216000000000
17.526332354000,0.218000000000
17.534019266000,0.216000000000
17.541706178000,0.204000000000
17.549393090000,0.180000000000
17.557080002000,0.138000000000
17.564766914000,0.087000000000
17.572453826000,0.029000000000
17.580140738000,-0.026000000000
17.587827650000,-0.070000000000
17.595514562000,-0.104000000000
17.603201474000,-0.128000000000
17.610888386000,-0.143000000000
17.618575298000,-0.148000000000
17.626262210000,-0.150000000000
17.633949122000,-0.145000000000
17.641636034000,-0.143000000000
17.649322946000,-0.138000000000
17.657009858000,-0.133000000000
17.664696770000,-0.131000000000
17.672383682000,-0.128000000000
17.680070594000,-0.126000000000
17.687757506000,-0.124000000000
17.695444418000,-0.124000000000
17.703131330000,-0.124000000000
17.710818242000,-0.121000000000
17.718505154000,-0.121000000000
17.726192066000,-0.121000000000
17.733878978000,-0.121000000000
17.741565890000,-0.121000000000
17.749252802000,-0.121000000000
17.756939714000,-0.121000000000
17.764626626000,-0.119000000000
17.772313538000,-0.116000000000
17.780000450000,-0.114000000000
17.787687362000,-0.114000000000
17.795374274000,-0.111000000000
17.803061186000,-0.109000000000
17.810748098000,-0.107000000000
17.818435010000,-0.104000000000
17.826121922000,-0.102000000000
17.833808834000,-0.099000000000
17.841495746000,-0.097000000000
17.849182658000,-0.094000000000
17.856869570000,-0.090000000000
17.864556482000,-0.090000000000
17.872243394000,-0.087000000000
17.879930306000,-0.085000000000
17.887617218000,-0.082000000000
17.895304130000,-0.080000000000
17.902991042000,-0.077000000000
17.910677954000,-0.075000000000
17.918364866000,-0.070000000000
17.926051778000,-0.068000000000
17.933738690000,-0.068000000000
17.941425602000,-0.065000000000
17.949112514000,-0.063000000000
17.956799426000,-0.063000000000
17.964486338000,-0.060000000000
17.972173250000,-0.060000000000
17.979860162000,-0.058000000000
17.987547074000,-0.058000000000
17.995233986000,-0.058000000000
18.002920898000,-0.055000000000
18.010607810000,-0.053000000000
18.018294722000,-0.053000000000
18.025981634000,-0.053000000000
18.033668546000,-0.051000000000
18.041355458000,-0.051000000000
18.049042370000,-0.048000000000
18.056729282000,-0.048000000000
18.064416194000,-0.048000000000
18.072103170000,-0.046000000000
18.079790082000,-0.043000000000
18.087476994000,-0.046000000000
18.095163906000,-0.046000000000
18.102850818000,-0.051000000000
18.110537730000,-0.055000000000
18.118224642000,-0.053000000000
18.125911554000,-0.046000000000
18.133598466000,-0.034000000000
18.141285378000,-0.017000000000
18.148972290000,-0.009000000000
18.156659202000,-0.009000000000
18.164346114000,-0.007000000000
18.172033026000,-0.019000000000
18.179719938000,-0.041000000000
18.187406850000,-0.051000000000
18.195093762000,-0.048000000000
18.202780674000,-0.048000000000
18.210467586000,-0.046000000000
18.218154498000,-0.043000000000
18.225841410000,-0.046000000000
18.233528322000,-0.068000000000
18.241215234000,-0.107000000000
18.248902146000,0.021000000000
18.256589058000,0.593000000000
18.264275970000,1.296000000000
18.271962882000,1.255000000000
18.279649794000,0.277000000000
18.287336706000,-0.586000000000
18.295023618000,-0.520000000000
18.302710530000,-0.204000000000
18.310397442000,-0.216000000000
18.318084354000,-0.192000000000
18.325771266000,-0.082000000000
18.333458178000,-0.094000000000
18.341145090000,-0.111000000000
18.348832002000,-0.072000000000
18.356518914000,-0.060000000000
18.364205826000,-0.065000000000
18.371892738000,-0.051000000000
18.379579650000,-0.036000000000
18.387266562000,-0.036000000000
18.394953474000,-0.026000000000
18.402640386000,-0.014000000000
18.410327298000,-0.007000000000
18.418014210000,0.002000000000
18.425701122000,0.012000000000
18.433388034000,0.021000000000
18.441074946000,0.029000000000
18.448761858000,0.038000000000
18.456448770000,0.048000000000
18.464135682000,0.058000000000
18.471822594000,0.068000000000
18.479509506000,0.077000000000
18.487196418000,0.090000000000
18.494883330000,0.099000000000
18.502570242000,0.111000000000
18.510257154000,0.124000000000
18.517944066000,0.136000000000
18.525630978000,0.148000000000
18.533317890000,0.158000000000
18.541004802000,0.165000000000
18.548691714000,0.167000000000
18.556378626000,0.170000000000
18.564065538000,0.170000000000
18.571752450000,0.165000000000
18.579439362000,0.153000000000
18.587126274000,0.133000000000
18.594813186000,0.099000000000
18.602500098000,0.055000000000
18.610187010000,0.009000000000
18.617873922000,-0.034000000000
18.625560834000,-0.070000000000
18.633247806000,-0.097000000000
18.640934927000,-0.119000000000
18.648622048000,-0.131000000000
18.656309169000,-0.138000000000
18.663996290000,-0.141000000000
18.671683411000,-0.138000000000
18.679370532000,-0.136000000000
18.687057653000,-0.136000000000
18.694744774000,-0.133000000000
18.702431895000,-0.128000000000
18.710119016000,-0.126000000000
18.717806137000,-0.124000000000
18.725493258000,-0.124000000000
18.733180379000,-0.124000000000
18.740867500000,-0.124000000000
18.748554621000,-0.121000000000
18.756241742000,-0.121000000000
18.763928863000,-0.121000000000
18.771615984000,-0.121000000000
18.779303105000,-0.119000000000
18.786990226000,-0.119000000000
18.794677347000,-0.119000000000
18.802364468000,-0.116000000000
18.810051589000,-0.116000000000
18.817738710000,-0.114000000000
18.825425831000,-0.109000000000
18.833112952000,-0.107000000000
18.840800073000,-0.104000000000
18.848487194000,-0.102000000000
18.856174315000,-0.099000000000
18.863861436000,-0.097000000000
18.871548557000,-0.094000000000
18.879235678000,-0.092000000000
18.886922799000,-0.090000000000
18.894609920000,-0.087000000000
18.902297041000,-0.085000000000
18.909984162000,-0.080000000000
18.917671283000,-0.077000000000
18.925358404000,-0.075000000000
18.933045525000,-0.072000000000
18.940732646000,-0.070000000000
18.948419767000,-0.068000000000
18.956106888000,-0.065000000000
18.963794009000,-0.063000000000
18.971481130000,-0.063000000000
18.979168251000,-0.060000000000
18.986855372000,-0.060000000000
18.994542493000,-0.058000000000
19.002229614000,-0.055000000000
19.009916735000,-0.055000000000
19.017603856000,-0.055000000000
19.025290977000,-0.053000000000
19.032978098000,-0.053000000000
19.040665219000,-0.051000000000
19.048352340000,-0.048000000000
19.056039461000,-0.051000000000
19.063726582000,-0.048000000000
19.071413703000,-0.046000000000
19.079100824000,-0.046000000000
19.086787945000,-0.046000000000
19.094475066000,-0.043000000000
19.102162187000,-0.043000000000
19.109849308000,-0.043000000000
19.117536429000,-0.041000000000
19.125223550000,-0.038000000000
19.132910671000,-0.038000000000
19.140597792000,-0.038000000000
19.148284913000,-0.038000000000
19.155972034000,-0.036000000000
19.163659155000,-0.036000000000
19.171346276000,-0.038000000000
19.179033397000,-0.036000000000
19.186720518000,-0.036000000000
19.194407703000,-0.034000000000
19.202094824000,-0.036000000000
19.209781945000,-0.034000000000
19.217469066000,-0.034000000000
19.225156187000,-0.034000000000
19.232843308000,-0.036000000000
19.240530429000,-0.043000000000
19.248217550000,-0.046000000000
19.255904671000,-0.041000000000
19.263591792000,-0.036000000000
19.271278913000,-0.021000000000
19.278966034000,-0.002000000000
19.286653155000,-0.002000000000
19.294340276000,-0.002000000000
19.302027397000,0.000000000000
19.309714518000,-0.017000000000
19.317401639000,-0.038000000000
19.325088760000,-0.043000000000
19.332775881000,-0.038000000000
19.340463002000,-0.043000000000
19.348150123000,-0.043000000000
19.355837244000,-0.038000000000
19.363524365000,-0.043000000000
19.371211486000,-0.072000000000
19.378898607000,-0.102000000000
19.386585728000,0.097000000000
19.394272849000,0.734000000000
19.401959970000,1.340000000000
19.409647091000,1.082000000000
19.417334212000,0.043000000000
19.425021333000,-0.637000000000
19.432708454000,-0.440000000000
19.440395575000,-0.187000000000
19.448082696000,-0.223000000000
19.455769817000,-0.160000000000
19.463456938000,-0.072000000000
19.471144059000,-0.099000000000
19.478831180000,-0.102000000000
19.486518301000,-0.063000000000
19.494205422000,-0.055000000000
19.501892543000,-0.058000000000
19.509579664000,-0.041000000000
19.517266785000,-0.031000000000
19.524953906000,-0.029000000000
19.532641027000,-0.019000000000
19.540328148000,-0.007000000000
19.548015269000,0.000000000000
19.555702390000,0.009000000000
19.563389511000,0.019000000000
19.571076632000,0.026000000000
19.578763753000,0.036000000000
19.586450874000,0.046000000000
19.594137995000,0.055000000000
19.601825116000,0.063000000000
19.609512237000,0.072000000000
19.617199358000,0.082000000000
19.624886479000,0.092000000000
19.632573600000,0.102000000000
19.640260721000,0.114000000000
19.647947842000,0.124000000000
19.655634963000,0.133000000000
19.663322084000,0.143000000000
19.671009205000,0.153000000000
19.678696326000,0.158000000000
19.686383447000,0.160000000000
19.694070568000,0.163000000000
19.701757689000,0.163000000000
19.709444810000,0.158000000000
19.717131931000,0.148000000000
19.724819052000,0.128000000000
19.732506173000,0.099000000000
19.740193294000,0.058000000000
19.747880415000,0.017000000000
19.755567604000,-0.024000000000
19.763254377000,-0.058000000000
19.770941150000,-0.087000000000
19.778627923000,-0.109000000000
19.786314696000,-0.124000000000
19.794001469000,-0.131000000000
19.801688242000,-0.131000000000
19.809375015000,-0.131000000000
19.817061788000,-0.128000000000
19.824748561000,-0.126000000000
19.832435334000,-0.121000000000
19.840122107000,-0.119000000000
19.847808880000,-0.116000000000
19.855495653000,-0.116000000000
19.863182426000,-0.116000000000
19.870869199000,-0.116000000000
19.878555972000,-0.114000000000
19.886242745000,-0.114000000000
19.893929518000,-0.116000000000
19.901616291000,-0.116000000000
19.909303064000,-0.116000000000
19.916989837000,-0.116000000000
19.924676610000,-0.116000000000
19.932363383000,-0.116000000000
19.940050156000,-0.114000000000
19.947736929000,-0.114000000000
19.955423702000,-0.111000000000
19.963110475000,-0.111000000000
19.970797248000,-0.109000000000
19.978484021000,-0.107000000000
19.986170794000,-0.104000000000
19.993857567000,-0.104000000000
20.001544340000,-0.099000000000
20.009231113000,-0.097000000000
20.016917886000,-0.094000000000
20.024604659000,-0.092000000000
20.032291432000,-0.090000000000
20.039978205000,-0.090000000000
20.047664978000,-0.090000000000
20.055351751000,-0.087000000000
20.063038524000,-0.082000000000
20.070725297000,-0.080000000000
20.078412070000,-0.080000000000
20.086098843000,-0.080000000000
20.093785616000,-0.077000000000
20.101472389000,-0.075000000000
20.109159162000,-0.075000000000
20.116845935000,-0.072000000000
20.124532708000,-0.070000000000
20.132219481000,-0.070000000000
20.139906254000,-0.070000000000
20.147593027000,-0.070000000000
20.155279800000,-0.068000000000
20.162966573000,-0.068000000000
20.170653346000,-0.068000000000
20.178340119000,-0.068000000000
20.186026892000,-0.065000000000
20.193713665000,-0.063000000000
20.201400438000,-0.063000000000
20.209087211000,-0.060000000000
20.216773984000,-0.060000000000
20.224460757000,-0.058000000000
20.232147530000,-0.058000000000
20.239834303000,-0.058000000000
20.247521076000,-0.055000000000
20.255207849000,-0.055000000000
20.262894622000,-0.055000000000
20.270581395000,-0.053000000000
20.278268168000,-0.053000000000
20.285954941000,-0.053000000000
20.293641714000,-0.051000000000
20.301328487000,-0.051000000000
20.309015260000,-0.053000000000
20.316702070000,-0.048000000000
20.324389122000,-0.046000000000
20.332076174000,-0.046000000000
20.339763226000,-0.043000000000
20.347450278000,-0.043000000000
20.355137330000,-0.043000000000
20.362824382000,-0.046000000000
20.370511434000,-0.046000000000
20.378198486000,-0.053000000000
20.385885538000,-0.058000000000
20.393572590000,-0.058000000000
20.401259642000,-0.053000000000
20.408946694000,-0.043000000000
20.416633746000,-0.026000000000
20.424320798000,-0.014000000000
20.432007850000,-0.014000000000
20.439694902000,-0.014000000000
20.447381954000,-0.017000000000
20.455069006000,-0.038000000000
20.462756058000,-0.055000000000
20.470443110000,-0.055000000000
20.478130162000,-0.055000000000
20.485817214000,-0.055000000000
20.493504266000,-0.053000000000
20.501191318000,-0.051000000000
20.508878370000,-0.058000000000
20.516565422000,-0.090000000000
20.524252474000,-0.080000000000
20.531939526000,0.257000000000
20.539626578000,0.973000000000
20.547313630000,1.338000000000
20.555000682000,0.698000000000
20.562687734000,-0.364000000000
20.570374786000,-0.700000000000
20.578061838000,-0.364000000000
20.585748890000,-0.218000000000
20.593435942000,-0.243000000000
20.601122994000,-0.126000000000
20.608810046000,-0.075000000000
20.616497098000,-0.111000000000
20.624184150000,-0.090000000000
20.631871202000,-0.055000000000
20.639558254000,-0.060000000000
20.647245306000,-0.055000000000
20.654932358000,-0.038000000000
20.662619410000,-0.036000000000
20.670306462000,-0.031000000000
20.677993514000,-0.019000000000
20.685680566000,-0.009000000000
20.693367618000,-0.002000000000
20.701054670000,0.009000000000
20.708741722000,0.017000000000
20.716428774000,0.021000000000
20.724115826000,0.034000000000
20.731802878000,0.043000000000
20.739489930000,0.053000000000
20.747176982000,0.060000000000
20.754864034000,0.068000000000
20.762551086000,0.080000000000
20.770238138000,0.090000000000
20.777925190000,0.102000000000
20.785612242000,0.114000000000
20.793299294000,0.128000000000
20.800986346000,0.141000000000
20.808673398000,0.150000000000
20.816360450000,0.155000000000
20.824047502000,0.155000000000
20.831734554000,0.163000000000
20.839421606000,0.165000000000
20.847108658000,0.160000000000
20.854795710000,0.155000000000
20.862482762000,0.141000000000
20.870169814000,0.111000000000
20.877856880000,0.075000000000
20.885544001000,0.031000000000
20.893231122000,-0.017000000000
20.900918243000,-0.060000000000
20.908605364000,-0.094000000000
20.916292485000,-0.121000000000
20.923979606000,-0.138000000000
20.931666727000,-0.145000000000
20.939353848000,-0.153000000000
20.947040969000,-0.158000000000
20.954728090000,-0.155000000000
20.962415211000,-0.150000000000
20.970102332000,-0.145000000000
20.977789453000,-0.141000000000
20.985476574000,-0.138000000000
20.993163695000,-0.133000000000
21.000850816000,-0.131000000000
21.008537937000,-0.131000000000
21.016225058000,-0.131000000000
21.023912179000,-0.131000000000
21.031599300000,-0.128000000000
21.039286421000,-0.131000000000
21.046973542000,-0.136000000000
21.054660663000,-0.133000000000
21.062347784000,-0.133000000000
21.070034905000,-0.136000000000
21.077722026000,-0.136000000000
21.085409147000,-0.133000000000
21.093096268000,-0.131000000000
21.100783389000,-0.128000000000
21.108470510000,-0.128000000000
21.116157631000,-0.124000000000
21.123844752000,-0.119000000000
21.131531873000,-0.119000000000
21.139218994000,-0.119000000000
21.146906115000,-0.114000000000
21.154593236000,-0.111000000000
21.162280357000,-0.111000000000
21.169967478000,-0.109000000000
21.177654599000,-0.104000000000
21.185341720000,-0.102000000000
21.193028841000,-0.099000000000
21.200715962000,-0.097000000000
21.208403083000,-0.094000000000
21.216090204000,-0.094000000000
21.223777325000,-0.094000000000
21.231464446000,-0.092000000000
21.239151567000,-0.090000000000
21.246838688000,-0.087000000000
21.254525809000,-0.087000000000
21.262212930000,-0.085000000000
21.269900051000,-0.082000000000
21.277587172000,-0.080000000000
21.285274293000,-0.080000000000
21.292961414000,-0.077000000000
21.300648535000,-0.075000000000
21.308335656000,-0.072000000000
21.316022777000,-0.072000000000
21.323709898000,-0.072000000000
21.331397019000,-0.070000000000
21.339084140000,-0.070000000000
21.346771261000,-0.068000000000
21.354458382000,-0.068000000000
21.362145503000,-0.068000000000
21.369832624000,-0.065000000000
21.377519745000,-0.060000000000
21.385206866000,-0.060000000000
21.392893987000,-0.058000000000
21.400581108000,-0.058000000000
21.408268229000,-0.058000000000
21.415955350000,-0.058000000000
21.423642471000,-0.060000000000
21.431329592000,-0.063000000000
21.439016777000,-0.063000000000
21.446703898000,-0.060000000000
21.454391019000,-0.053000000000
21.462078140000,-0.036000000000
21.469765261000,-0.021000000000
21.477452382000,-0.017000000000
21.485139503000,-0.017000000000
21.492826624000,-0.026000000000
21.500513745000,-0.048000000000
21.508200866000,-0.058000000000
21.515887987000,-0.055000000000
21.523575108000,-0.060000000000
21.531262229000,-0.060000000000
21.538949350000,-0.055000000000
21.546636471000,-0.055000000000
21.554323592000,-0.068000000000
21.562010713000,-0.090000000000
21.569697834000,0.024000000000
21.577384955000,0.557000000000
21.585072076000,1.262000000000
21.592759197000,1.223000000000
21.600446318000,0.182000000000
21.608133439000,-0.725000000000
21.615820560000,-0.639000000000
21.623507681000,-0.289000000000
21.631194802000,-0.282000000000
21.638881923000,-0.221000000000
21.646569044000,-0.068000000000
21.654256165000,-0.072000000000
21.661943286000,-0.099000000000
21.669630407000,-0.053000000000
21.677317528000,-0.038000000000
21.685004649000,-0.046000000000
21.692691770000,-0.031000000000
21.700378891000,-0.019000000000
21.708066012000,-0.017000000000
21.715753133000,-0.009000000000
21.723440254000,0.002000000000
21.731127375000,0.009000000000
21.738814496000,0.017000000000
21.746501617000,0.026000000000
21.754188738000,0.036000000000
21.761875859000,0.043000000000
21.769562980000,0.053000000000
21.777250101000,0.063000000000
21.784937222000,0.072000000000
21.792624343000,0.082000000000
21.800311464000,0.092000000000
21.807998585000,0.104000000000
21.815685706000,0.116000000000
21.823372827000,0.131000000000
21.831059948000,0.145000000000
21.838747069000,0.160000000000
21.846434190000,0.172000000000
21.854121311000,0.184000000000
21.861808432000,0.194000000000
21.869495553000,0.199000000000
21.877182674000,0.201000000000
21.884869795000,0.201000000000
21.892556916000,0.197000000000
21.900244037000,0.182000000000
21.907931158000,0.158000000000
21.915618279000,0.116000000000
21.923305400000,0.063000000000
21.930992521000,0.004000000000
21.938679642000,-0.043000000000
21.946366763000,-0.085000000000
21.954053884000,-0.114000000000
21.961741005000,-0.136000000000
21.969428126000,-0.148000000000
21.977115247000,-0.153000000000
21.984802368000,-0.155000000000
21.992489489000,-0.153000000000
22.000176674000,-0.148000000000
22.007863726000,-0.143000000000
22.015550778000,-0.138000000000
22.023237830000,-0.136000000000
22.030924882000,-0.131000000000
22.038611934000,-0.128000000000
22.046298986000,-0.128000000000
22.053986038000,-0.126000000000
22.061673090000,-0.126000000000
22.069360142000,-0.126000000000
22.077047194000,-0.128000000000
22.084734246000,-0.128000000000
22.092421298000,-0.128000000000
22.100108350000,-0.128000000000
22.107795402000,-0.128000000000
22.115482454000,-0.128000000000
22.123169506000,-0.126000000000
22.130856558000,-0.124000000000
22.138543610000,-0.121000000000
22.146230662000,-0.121000000000
22.153917714000,-0.119000000000
22.161604766000,-0.116000000000
22.169291818000,-0.114000000000
22.176978870000,-0.111000000000
22.184665922000,-0.109000000000
22.192352974000,-0.107000000000
22.200040026000,-0.104000000000
22.207727078000,-0.102000000000
22.215414130000,-0.099000000000
22.223101182000,-0.097000000000
22.230788234000,-0.094000000000
22.238475286000,-0.090000000000
22.246162338000,-0.090000000000
22.253849390000,-0.087000000000
22.261536442000,-0.085000000000
22.269223494000,-0.082000000000
22.276910546000,-0.082000000000
22.284597598000,-0.080000000000
22.292284650000,-0.077000000000
22.299971702000,-0.075000000000
22.307658754000,-0.075000000000
22.315345806000,-0.072000000000
22.323032858000,-0.070000000000
22.330719910000,-0.070000000000
22.338406962000,-0.070000000000
22.346094014000,-0.065000000000
22.353781066000,-0.065000000000
22.361468118000,-0.065000000000
22.369155170000,-0.063000000000
22.376842222000,-0.063000000000
22.384529274000,-0.063000000000
22.392216326000,-0.063000000000
22.399903378000,-0.068000000000
22.407590430000,-0.072000000000
22.415277482000,-0.070000000000
22.422964534000,-0.063000000000
22.430651586000,-0.048000000000
22.438338638000,-0.031000000000
22.446025690000,-0.024000000000
22.453712742000,-0.024000000000
22.461399794000,-0.021000000000
22.469086846000,-0.034000000000
22.476773898000,-0.058000000000
22.484460950000,-0.065000000000
22.492148002000,-0.063000000000
22.499835054000,-0.065000000000
22.507522106000,-0.063000000000
22.515209158000,-0.060000000000
22.522896210000,-0.063000000000
22.530583262000,-0.090000000000
22.538270314000,-0.114000000000
22.545957366000,0.082000000000
22.553644418000,0.725000000000
22.561331488000,1.340000000000
22.569018261000,1.090000000000
22.576705034000,0.024000000000
22.584391807000,-0.681000000000
22.592078580000,-0.469000000000
22.599765353000,-0.197000000000
22.607452126000,-0.236000000000
22.615138899000,-0.172000000000
22.622825672000,-0.077000000000
22.630512445000,-0.107000000000
22.638199218000,-0.111000000000
22.645885991000,-0.070000000000
22.653572764000,-0.068000000000
22.661259537000,-0.068000000000
22.668946310000,-0.051000000000
22.676633083000,-0.041000000000
22.684319856000,-0.038000000000
22.692006629000,-0.029000000000
22.699693402000,-0.019000000000
22.707380175000,-0.014000000000
22.715066948000,-0.002000000000
22.722753721000,0.007000000000
22.730440494000,0.017000000000
22.738127267000,0.026000000000
22.745814040000,0.036000000000
22.753500813000,0.046000000000
22.761187586000,0.055000000000
22.768874359000,0.068000000000
22.776561132000,0.080000000000
22.784247905000,0.090000000000
22.791934678000,0.102000000000
22.799621451000,0.116000000000
22.807308224000,0.128000000000
22.814994997000,0.143000000000
22.822681770000,0.155000000000
22.830368543000,0.165000000000
22.838055316000,0.172000000000
22.845742089000,0.175000000000
22.853428862000,0.175000000000
22.861115635000,0.172000000000
22.868802408000,0.163000000000
22.876489181000,0.143000000000
22.884175954000,0.111000000000
22.891862727000,0.068000000000
22.899549500000,0.019000000000
22.907236273000,-0.029000000000
22.914923046000,-0.075000000000
22.922609819000,-0.109000000000
22.930296592000,-0.136000000000
22.937983365000,-0.153000000000
22.945670138000,-0.160000000000
22.953356911000,-0.163000000000
22.961043684000,-0.165000000000
22.968730457000,-0.163000000000
22.976417230000,-0.160000000000
22.984104003000,-0.155000000000
22.991790776000,-0.150000000000
22.999477549000,-0.148000000000
23.007164322000,-0.143000000000
23.014851095000,-0.141000000000
23.022537868000,-0.138000000000
23.030224641000,-0.133000000000
23.037911414000,-0.131000000000
23.045598187000,-0.131000000000
23.053284960000,-0.131000000000
23.060971733000,-0.131000000000
23.068658506000,-0.131000000000
23.076345279000,-0.131000000000
23.084032052000,-0.128000000000
23.091718825000,-0.128000000000
23.099405598000,-0.126000000000
23.107092371000,-0.124000000000
23.114779144000,-0.124000000000
23.122465950000,-0.121000000000
23.130153071000,-0.119000000000
23.137840192000,-0.116000000000
23.145527313000,-0.114000000000
23.153214434000,-0.114000000000
23.160901555000,-0.111000000000
23.168588676000,-0.109000000000
23.176275797000,-0.104000000000
23.183962918000,-0.102000000000
23.191650039000,-0.102000000000
23.199337160000,-0.099000000000
23.207024281000,-0.097000000000
23.214711402000,-0.094000000000
23.222398523000,-0.092000000000
23.230085644000,-0.090000000000
23.237772765000,-0.087000000000
23.245459886000,-0.085000000000
23.253147007000,-0.082000000000
23.260834128000,-0.082000000000
23.268521249000,-0.080000000000
23.276208370000,-0.080000000000
23.283895491000,-0.080000000000
23.291582612000,-0.077000000000
23.299269733000,-0.075000000000
23.306956854000,-0.075000000000
23.314643975000,-0.072000000000
23.322331096000,-0.070000000000
23.330018217000,-0.070000000000
23.337705338000,-0.068000000000
23.345392459000,-0.065000000000
23.353079580000,-0.065000000000
23.360766701000,-0.063000000000
23.368453822000,-0.063000000000
23.376140943000,-0.063000000000
23.383828064000,-0.063000000000
23.391515185000,-0.060000000000
23.399202306000,-0.058000000000
23.406889427000,-0.058000000000
23.414576548000,-0.058000000000
23.422263669000,-0.055000000000
23.429950790000,-0.058000000000
23.437637911000,-0.055000000000
23.445325032000,-0.055000000000
23.453012153000,-0.060000000000
23.460699274000,-0.065000000000
23.468386395000,-0.063000000000
23.476073516000,-0.058000000000
23.483760637000,-0.046000000000
23.491447758000,-0.024000000000
23.499134879000,-0.019000000000
23.506822000000,-0.021000000000
23.514509121000,-0.019000000000
23.522196242000,-0.029000000000
23.529883363000,-0.053000000000
23.537570484000,-0.063000000000
23.545257605000,-0.058000000000
23.552944726000,-0.060000000000
23.560631847000,-0.060000000000
23.568318968000,-0.055000000000
23.576006089000,-0.058000000000
23.583693210000,-0.077000000000
23.591380331000,-0.116000000000
23.599067452000,-0.014000000000
23.606754573000,0.515000000000
23.614441694000,1.219000000000
23.622128815000,1.238000000000
23.629815936000,0.304000000000
23.637503057000,-0.581000000000
23.645190178000,-0.557000000000
23.652877299000,-0.231000000000
23.660564420000,-0.218000000000
23.668251541000,-0.201000000000
23.675938662000,-0.092000000000
23.683625851000,-0.099000000000
23.691312972000,-0.121000000000
23.699000093000,-0.082000000000
23.706687214000,-0.065000000000
23.714374335000,-0.072000000000
23.722061456000,-0.058000000000
23.729748577000,-0.043000000000
23.737435698000,-0.043000000000
23.745122819000,-0.036000000000
23.752809940000,-0.024000000000
23.760497061000,-0.014000000000
23.768184182000,-0.007000000000
23.775871303000,0.000000000000
23.783558424000,0.009000000000
23.791245545000,0.021000000000
23.798932666000,0.031000000000
23.806619787000,0.038000000000
23.814306908000,0.048000000000
23.821994029000,0.058000000000
23.829681150000,0.070000000000
23.837368271000,0.082000000000
23.845055392000,0.092000000000
23.852742513000,0.102000000000
23.860429634000,0.114000000000
23.868116755000,0.126000000000
23.875803876000,0.141000000000
23.883490997000,0.150000000000
23.891178118000,0.158000000000
23.898865239000,0.163000000000
23.906552360000,0.165000000000
23.914239481000,0.163000000000
23.921926602000,0.158000000000
23.929613723000,0.145000000000
23.937300844000,0.124000000000
23.944987965000,0.087000000000
23.952675086000,0.043000000000
23.960362207000,-0.002000000000
23.968049328000,-0.048000000000
23.975736449000,-0.087000000000
23.983423570000,-0.116000000000
23.991110691000,-0.138000000000
23.998797812000,-0.150000000000
24.006484933000,-0.155000000000
24.014172054000,-0.158000000000
24.021859175000,-0.158000000000
24.029546296000,-0.153000000000
24.037233417000,-0.150000000000
24.044920538000,-0.148000000000
24.052607659000,-0.143000000000
24.060294780000,-0.141000000000
24.067981901000,-0.141000000000
24.075669022000,-0.138000000000
24.083356143000,-0.133000000000
24.091043264000,-0.133000000000
24.098730385000,-0.133000000000
24.106417506000,-0.131000000000
24.114104627000,-0.131000000000
24.121791748000,-0.131000000000
24.129478869000,-0.131000000000
24.137165990000,-0.131000000000
24.144853111000,-0.131000000000
24.152540232000,-0.133000000000
24.160227353000,-0.131000000000
24.167914474000,-0.128000000000
24.175601595000,-0.128000000000
24.183288716000,-0.126000000000
24.190975837000,-0.121000000000
24.198662958000,-0.121000000000
24.206350079000,-0.119000000000
24.214037200000,-0.116000000000
24.221724321000,-0.116000000000
24.229411442000,-0.111000000000
24.237098563000,-0.107000000000
24.244785748000,-0.107000000000
24.252472869000,-0.104000000000
24.260159990000,-0.102000000000
24.267847111000,-0.102000000000
24.275534232000,-0.099000000000
24.283221353000,-0.097000000000
24.290908474000,-0.094000000000
24.298595595000,-0.094000000000
24.306282716000,-0.092000000000
24.313969837000,-0.087000000000
24.321656958000,-0.087000000000
24.329344079000,-0.087000000000
24.337031200000,-0.087000000000
24.344718321000,-0.087000000000
24.352405442000,-0.085000000000
24.360092563000,-0.080000000000
24.367779684000,-0.080000000000
24.375466805000,-0.077000000000
24.383153926000,-0.075000000000
24.390841047000,-0.075000000000
24.398528168000,-0.075000000000
24.406215289000,-0.075000000000
24.413902410000,-0.072000000000
24.421589531000,-0.070000000000
24.429276652000,-0.072000000000
24.436963773000,-0.070000000000
24.444650894000,-0.065000000000
24.452338015000,-0.065000000000
24.460025136000,-0.068000000000
24.467712257000,-0.068000000000
24.475399378000,-0.063000000000
24.483086499000,-0.063000000000
24.490773620000,-0.063000000000
24.498460741000,-0.060000000000
24.506147862000,-0.060000000000
24.513834983000,-0.060000000000
24.521522104000,-0.055000000000
24.529209225000,-0.055000000000
24.536896346000,-0.053000000000
24.544583467000,-0.053000000000
24.552270588000,-0.053000000000
24.559957709000,-0.055000000000
24.567644830000,-0.055000000000
24.575331951000,-0.058000000000
24.583019072000,-0.060000000000
24.590706193000,-0.063000000000
24.598393314000,-0.063000000000
24.606080435000,-0.055000000000
24.613767556000,-0.048000000000
24.621454677000,-0.034000000000
24.629141798000,-0.019000000000
24.636828919000,-0.021000000000
24.644516040000,-0.024000000000
24.652203161000,-0.026000000000
24.659890282000,-0.046000000000
24.667577403000,-0.058000000000
24.675264524000,-0.058000000000
24.682951645000,-0.058000000000
24.690638766000,-0.058000000000
24.698325887000,-0.058000000000
24.706013008000,-0.058000000000
24.713700129000,-0.065000000000
24.721387250000,-0.092000000000
24.729074371000,-0.080000000000
24.736761492000,0.240000000000
24.744448613000,0.958000000000
24.752135734000,1.365000000000
24.759822855000,0.729000000000
24.767509976000,-0.391000000000
24.775197097000,-0.764000000000
24.782884218000,-0.399000000000
24.790571339000,-0.233000000000
24.798258460000,-0.265000000000
24.805945645000,-0.133000000000
24.813632627000,-0.060000000000
24.821319609000,-0.104000000000
24.829006591000,-0.090000000000
24.836693573000,-0.051000000000
24.844380555000,-0.058000000000
24.852067537000,-0.053000000000
24.859754519000,-0.034000000000
24.867441501000,-0.029000000000
24.875128483000,-0.024000000000
24.882815465000,-0.014000000000
24.890502447000,-0.007000000000
24.898189429000,0.000000000000
24.905876411000,0.009000000000
24.913563393000,0.019000000000
24.921250375000,0.029000000000
24.928937357000,0.036000000000
24.936624339000,0.046000000000
24.944311321000,0.058000000000
24.951998303000,0.065000000000
24.959685285000,0.075000000000
24.967372267000,0.087000000000
24.975059249000,0.099000000000
24.982746231000,0.111000000000
24.990433213000,0.126000000000
24.998120195000,0.141000000000
25.005807177000,0.153000000000
25.013494159000,0.167000000000
25.021181141000,0.177000000000
25.028868123000,0.182000000000
25.036555105000,0.184000000000
25.044242087000,0.184000000000
25.051929069000,0.182000000000
25.059616051000,0.177000000000
25.067303033000,0.160000000000
25.074990015000,0.128000000000
25.082676997000,0.082000000000
25.090363979000,0.029000000000
25.098050961000,-0.024000000000
25.105737943000,-0.072000000000
25.113424925000,-0.111000000000
25.121111907000,-0.141000000000
25.128798889000,-0.160000000000
25.136485871000,-0.172000000000
25.144172853000,-0.175000000000
25.151859835000,-0.175000000000
25.159546817000,-0.170000000000
25.167233799000,-0.165000000000
25.174920781000,-0.160000000000
25.182607763000,-0.155000000000
25.190294745000,-0.150000000000
25.197981727000,-0.145000000000
25.205668709000,-0.141000000000
25.213355691000,-0.141000000000
25.221042673000,-0.141000000000
25.228729655000,-0.138000000000
25.236416637000,-0.138000000000
25.244103619000,-0.138000000000
25.251790601000,-0.138000000000
25.259477583000,-0.138000000000
25.267164565000,-0.138000000000
25.274851547000,-0.138000000000
25.282538529000,-0.138000000000
25.290225511000,-0.138000000000
25.297912493000,-0.133000000000
25.305599475000,-0.131000000000
25.313286457000,-0.128000000000
25.320973439000,-0.126000000000
25.328660421000,-0.126000000000
25.336347403000,-0.124000000000
25.344034385000,-0.121000000000
25.351721367000,-0.119000000000
25.359408349000,-0.116000000000
25.367095372000,-0.111000000000
25.374782215000,-0.109000000000
25.382469058000,-0.107000000000
25.390155901000,-0.104000000000
25.397842744000,-0.099000000000
25.405529587000,-0.099000000000
25.413216430000,-0.097000000000
25.420903273000,-0.092000000000
25.428590116000,-0.087000000000
25.436276959000,-0.087000000000
25.443963802000,-0.085000000000
25.451650645000,-0.082000000000
25.459337488000,-0.082000000000
25.467024331000,-0.080000000000
25.474711174000,-0.075000000000
25.482398017000,-0.075000000000
25.490084860000,-0.072000000000
25.497771703000,-0.072000000000
25.505458546000,-0.070000000000
25.513145389000,-0.068000000000
25.520832232000,-0.068000000000
25.528519075000,-0.065000000000
25.536205918000,-0.065000000000
25.543892761000,-0.063000000000
25.551579604000,-0.063000000000
25.559266447000,-0.060000000000
25.566953290000,-0.058000000000
25.574640133000,-0.058000000000
25.582326976000,-0.058000000000
25.590013819000,-0.058000000000
25.597700662000,-0.055000000000
25.605387505000,-0.055000000000
25.613074348000,-0.055000000000
25.620761191000,-0.053000000000
25.628448034000,-0.053000000000
25.636134877000,-0.060000000000
25.643821720000,-0.063000000000
25.651508563000,-0.060000000000
25.659195406000,-0.058000000000
25.666882249000,-0.043000000000
25.674569092000,-0.021000000000
25.682255935000,-0.017000000000
25.689942778000,-0.019000000000
25.697629621000,-0.014000000000
25.705316464000,-0.026000000000
25.713003307000,-0.048000000000
25.720690150000,-0.058000000000
25.728376993000,-0.055000000000
25.736063836000,-0.058000000000
25.743750679000,-0.058000000000
25.751437522000,-0.053000000000
25.759124365000,-0.053000000000
25.766811208000,-0.070000000000
25.774498051000,-0.111000000000
25.782184894000,-0.048000000000
25.789871737000,0.420000000000
25.797558580000,1.172000000000
25.805245423000,1.367000000000
25.812932266000,0.523000000000
25.820619109000,-0.513000000000
25.828305952000,-0.642000000000
25.835992795000,-0.267000000000
25.843679638000,-0.206000000000
25.851366481000,-0.223000000000
25.859053324000,-0.104000000000
25.866740167000,-0.087000000000
25.874427010000,-0.124000000000
25.882113853000,-0.090000000000
25.889800696000,-0.065000000000
25.897487539000,-0.072000000000
25.905174382000,-0.060000000000
25.912861225000,-0.046000000000
25.920548068000,-0.041000000000
25.928234921000,-0.034000000000
25.935922042000,-0.021000000000
25.943609163000,-0.014000000000
25.951296284000,-0.009000000000
25.958983405000,0.000000000000
25.966670526000,0.009000000000
25.974357647000,0.017000000000
25.982044768000,0.026000000000
25.989731889000,0.038000000000
25.997419010000,0.048000000000
26.005106131000,0.060000000000
26.012793252000,0.070000000000
26.020480373000,0.082000000000
26.028167494000,0.097000000000
26.035854615000,0.109000000000
26.043541736000,0.124000000000
26.051228857000,0.141000000000
26.058915978000,0.153000000000
26.066603099000,0.167000000000
26.074290220000,0.177000000000
26.081977341000,0.182000000000
26.089664462000,0.184000000000
26.097351583000,0.184000000000
26.105038704000,0.177000000000
26.112725825000,0.163000000000
26.120412946000,0.138000000000
26.128100067000,0.097000000000
26.135787188000,0.046000000000
26.143474309000,-0.004000000000
26.151161430000,-0.055000000000
26.158848551000,-0.102000000000
26.166535672000,-0.136000000000
26.174222793000,-0.158000000000
26.181909914000,-0.170000000000
26.189597035000,-0.177000000000
26.197284156000,-0.177000000000
26.204971277000,-0.172000000000
26.212658398000,-0.167000000000
26.220345519000,-0.163000000000
26.228032640000,-0.158000000000
26.235719761000,-0.153000000000
26.243406882000,-0.148000000000
26.251094003000,-0.143000000000
26.258781124000,-0.136000000000
26.266468245000,-0.133000000000
26.274155366000,-0.133000000000
26.281842487000,-0.131000000000
26.289529608000,-0.131000000000
26.297216729000,-0.131000000000
26.304903850000,-0.128000000000
26.312590971000,-0.131000000000
26.320278092000,-0.131000000000
26.327965213000,-0.128000000000
26.335652334000,-0.126000000000
26.343339455000,-0.126000000000
26.351026576000,-0.124000000000
26.358713697000,-0.121000000000
26.366400818000,-0.119000000000
26.374087939000,-0.119000000000
26.381775060000,-0.116000000000
26.389462181000,-0.114000000000
26.397149302000,-0.111000000000
26.404836423000,-0.109000000000
26.412523544000,-0.107000000000
26.420210665000,-0.104000000000
26.427897786000,-0.102000000000
26.435584907000,-0.099000000000
26.443272028000,-0.097000000000
26.450959149000,-0.094000000000
26.458646270000,-0.092000000000
26.466333391000,-0.090000000000
26.474020512000,-0.087000000000
26.481707633000,-0.085000000000
26.489394818000,-0.082000000000
26.497081591000,-0.080000000000
26.504768364000,-0.080000000000
26.512455137000,-0.077000000000
26.520141910000,-0.075000000000
26.527828683000,-0.072000000000
26.535515456000,-0.072000000000
26.543202229000,-0.072000000000
26.550889002000,-0.070000000000
26.558575775000,-0.070000000000
26.566262548000,-0.070000000000
26.573949321000,-0.068000000000
26.581636094000,-0.065000000000
26.589322867000,-0.065000000000
26.597009640000,-0.063000000000
26.604696413000,-0.063000000000
26.612383186000,-0.060000000000
26.620069959000,-0.060000000000
26.627756732000,-0.058000000000
26.635443505000,-0.058000000000
26.643130278000,-0.058000000000
26.650817051000,-0.055000000000
26.658503824000,-0.055000000000
26.666190597000,-0.053000000000
26.673877370000,-0.053000000000
26.681564143000,-0.053000000000
26.689250916000,-0.051000000000
26.696937689000,-0.051000000000
26.704624462000,-0.048000000000
26.712311235000,-0.046000000000
26.719998008000,-0.046000000000
26.727684781000,-0.046000000000
26.735371554000,-0.046000000000
26.743058327000,-0.046000000000
26.750745100000,-0.046000000000
26.758431873000,-0.043000000000
26.766118646000,-0.043000000000
26.773805419000,-0.043000000000
26.781492192000,-0.043000000000
26.789178965000,-0.041000000000
26.796865738000,-0.041000000000
26.804552511000,-0.041000000000
26.812239284000,-0.041000000000
26.819926057000,-0.038000000000
26.827612830000,-0.038000000000
26.835299603000,-0.041000000000
26.842986376000,-0.038000000000
26.850673149000,-0.036000000000
26.858359922000,-0.036000000000
26.866046695000,-0.038000000000
26.873733468000,-0.038000000000
26.881420241000,-0.036000000000
26.889107014000,-0.036000000000
26.896793787000,-0.036000000000
26.904480560000,-0.036000000000
26.912167333000,-0.036000000000
26.919854106000,-0.034000000000
26.927540879000,-0.036000000000
26.935227652000,-0.036000000000
26.942914425000,-0.036000000000
26.950601198000,-0.038000000000
26.958287971000,-0.046000000000
26.965974744000,-0.048000000000
26.973661517000,-0.043000000000
26.981348290000,-0.031000000000
26.989035063000,-0.012000000000
26.996721836000,-0.004000000000
27.004408609000,-0.007000000000
27.012095382000,-0.004000000000
27.019782155000,-0.012000000000
27.027468928000,-0.036000000000
27.035155701000,-0.046000000000
27.042842474000,-0.041000000000
27.050529288000,-0.046000000000
27.058216479000,-0.048000000000
27.065903670000,-0.043000000000
27.073590861000,-0.043000000000
27.081278052000,-0.065000000000
27.088965243000,-0.109000000000
27.096652434000,-0.036000000000
27.104339625000,0.447000000000
27.112026816000,1.170000000000
27.119714007000,1.321000000000
27.127401198000,0.498000000000
27.135088389000,-0.472000000000
27.142775580000,-0.579000000000
27.150462771000,-0.231000000000
27.158149962000,-0.192000000000
27.165837153000,-0.211000000000
27.173524344000,-0.109000000000
27.181211535000,-0.094000000000
27.188898726000,-0.126000000000
27.196585917000,-0.092000000000
27.204273108000,-0.070000000000
27.211960299000,-0.077000000000
27.219647490000,-0.068000000000
27.227334681000,-0.053000000000
27.235021872000,-0.048000000000
27.242709063000,-0.041000000000
27.250396254000,-0.029000000000
27.258083445000,-0.021000000000
27.265770636000,-0.012000000000
27.273457827000,-0.002000000000
27.281145018000,0.007000000000
27.288832209000,0.014000000000
27.296519400000,0.024000000000
27.304206591000,0.034000000000
27.311893782000,0.043000000000
27.319580973000,0.053000000000
27.327268164000,0.063000000000
27.334955355000,0.072000000000
27.342642546000,0.082000000000
27.350329737000,0.092000000000
27.358016928000,0.102000000000
27.365704119000,0.114000000000
27.373391310000,0.126000000000
27.381078501000,0.138000000000
27.388765692000,0.145000000000
27.396452883000,0.153000000000
27.404140074000,0.158000000000
27.411827265000,0.160000000000
27.419514456000,0.160000000000
27.427201647000,0.153000000000
27.434888838000,0.138000000000
27.442576029000,0.116000000000
27.450263220000,0.082000000000
27.457950411000,0.038000000000
27.465637602000,-0.007000000000
27.473324793000,-0.046000000000
27.481011984000,-0.080000000000
27.488699175000,-0.107000000000
27.496386366000,-0.126000000000
27.504073557000,-0.138000000000
27.511760748000,-0.145000000000
27.519447939000,-0.145000000000
27.527135130000,-0.143000000000
27.534822321000,-0.141000000000
27.542509512000,-0.136000000000
27.550196703000,-0.133000000000
27.557883894000,-0.131000000000
27.565571085000,-0.128000000000
27.573258276000,-0.126000000000
27.580945467000,-0.124000000000
27.588632658000,-0.121000000000
27.596319849000,-0.119000000000
27.604007040000,-0.119000000000
27.611694272000,-0.121000000000
27.619381254000,-0.121000000000
27.627068236000,-0.121000000000
27.634755218000,-0.121000000000
27.642442200000,-0.124000000000
27.650129182000,-0.124000000000
27.657816164000,-0.124000000000
27.665503146000,-0.121000000000
27.673190128000,-0.119000000000
27.680877110000,-0.116000000000
27.688564092000,-0.114000000000
27.696251074000,-0.111000000000
27.703938056000,-0.109000000000
27.711625038000,-0.111000000000
27.719312020000,-0.109000000000
27.726999002000,-0.104000000000
27.734685984000,-0.102000000000
27.742372966000,-0.099000000000
27.750059948000,-0.097000000000
27.757746930000,-0.099000000000
27.765433912000,-0.097000000000
27.773120894000,-0.094000000000
27.780807876000,-0.092000000000
27.788494858000,-0.085000000000
27.796181840000,-0.082000000000
27.803868822000,-0.082000000000
27.811555804000,-0.080000000000
27.819242786000,-0.080000000000
27.826929768000,-0.077000000000
27.834616750000,-0.075000000000
27.842303732000,-0.075000000000
27.849990714000,-0.075000000000
27.857677696000,-0.072000000000
27.865364678000,-0.070000000000
27.873051660000,-0.068000000000
27.880738642000,-0.065000000000
27.888425624000,-0.065000000000
27.896112606000,-0.063000000000
27.903799588000,-0.063000000000
27.911486570000,-0.063000000000
27.919173552000,-0.063000000000
27.926860534000,-0.063000000000
27.934547516000,-0.060000000000
27.942234498000,-0.058000000000
27.949921480000,-0.058000000000
27.957608462000,-0.058000000000
27.965295444000,-0.055000000000
27.972982426000,-0.055000000000
27.980669408000,-0.055000000000
27.988356390000,-0.055000000000
27.996043372000,-0.053000000000
28.003730354000,-0.048000000000
28.011417336000,-0.048000000000
28.019104318000,-0.048000000000
28.026791300000,-0.048000000000
28.034478282000,-0.051000000000
28.042165264000,-0.048000000000
28.049852246000,-0.046000000000
28.057539228000,-0.043000000000
28.065226210000,-0.046000000000
28.072913192000,-0.043000000000
28.080600174000,-0.043000000000
28.088287156000,-0.046000000000
28.095974138000,-0.043000000000
28.103661120000,-0.041000000000
28.111348102000,-0.043000000000
28.119035084000,-0.043000000000
28.126722066000,-0.041000000000
28.134409048000,-0.043000000000
28.142096030000,-0.043000000000
28.149783012000,-0.041000000000
28.157469994000,-0.038000000000
28.165156976000,-0.041000000000
28.172843995000,-0.041000000000
28.180531116000,-0.041000000000
28.188218237000,-0.041000000000
28.195905358000,-0.041000000000
28.203592479000,-0.038000000000
28.211279600000,-0.038000000000
28.218966721000,-0.036000000000
28.226653842000,-0.036000000000
28.234340963000,-0.038000000000
28.242028084000,-0.041000000000
28.249715205000,-0.036000000000
28.257402326000,-0.041000000000
28.265089447000,-0.048000000000
28.272776568000,-0.051000000000
28.280463689000,-0.048000000000
28.288150810000,-0.046000000000
28.295837931000,-0.038000000000
28.303525052000,-0.019000000000
28.311212173000,-0.009000000000
28.318899294000,-0.017000000000
28.326586415000,-0.012000000000
28.334273536000,-0.014000000000
28.341960657000,-0.036000000000
28.349647778000,-0.051000000000
28.357334899000,-0.053000000000
28.365022020000,-0.053000000000
28.372709141000,-0.053000000000
28.380396262000,-0.048000000000
28.388083383000,-0.048000000000
28.395770504000,-0.068000000000
28.403457625000,-0.102000000000
28.411144746000,0.000000000000
28.418831867000,0.520000000000
28.426518988000,1.226000000000
28.434206109000,1.248000000000
28.441893230000,0.301000000000
28.449580351000,-0.618000000000
28.457267472000,-0.603000000000
28.464954593000,-0.250000000000
28.472641714000,-0.233000000000
28.480328835000,-0.214000000000
28.488015956000,-0.087000000000
28.495703077000,-0.090000000000
28.503390198000,-0.121000000000
28.511077319000,-0.077000000000
28.518764440000,-0.055000000000
28.526451561000,-0.065000000000
28.534138682000,-0.055000000000
28.541825803000,-0.038000000000
28.549512924000,-0.031000000000
28.557200045000,-0.024000000000
28.564887166000,-0.014000000000
28.572574287000,-0.007000000000
28.580261408000,0.000000000000
28.587948529000,0.012000000000
28.595635650000,0.019000000000
28.603322771000,0.024000000000
28.611009892000,0.029000000000
28.618697013000,0.038000000000
28.626384134000,0.051000000000
28.634071255000,0.063000000000
28.641758376000,0.075000000000
28.649445497000,0.085000000000
28.657132618000,0.094000000000
28.664819739000,0.109000000000
28.672506860000,0.124000000000
28.680193981000,0.136000000000
28.687881102000,0.143000000000
28.695568223000,0.158000000000
28.703255344000,0.175000000000
28.710942465000,0.182000000000
28.718629586000,0.182000000000
28.726316707000,0.180000000000
28.734003892000,0.177000000000
28.741690595000,0.170000000000
28.749377298000,0.150000000000
28.757064001000,0.119000000000
28.764750704000,0.077000000000
28.772437407000,0.029000000000
28.780124110000,-0.024000000000
28.787810813000,-0.072000000000
28.795497516000,-0.111000000000
28.803184219000,-0.136000000000
28.810870922000,-0.153000000000
28.818557625000,-0.165000000000
28.826244328000,-0.170000000000
28.833931031000,-0.165000000000
28.841617734000,-0.160000000000
28.849304437000,-0.158000000000
28.856991140000,-0.155000000000
28.864677843000,-0.150000000000
28.872364546000,-0.145000000000
28.880051249000,-0.141000000000
28.887737952000,-0.133000000000
28.895424655000,-0.131000000000
28.903111358000,-0.131000000000
28.910798061000,-0.131000000000
28.918484764000,-0.133000000000
28.926171467000,-0.133000000000
28.933858170000,-0.131000000000
28.941544873000,-0.131000000000
28.949231576000,-0.133000000000
28.956918279000,-0.136000000000
28.964604982000,-0.136000000000
28.972291685000,-0.133000000000
28.979978388000,-0.136000000000
28.987665091000,-0.136000000000
28.995351794000,-0.131000000000
29.003038497000,-0.126000000000
29.010725200000,-0.126000000000
29.018411903000,-0.126000000000
29.026098606000,-0.124000000000
29.033785309000,-0.119000000000
29.041472012000,-0.119000000000
29.049158715000,-0.116000000000
29.056845418000,-0.114000000000
29.064532121000,-0.111000000000
29.072218824000,-0.107000000000
29.079905527000,-0.104000000000
29.087592230000,-0.102000000000
29.095278933000,-0.102000000000
29.102965636000,-0.099000000000
29.110652339000,-0.097000000000
29.118339042000,-0.094000000000
29.126025745000,-0.094000000000
29.133712448000,-0.092000000000
29.141399151000,-0.090000000000
29.149085854000,-0.087000000000
29.156772557000,-0.087000000000
29.164459260000,-0.087000000000
29.172145963000,-0.085000000000
29.179832666000,-0.082000000000
29.187519369000,-0.082000000000
29.195206072000,-0.082000000000
29.202892775000,-0.080000000000
29.210579478000,-0.077000000000
29.218266181000,-0.075000000000
29.225952884000,-0.075000000000
29.233639587000,-0.075000000000
29.241326290000,-0.072000000000
29.249012993000,-0.070000000000
29.256699696000,-0.072000000000
29.264386399000,-0.077000000000
29.272073102000,-0.080000000000
29.279759805000,-0.077000000000
29.287446508000,-0.075000000000
29.295133271000,-0.070000000000
29.302820392000,-0.051000000000
29.310507513000,-0.034000000000
29.318194634000,-0.031000000000
