time,LSB
0.000000000000,0.556000000000
0.007686703000,0.274000000000
0.015373406000,-0.257000000000
0.023060109000,-0.455000000000
0.030746812000,-0.319000000000
0.038433515000,-0.230000000000
0.046120218000,-0.217000000000
0.053806921000,-0.155000000000
0.061493624000,-0.118000000000
0.069180327000,-0.131000000000
0.076867030000,-0.121000000000
0.084553733000,-0.096000000000
0.092240436000,-0.094000000000
0.099927139000,-0.096000000000
0.107613842000,-0.096000000000
0.115300545000,-0.094000000000
0.122987248000,-0.086000000000
0.130673951000,-0.074000000000
0.138360654000,-0.064000000000
0.146047357000,-0.061000000000
0.153734060000,-0.076000000000
0.161420763000,-0.074000000000
0.169107466000,-0.047000000000
0.176794169000,-0.039000000000
0.184480872000,-0.049000000000
0.192167575000,-0.037000000000
0.199854278000,-0.014000000000
0.207540981000,-0.012000000000
0.215227684000,-0.017000000000
0.222914387000,-0.004000000000
0.230601090000,0.004000000000
0.238287793000,-0.002000000000
0.245974496000,-0.007000000000
0.253661199000,-0.004000000000
0.261347902000,-0.002000000000
0.269034669000,-0.009000000000
0.276721512000,-0.022000000000
0.284408355000,-0.034000000000
0.292095198000,-0.059000000000
0.299782041000,-0.086000000000
0.307468884000,-0.106000000000
0.315155727000,-0.121000000000
0.322842570000,-0.138000000000
0.330529413000,-0.143000000000
0.338216256000,-0.143000000000
0.345903099000,-0.141000000000
0.353589942000,-0.136000000000
0.361276785000,-0.131000000000
0.368963628000,-0.133000000000
0.376650471000,-0.128000000000
0.384337314000,-0.128000000000
0.392024157000,-0.131000000000
0.399711000000,-0.126000000000
0.407397843000,-0.116000000000
0.415084686000,-0.116000000000
0.422771529000,-0.121000000000
0.430458372000,-0.116000000000
0.438145215000,-0.106000000000
0.445832058000,-0.103000000000
0.453518901000,-0.113000000000
0.461205744000,-0.121000000000
0.468892587000,-0.118000000000
0.476579430000,-0.106000000000
0.484266273000,-0.106000000000
0.491953116000,-0.121000000000
0.499639959000,-0.116000000000
0.507326802000,-0.103000000000
0.515013645000,-0.108000000000
0.522700488000,-0.111000000000
0.530387331000,-0.103000000000
0.538074174000,-0.098000000000
0.545761017000,-0.094000000000
0.553447860000,-0.101000000000
0.561134703000,-0.111000000000
0.568821546000,-0.101000000000
0.576508389000,-0.089000000000
0.584195232000,-0.094000000000
0.591882075000,-0.096000000000
0.599568918000,-0.089000000000
0.607255761000,-0.091000000000
0.614942604000,-0.089000000000
0.622629447000,-0.081000000000
0.630316290000,-0.084000000000
0.638003133000,-0.091000000000
0.645689976000,-0.098000000000
0.653376819000,-0.101000000000
0.661063662000,-0.096000000000
0.668750505000,-0.071000000000
0.676437348000,-0.049000000000
0.684124191000,-0.047000000000
0.691811034000,-0.049000000000
0.699497877000,-0.044000000000
0.707184720000,-0.051000000000
0.714871563000,-0.069000000000
0.722558406000,-0.069000000000
0.730245249000,-0.074000000000
0.737932092000,-0.086000000000
0.745618935000,-0.076000000000
0.753305778000,-0.064000000000
0.760992621000,-0.069000000000
0.768679464000,-0.079000000000
0.776366307000,-0.081000000000
0.784053150000,0.019000000000
0.791739993000,0.329000000000
0.799426836000,0.591000000000
0.807113679000,0.378000000000
0.814800522000,-0.145000000000
0.822487365000,-0.393000000000
0.830174222000,-0.282000000000
0.837860995000,-0.188000000000
0.845547768000,-0.173000000000
0.853234541000,-0.103000000000
0.860921314000,-0.059000000000
0.868608087000,-0.066000000000
0.876294860000,-0.061000000000
0.883981633000,-0.047000000000
0.891668406000,-0.037000000000
0.899355179000,-0.034000000000
0.907041952000,-0.047000000000
0.914728725000,-0.049000000000
0.922415498000,-0.032000000000
0.930102271000,-0.024000000000
0.937789044000,-0.022000000000
0.945475817000,-0.017000000000
0.953162590000,-0.012000000000
0.960849363000,-0.012000000000
0.968536136000,-0.012000000000
0.976222909000,0.002000000000
0.983909682000,0.004000000000
0.991596455000,0.007000000000
0.999283228000,0.027000000000
1.006970001000,0.047000000000
1.014656774000,0.042000000000
1.022343547000,0.039000000000
1.030030320000,0.044000000000
1.037717093000,0.047000000000
1.045403866000,0.047000000000
1.053090639000,0.044000000000
1.060777412000,0.044000000000
1.068464185000,0.044000000000
1.076150958000,0.037000000000
1.083837731000,0.019000000000
1.091524504000,-0.014000000000
1.099211277000,-0.042000000000
1.106898050000,-0.056000000000
1.114584823000,-0.074000000000
1.122271596000,-0.101000000000
1.129958369000,-0.116000000000
1.137645142000,-0.111000000000
1.145331915000,-0.101000000000
1.153018688000,-0.098000000000
1.160705461000,-0.101000000000
1.168392234000,-0.098000000000
1.176079007000,-0.091000000000
1.183765780000,-0.089000000000
1.191452553000,-0.079000000000
1.199139326000,-0.079000000000
1.206826099000,-0.098000000000
1.214512872000,-0.091000000000
1.222199645000,-0.074000000000
1.229886418000,-0.071000000000
1.237573191000,-0.071000000000
1.245259964000,-0.066000000000
1.252946737000,-0.076000000000
1.260633510000,-0.084000000000
1.268320283000,-0.081000000000
1.276007056000,-0.079000000000
1.283693829000,-0.076000000000
1.291380602000,-0.076000000000
1.299067375000,-0.079000000000
1.306754148000,-0.076000000000
1.314440921000,-0.071000000000
1.322127694000,-0.074000000000
1.329814467000,-0.081000000000
1.337501240000,-0.084000000000
1.345188013000,-0.079000000000
1.352874786000,-0.074000000000
1.360561559000,-0.071000000000
1.368248332000,-0.069000000000
1.375935105000,-0.064000000000
1.383621878000,-0.069000000000
1.391308688000,-0.079000000000
1.398995600000,-0.081000000000
1.406682512000,-0.089000000000
1.414369424000,-0.084000000000
1.422056336000,-0.056000000000
1.429743248000,-0.034000000000
1.437430160000,-0.039000000000
1.445117072000,-0.039000000000
1.452803984000,-0.029000000000
1.460490896000,-0.049000000000
1.468177808000,-0.074000000000
1.475864720000,-0.066000000000
1.483551632000,-0.059000000000
1.491238544000,-0.064000000000
1.498925456000,-0.056000000000
1.506612368000,-0.051000000000
1.514299280000,-0.061000000000
1.521986192000,-0.076000000000
1.529673104000,-0.051000000000
1.537360016000,0.106000000000
1.545046928000,0.440000000000
1.552733840000,0.598000000000
1.560420752000,0.202000000000
1.568107664000,-0.348000000000
1.575794576000,-0.442000000000
1.583481488000,-0.269000000000
1.591168400000,-0.230000000000
1.598855312000,-0.202000000000
1.606542224000,-0.079000000000
1.614229136000,-0.032000000000
1.621916048000,-0.056000000000
1.629602960000,-0.039000000000
1.637289872000,-0.017000000000
1.644976784000,-0.029000000000
1.652663696000,-0.027000000000
1.660350608000,-0.002000000000
1.668037520000,0.004000000000
1.675724432000,0.002000000000
1.683411344000,0.009000000000
1.691098256000,0.009000000000
1.698785168000,0.002000000000
1.706472080000,0.004000000000
1.714158992000,0.017000000000
1.721845904000,0.032000000000
1.729532816000,0.037000000000
1.737219728000,0.042000000000
1.744906640000,0.056000000000
1.752593552000,0.066000000000
1.760280464000,0.069000000000
1.767967376000,0.081000000000
1.775654288000,0.084000000000
1.783341200000,0.084000000000
1.791028112000,0.096000000000
1.798715024000,0.098000000000
1.806401936000,0.089000000000
1.814088848000,0.081000000000
1.821775760000,0.076000000000
1.829462672000,0.051000000000
1.837149584000,0.012000000000
1.844836496000,-0.014000000000
1.852523408000,-0.044000000000
1.860210320000,-0.079000000000
1.867897232000,-0.096000000000
1.875584144000,-0.101000000000
1.883271056000,-0.111000000000
1.890957968000,-0.113000000000
1.898644880000,-0.108000000000
1.906331792000,-0.113000000000
1.914018704000,-0.113000000000
1.921705616000,-0.106000000000
1.929392528000,-0.096000000000
1.937079440000,-0.089000000000
1.944766352000,-0.084000000000
1.952453324000,-0.076000000000
1.960140027000,-0.064000000000
1.967826730000,-0.074000000000
1.975513433000,-0.086000000000
1.983200136000,-0.069000000000
1.990886839000,-0.064000000000
1.998573542000,-0.081000000000
2.006260245000,-0.086000000000
2.013946948000,-0.079000000000
2.021633651000,-0.076000000000
2.029320354000,-0.081000000000
2.037007057000,-0.091000000000
2.044693760000,-0.086000000000
2.052380463000,-0.076000000000
2.060067166000,-0.084000000000
2.067753869000,-0.096000000000
2.075440572000,-0.084000000000
2.083127275000,-0.076000000000
2.090813978000,-0.091000000000
2.098500681000,-0.094000000000
2.106187384000,-0.079000000000
2.113874087000,-0.074000000000
2.121560790000,-0.081000000000
2.129247493000,-0.096000000000
2.136934196000,-0.096000000000
2.144620899000,-0.084000000000
2.152307602000,-0.074000000000
2.159994305000,-0.056000000000
2.167681008000,-0.049000000000
2.175367711000,-0.042000000000
2.183054414000,-0.024000000000
2.190741117000,-0.042000000000
2.198427820000,-0.079000000000
2.206114523000,-0.081000000000
2.213801226000,-0.059000000000
2.221487929000,-0.056000000000
2.229174632000,-0.066000000000
2.236861335000,-0.069000000000
2.244548038000,-0.064000000000
2.252234741000,-0.066000000000
2.259921444000,-0.051000000000
2.267608147000,0.123000000000
2.275294850000,0.492000000000
2.282981553000,0.603000000000
2.290668256000,0.133000000000
2.298354959000,-0.383000000000
2.306041662000,-0.413000000000
2.313728365000,-0.244000000000
2.321415068000,-0.217000000000
2.329101771000,-0.165000000000
2.336788474000,-0.047000000000
2.344475177000,-0.029000000000
2.352161880000,-0.049000000000
2.359848583000,-0.024000000000
2.367535286000,-0.019000000000
2.375221989000,-0.027000000000
2.382908692000,-0.012000000000
2.390595395000,-0.009000000000
2.398282098000,-0.012000000000
2.405968801000,0.002000000000
2.413655504000,0.009000000000
2.421342207000,0.002000000000
2.429028910000,-0.002000000000
2.436715613000,0.007000000000
2.444402316000,0.014000000000
2.452089019000,0.019000000000
2.459775722000,0.029000000000
2.467462425000,0.039000000000
2.475149128000,0.037000000000
2.482835831000,0.047000000000
2.490522534000,0.059000000000
2.498209237000,0.064000000000
2.505895940000,0.079000000000
2.513582703000,0.074000000000
2.521269406000,0.049000000000
2.528956109000,0.049000000000
2.536642812000,0.064000000000
2.544329515000,0.059000000000
2.552016218000,0.047000000000
2.559702921000,0.032000000000
2.567389624000,0.000000000000
2.575076327000,-0.032000000000
2.582763030000,-0.064000000000
2.590449733000,-0.096000000000
2.598136436000,-0.106000000000
2.605823139000,-0.113000000000
2.613509842000,-0.128000000000
2.621196545000,-0.131000000000
2.628883248000,-0.128000000000
2.636569951000,-0.126000000000
2.644256654000,-0.113000000000
2.651943357000,-0.101000000000
2.659630060000,-0.106000000000
2.667316763000,-0.113000000000
2.675003466000,-0.103000000000
2.682690169000,-0.094000000000
2.690376872000,-0.091000000000
2.698063575000,-0.091000000000
2.705750278000,-0.089000000000
2.713436981000,-0.084000000000
2.721123684000,-0.089000000000
2.728810387000,-0.096000000000
2.736497090000,-0.098000000000
2.744183793000,-0.094000000000
2.751870496000,-0.089000000000
2.759557199000,-0.096000000000
2.767243902000,-0.101000000000
2.774930605000,-0.101000000000
2.782617308000,-0.096000000000
2.790304011000,-0.091000000000
2.797990714000,-0.094000000000
2.805677417000,-0.096000000000
2.813364120000,-0.103000000000
2.821050823000,-0.106000000000
2.828737526000,-0.096000000000
2.836424229000,-0.084000000000
2.844110932000,-0.091000000000
2.851797635000,-0.103000000000
2.859484338000,-0.098000000000
2.867171041000,-0.094000000000
2.874857744000,-0.108000000000
2.882544447000,-0.116000000000
2.890231150000,-0.111000000000
2.897917853000,-0.108000000000
2.905604556000,-0.089000000000
2.913291259000,-0.071000000000
2.920977962000,-0.074000000000
2.928664665000,-0.069000000000
2.936351368000,-0.066000000000
2.944038071000,-0.089000000000
2.951724774000,-0.101000000000
2.959411477000,-0.094000000000
2.967098180000,-0.091000000000
2.974784883000,-0.089000000000
2.982471586000,-0.089000000000
2.990158289000,-0.098000000000
2.997844992000,-0.108000000000
3.005531695000,-0.113000000000
3.013218398000,-0.111000000000
3.020905101000,0.014000000000
3.028591804000,0.371000000000
3.036278507000,0.638000000000
3.043965210000,0.348000000000
3.051651913000,-0.247000000000
3.059338616000,-0.479000000000
3.067025319000,-0.324000000000
3.074712082000,-0.230000000000
3.082398855000,-0.217000000000
3.090085628000,-0.148000000000
3.097772401000,-0.108000000000
3.105459174000,-0.123000000000
3.113145947000,-0.118000000000
3.120832720000,-0.094000000000
3.128519493000,-0.081000000000
3.136206266000,-0.084000000000
3.143893039000,-0.086000000000
3.151579812000,-0.079000000000
3.159266585000,-0.069000000000
3.166953358000,-0.079000000000
3.174640131000,-0.094000000000
3.182326904000,-0.079000000000
3.190013677000,-0.061000000000
3.197700450000,-0.061000000000
3.205387223000,-0.059000000000
3.213073996000,-0.049000000000
3.220760769000,-0.039000000000
3.228447542000,-0.037000000000
3.236134315000,-0.034000000000
3.243821088000,-0.014000000000
3.251507861000,0.004000000000
3.259194634000,0.002000000000
3.266881407000,-0.002000000000
3.274568180000,0.004000000000
3.282254953000,0.004000000000
3.289941726000,0.002000000000
3.297628499000,-0.007000000000
3.305315272000,-0.014000000000
3.313002045000,-0.022000000000
3.320688818000,-0.047000000000
3.328375591000,-0.071000000000
3.336062364000,-0.103000000000
3.343749137000,-0.148000000000
3.351435910000,-0.165000000000
3.359122683000,-0.175000000000
3.366809456000,-0.205000000000
3.374496229000,-0.202000000000
3.382183002000,-0.190000000000
3.389869775000,-0.188000000000
3.397556548000,-0.168000000000
3.405243321000,-0.163000000000
3.412930094000,-0.183000000000
3.420616867000,-0.175000000000
3.428303640000,-0.160000000000
3.435990413000,-0.165000000000
3.443677186000,-0.163000000000
3.451363959000,-0.150000000000
3.459050732000,-0.145000000000
3.466737505000,-0.145000000000
3.474424278000,-0.145000000000
3.482111051000,-0.155000000000
3.489797824000,-0.160000000000
3.497484597000,-0.145000000000
3.505171370000,-0.148000000000
3.512858143000,-0.163000000000
3.520544916000,-0.148000000000
3.528231689000,-0.138000000000
3.535918462000,-0.150000000000
3.543605235000,-0.163000000000
3.551292008000,-0.170000000000
3.558978781000,-0.153000000000
3.566665554000,-0.131000000000
3.574352327000,-0.143000000000
3.582039100000,-0.150000000000
3.589725873000,-0.133000000000
3.597412646000,-0.128000000000
3.605099419000,-0.148000000000
3.612786192000,-0.143000000000
3.620472965000,-0.136000000000
3.628159738000,-0.153000000000
3.635846552000,-0.160000000000
3.643533186000,-0.145000000000
3.651219820000,-0.128000000000
3.658906454000,-0.113000000000
3.666593088000,-0.111000000000
3.674279722000,-0.096000000000
3.681966356000,-0.084000000000
3.689652990000,-0.096000000000
3.697339624000,-0.116000000000
3.705026258000,-0.128000000000
3.712712892000,-0.133000000000
3.720399526000,-0.128000000000
3.728086160000,-0.111000000000
3.735772794000,-0.098000000000
3.743459428000,-0.103000000000
3.751146062000,-0.121000000000
3.758832696000,-0.133000000000
3.766519330000,-0.061000000000
3.774205964000,0.205000000000
3.781892598000,0.544000000000
3.789579232000,0.467000000000
3.797265866000,-0.123000000000
3.804952500000,-0.534000000000
3.812639134000,-0.437000000000
3.820325768000,-0.296000000000
3.828012402000,-0.299000000000
3.835699036000,-0.210000000000
3.843385670000,-0.081000000000
3.851072304000,-0.076000000000
3.858758938000,-0.089000000000
3.866445572000,-0.054000000000
3.874132206000,-0.066000000000
3.881818840000,-0.094000000000
3.889505474000,-0.051000000000
3.897192108000,-0.024000000000
3.904878742000,-0.054000000000
3.912565376000,-0.066000000000
3.920252010000,-0.056000000000
3.927938644000,-0.049000000000
3.935625278000,-0.039000000000
3.943311912000,-0.027000000000
3.950998546000,-0.017000000000
3.958685180000,-0.009000000000
3.966371814000,0.002000000000
3.974058448000,0.014000000000
3.981745082000,0.019000000000
3.989431716000,0.029000000000
3.997118350000,0.051000000000
4.004804984000,0.051000000000
4.012491618000,0.049000000000
4.020178252000,0.074000000000
4.027864886000,0.071000000000
4.035551520000,0.054000000000
4.043238154000,0.066000000000
4.050924788000,0.056000000000
4.058611422000,0.014000000000
4.066298056000,-0.009000000000
4.073984690000,-0.032000000000
4.081671324000,-0.079000000000
4.089357958000,-0.111000000000
4.097044592000,-0.118000000000
4.104731226000,-0.138000000000
4.112417860000,-0.170000000000
4.120104494000,-0.188000000000
4.127791128000,-0.183000000000
4.135477762000,-0.168000000000
4.143164396000,-0.153000000000
4.150851030000,-0.155000000000
4.158537664000,-0.158000000000
4.166224298000,-0.141000000000
4.173910932000,-0.136000000000
4.181597566000,-0.136000000000
4.189284200000,-0.118000000000
4.196970844000,-0.103000000000
4.204657756000,-0.108000000000
4.212344668000,-0.113000000000
4.220031580000,-0.101000000000
4.227718492000,-0.091000000000
4.235405404000,-0.103000000000
4.243092316000,-0.111000000000
4.250779228000,-0.106000000000
4.258466140000,-0.106000000000
4.266153052000,-0.101000000000
4.273839964000,-0.108000000000
4.281526876000,-0.123000000000
4.289213788000,-0.118000000000
4.296900700000,-0.101000000000
4.304587612000,-0.098000000000
4.312274524000,-0.111000000000
4.319961436000,-0.116000000000
4.327648348000,-0.101000000000
4.335335260000,-0.094000000000
4.343022172000,-0.113000000000
4.350709084000,-0.113000000000
4.358395996000,-0.086000000000
4.366082908000,-0.081000000000
4.373769820000,-0.103000000000
4.381456732000,-0.108000000000
4.389143644000,-0.098000000000
4.396830556000,-0.108000000000
4.404517468000,-0.108000000000
4.412204380000,-0.086000000000
4.419891292000,-0.074000000000
4.427578204000,-0.069000000000
4.435265116000,-0.054000000000
4.442952028000,-0.044000000000
4.450638940000,-0.069000000000
4.458325852000,-0.096000000000
4.466012764000,-0.089000000000
4.473699676000,-0.071000000000
4.481386588000,-0.081000000000
4.489073500000,-0.091000000000
4.496760412000,-0.076000000000
4.504447324000,-0.074000000000
4.512134236000,-0.098000000000
4.519821148000,-0.108000000000
4.527508060000,0.012000000000
4.535194972000,0.366000000000
4.542881884000,0.650000000000
4.550568796000,0.366000000000
4.558255708000,-0.277000000000
4.565942620000,-0.524000000000
4.573629532000,-0.331000000000
4.581316444000,-0.227000000000
4.589003356000,-0.232000000000
4.596690268000,-0.131000000000
4.604377180000,-0.066000000000
4.612064092000,-0.089000000000
4.619751004000,-0.074000000000
4.627437916000,-0.059000000000
4.635124828000,-0.076000000000
4.642811740000,-0.059000000000
4.650498652000,-0.032000000000
4.658185564000,-0.044000000000
4.665872476000,-0.054000000000
4.673559388000,-0.034000000000
4.681246300000,-0.029000000000
4.688933212000,-0.029000000000
4.696620124000,-0.022000000000
4.704307036000,-0.024000000000
4.711993948000,-0.029000000000
4.719680860000,-0.019000000000
4.727367772000,-0.004000000000
4.735054684000,0.004000000000
4.742741596000,0.004000000000
4.750428508000,0.007000000000
4.758115484000,0.019000000000
4.765802396000,0.029000000000
4.773489308000,0.027000000000
4.781176220000,0.039000000000
4.788863132000,0.042000000000
4.796550044000,0.017000000000
4.804236956000,0.014000000000
4.811923868000,0.029000000000
4.819610780000,0.007000000000
4.827297692000,-0.032000000000
4.834984604000,-0.054000000000
4.842671516000,-0.079000000000
4.850358428000,-0.118000000000
4.858045340000,-0.138000000000
4.865732252000,-0.143000000000
4.873419164000,-0.163000000000
4.881106076000,-0.170000000000
4.888792988000,-0.165000000000
4.896479900000,-0.170000000000
4.904166812000,-0.175000000000
4.911853724000,-0.168000000000
4.919540636000,-0.158000000000
4.927227548000,-0.148000000000
4.934914460000,-0.138000000000
4.942601372000,-0.141000000000
4.950288284000,-0.145000000000
4.957975196000,-0.138000000000
4.965662108000,-0.138000000000
4.973349020000,-0.136000000000
4.981035932000,-0.126000000000
4.988722844000,-0.131000000000
4.996409756000,-0.136000000000
5.004096668000,-0.131000000000
5.011783580000,-0.136000000000
5.019470492000,-0.138000000000
5.027157404000,-0.136000000000
5.034844316000,-0.141000000000
5.042531228000,-0.145000000000
5.050218140000,-0.141000000000
5.057905052000,-0.136000000000
5.065591964000,-0.133000000000
5.073278876000,-0.133000000000
5.080965788000,-0.138000000000
5.088652700000,-0.136000000000
5.096339612000,-0.133000000000
5.104026524000,-0.136000000000
5.111713436000,-0.141000000000
5.119400348000,-0.138000000000
5.127087260000,-0.133000000000
5.134774172000,-0.128000000000
5.142461084000,-0.121000000000
5.150147996000,-0.128000000000
5.157834908000,-0.133000000000
5.165521820000,-0.131000000000
5.173208732000,-0.121000000000
5.180895644000,-0.116000000000
5.188582556000,-0.118000000000
5.196269468000,-0.123000000000
5.203956380000,-0.113000000000
5.211643292000,-0.106000000000
5.219330204000,-0.123000000000
5.227017116000,-0.133000000000
5.234704028000,-0.118000000000
5.242390940000,-0.118000000000
5.250077852000,-0.131000000000
5.257764764000,-0.133000000000
5.265451676000,-0.108000000000
5.273138588000,-0.084000000000
5.280825500000,-0.086000000000
5.288512412000,-0.086000000000
5.296199324000,-0.081000000000
5.303886236000,-0.098000000000
5.311573148000,-0.113000000000
5.319260120000,-0.111000000000
5.326946823000,-0.103000000000
5.334633526000,-0.108000000000
5.342320229000,-0.118000000000
5.350006932000,-0.111000000000
5.357693635000,-0.098000000000
5.365380338000,-0.116000000000
5.373067041000,-0.131000000000
5.380753744000,-0.002000000000
5.388440447000,0.356000000000
5.396127150000,0.650000000000
5.403813853000,0.418000000000
5.411500556000,-0.178000000000
5.419187259000,-0.452000000000
5.426873962000,-0.311000000000
5.434560665000,-0.212000000000
5.442247368000,-0.212000000000
5.449934071000,-0.148000000000
5.457620774000,-0.106000000000
5.465307477000,-0.116000000000
5.472994180000,-0.106000000000
5.480680883000,-0.098000000000
5.488367586000,-0.101000000000
5.496054289000,-0.091000000000
5.503740992000,-0.081000000000
5.511427695000,-0.081000000000
5.519114398000,-0.079000000000
5.526801101000,-0.066000000000
5.534487804000,-0.059000000000
5.542174507000,-0.064000000000
5.549861210000,-0.074000000000
5.557547913000,-0.064000000000
5.565234616000,-0.044000000000
5.572921319000,-0.039000000000
5.580608022000,-0.042000000000
5.588294725000,-0.029000000000
5.595981428000,-0.017000000000
5.603668131000,-0.009000000000
5.611354834000,-0.002000000000
5.619041537000,0.007000000000
5.626728240000,0.009000000000
5.634414943000,0.007000000000
5.642101646000,0.012000000000
5.649788349000,0.014000000000
5.657475052000,0.007000000000
5.665161755000,0.004000000000
5.672848458000,0.007000000000
5.680535161000,-0.002000000000
5.688221864000,-0.027000000000
5.695908567000,-0.056000000000
5.703595270000,-0.094000000000
5.711281973000,-0.116000000000
5.718968676000,-0.113000000000
5.726655379000,-0.123000000000
5.734342082000,-0.143000000000
5.742028785000,-0.141000000000
5.749715488000,-0.131000000000
5.757402191000,-0.128000000000
5.765088894000,-0.126000000000
5.772775597000,-0.123000000000
5.780462300000,-0.123000000000
5.788149003000,-0.121000000000
5.795835706000,-0.116000000000
5.803522409000,-0.113000000000
5.811209112000,-0.111000000000
5.818895815000,-0.103000000000
5.826582518000,-0.096000000000
5.834269221000,-0.096000000000
5.841955924000,-0.106000000000
5.849642627000,-0.108000000000
5.857329330000,-0.101000000000
5.865016033000,-0.103000000000
5.872702736000,-0.111000000000
5.880389499000,-0.108000000000
5.888076202000,-0.101000000000
5.895762905000,-0.096000000000
5.903449608000,-0.091000000000
5.911136311000,-0.094000000000
5.918823014000,-0.103000000000
5.926509717000,-0.106000000000
5.934196420000,-0.101000000000
5.941883123000,-0.098000000000
5.949569826000,-0.094000000000
5.957256529000,-0.098000000000
5.964943232000,-0.106000000000
5.972629935000,-0.096000000000
5.980316638000,-0.089000000000
5.988003341000,-0.096000000000
5.995690044000,-0.101000000000
6.003376747000,-0.096000000000
6.011063450000,-0.086000000000
6.018750153000,-0.084000000000
6.026436856000,-0.089000000000
6.034123559000,-0.094000000000
6.041810262000,-0.084000000000
6.049496965000,-0.081000000000
6.057183668000,-0.089000000000
6.064870371000,-0.086000000000
6.072557074000,-0.079000000000
6.080243777000,-0.081000000000
6.087930480000,-0.086000000000
6.095617183000,-0.089000000000
6.103303886000,-0.094000000000
6.110990589000,-0.101000000000
6.118677292000,-0.096000000000
6.126363995000,-0.081000000000
6.134050698000,-0.071000000000
6.141737401000,-0.074000000000
6.149424104000,-0.061000000000
6.157110807000,-0.051000000000
6.164797510000,-0.059000000000
6.172484213000,-0.074000000000
6.180170916000,-0.081000000000
6.187857619000,-0.081000000000
6.195544322000,-0.089000000000
6.203231025000,-0.089000000000
6.210917728000,-0.089000000000
6.218604431000,-0.089000000000
6.226291134000,-0.086000000000
6.233977837000,-0.103000000000
6.241664540000,-0.079000000000
6.249351243000,0.170000000000
6.257037946000,0.564000000000
6.264724649000,0.586000000000
6.272411352000,0.074000000000
6.280098055000,-0.383000000000
6.287784758000,-0.373000000000
6.295471461000,-0.232000000000
6.303158164000,-0.225000000000
6.310844867000,-0.178000000000
6.318531570000,-0.101000000000
6.326218273000,-0.106000000000
6.333904976000,-0.113000000000
6.341591679000,-0.086000000000
6.349278382000,-0.081000000000
6.356965085000,-0.086000000000
6.364651788000,-0.076000000000
6.372338491000,-0.076000000000
6.380025194000,-0.079000000000
6.387711897000,-0.069000000000
6.395398600000,-0.066000000000
6.403085303000,-0.071000000000
6.410772006000,-0.066000000000
6.418458709000,-0.059000000000
6.426145412000,-0.054000000000
6.433832115000,-0.047000000000
6.441518878000,-0.051000000000
6.449205999000,-0.049000000000
6.456893120000,-0.032000000000
6.464580241000,-0.027000000000
6.472267362000,-0.027000000000
6.479954483000,-0.012000000000
6.487641604000,-0.007000000000
6.495328725000,-0.009000000000
6.503015846000,-0.007000000000
6.510702967000,-0.007000000000
6.518390088000,-0.014000000000
6.526077209000,-0.017000000000
6.533764330000,-0.022000000000
6.541451451000,-0.042000000000
6.549138572000,-0.066000000000
6.556825693000,-0.079000000000
6.564512814000,-0.101000000000
6.572199935000,-0.138000000000
6.579887056000,-0.163000000000
6.587574177000,-0.168000000000
6.595261298000,-0.175000000000
6.602948419000,-0.180000000000
6.610635540000,-0.183000000000
6.618322661000,-0.180000000000
6.626009782000,-0.170000000000
6.633696903000,-0.168000000000
6.641384024000,-0.170000000000
6.649071145000,-0.170000000000
6.656758266000,-0.160000000000
6.664445387000,-0.150000000000
6.672132508000,-0.153000000000
6.679819629000,-0.160000000000
6.687506750000,-0.158000000000
6.695193871000,-0.153000000000
6.702880992000,-0.155000000000
6.710568113000,-0.153000000000
6.718255234000,-0.141000000000
6.725942355000,-0.143000000000
6.733629476000,-0.158000000000
6.741316597000,-0.155000000000
6.749003718000,-0.153000000000
6.756690839000,-0.158000000000
6.764377960000,-0.153000000000
6.772065081000,-0.153000000000
6.779752202000,-0.160000000000
6.787439323000,-0.158000000000
6.795126444000,-0.145000000000
6.802813565000,-0.145000000000
6.810500686000,-0.155000000000
6.818187807000,-0.158000000000
6.825874928000,-0.143000000000
6.833562049000,-0.143000000000
6.841249170000,-0.150000000000
6.848936291000,-0.145000000000
6.856623412000,-0.136000000000
6.864310533000,-0.143000000000
6.871997654000,-0.148000000000
6.879684775000,-0.141000000000
6.887371896000,-0.141000000000
6.895059017000,-0.141000000000
6.902746138000,-0.131000000000
6.910433259000,-0.128000000000
6.918120380000,-0.138000000000
6.925807501000,-0.141000000000
6.933494622000,-0.128000000000
6.941181743000,-0.123000000000
6.948868864000,-0.118000000000
6.956555985000,-0.118000000000
6.964243106000,-0.126000000000
6.971930227000,-0.133000000000
6.979617348000,-0.136000000000
6.987304469000,-0.133000000000
6.994991590000,-0.123000000000
7.002678779000,-0.111000000000
7.010365622000,-0.101000000000
7.018052465000,-0.098000000000
7.025739308000,-0.091000000000
7.033426151000,-0.086000000000
7.041112994000,-0.101000000000
7.048799837000,-0.106000000000
7.056486680000,-0.101000000000
7.064173523000,-0.111000000000
7.071860366000,-0.126000000000
7.079547209000,-0.118000000000
7.087234052000,-0.106000000000
7.094920895000,-0.116000000000
7.102607738000,-0.136000000000
7.110294581000,-0.103000000000
7.117981424000,0.116000000000
7.125668267000,0.492000000000
7.133355110000,0.581000000000
7.141041953000,0.128000000000
7.148728796000,-0.368000000000
7.156415639000,-0.420000000000
7.164102482000,-0.264000000000
7.171789325000,-0.220000000000
7.179476168000,-0.178000000000
7.187163011000,-0.096000000000
7.194849854000,-0.094000000000
7.202536697000,-0.108000000000
7.210223540000,-0.089000000000
7.217910383000,-0.069000000000
7.225597226000,-0.071000000000
7.233284069000,-0.081000000000
7.240970912000,-0.074000000000
7.248657755000,-0.064000000000
7.256344598000,-0.059000000000
7.264031441000,-0.051000000000
7.271718284000,-0.042000000000
7.279405127000,-0.044000000000
7.287091970000,-0.037000000000
7.294778813000,-0.022000000000
7.302465656000,-0.037000000000
7.310152499000,-0.039000000000
7.317839342000,-0.012000000000
7.325526185000,-0.004000000000
7.333213028000,-0.007000000000
7.340899871000,0.007000000000
7.348586714000,0.017000000000
7.356273557000,0.019000000000
7.363960400000,0.027000000000
7.371647243000,0.032000000000
7.379334086000,0.027000000000
7.387020929000,0.024000000000
7.394707772000,0.014000000000
7.402394615000,0.002000000000
7.410081458000,-0.004000000000
7.417768301000,-0.014000000000
7.425455144000,-0.034000000000
7.433141987000,-0.056000000000
7.440828830000,-0.074000000000
7.448515673000,-0.098000000000
7.456202516000,-0.123000000000
7.463889359000,-0.131000000000
7.471576202000,-0.128000000000
7.479263045000,-0.131000000000
7.486949888000,-0.136000000000
7.494636731000,-0.128000000000
7.502323574000,-0.118000000000
7.510010417000,-0.121000000000
7.517697260000,-0.121000000000
7.525384103000,-0.108000000000
7.533070946000,-0.096000000000
7.540757789000,-0.091000000000
7.548444632000,-0.098000000000
7.556131475000,-0.106000000000
7.563818332000,-0.103000000000
7.571505314000,-0.101000000000
7.579192296000,-0.101000000000
7.586879278000,-0.098000000000
7.594566260000,-0.094000000000
7.602253242000,-0.089000000000
7.609940224000,-0.098000000000
7.617627206000,-0.106000000000
7.625314188000,-0.098000000000
7.633001170000,-0.096000000000
7.640688152000,-0.106000000000
7.648375134000,-0.106000000000
7.656062116000,-0.098000000000
7.663749098000,-0.096000000000
7.671436080000,-0.089000000000
7.679123062000,-0.084000000000
7.686810044000,-0.098000000000
7.694497026000,-0.101000000000
7.702184008000,-0.084000000000
7.709870990000,-0.091000000000
7.717557972000,-0.108000000000
7.725244954000,-0.094000000000
7.732931936000,-0.076000000000
7.740618918000,-0.086000000000
7.748305900000,-0.089000000000
7.755992882000,-0.074000000000
7.763679864000,-0.071000000000
7.771366846000,-0.074000000000
7.779053828000,-0.074000000000
7.786740810000,-0.081000000000
7.794427792000,-0.084000000000
7.802114774000,-0.074000000000
7.809801756000,-0.066000000000
7.817488738000,-0.069000000000
7.825175720000,-0.081000000000
7.832862702000,-0.089000000000
7.840549684000,-0.084000000000
7.848236666000,-0.076000000000
7.855923648000,-0.061000000000
7.863610630000,-0.044000000000
7.871297612000,-0.037000000000
7.878984594000,-0.032000000000
7.886671576000,-0.042000000000
7.894358558000,-0.064000000000
7.902045540000,-0.069000000000
7.909732522000,-0.059000000000
7.917419504000,-0.064000000000
7.925106486000,-0.066000000000
7.932793468000,-0.056000000000
7.940480450000,-0.059000000000
7.948167432000,-0.074000000000
7.955854414000,-0.081000000000
7.963541396000,-0.047000000000
7.971228378000,0.153000000000
7.978915360000,0.512000000000
7.986602342000,0.596000000000
7.994289324000,0.153000000000
8.001976306000,-0.331000000000
8.009663288000,-0.378000000000
8.017350270000,-0.225000000000
8.025037252000,-0.183000000000
8.032724234000,-0.143000000000
8.040411216000,-0.061000000000
8.048098198000,-0.059000000000
8.055785180000,-0.064000000000
8.063472162000,-0.034000000000
8.071159144000,-0.042000000000
8.078846126000,-0.054000000000
8.086533108000,-0.034000000000
8.094220090000,-0.027000000000
8.101907072000,-0.027000000000
8.109594054000,-0.017000000000
8.117281036000,-0.009000000000
8.124968055000,-0.012000000000
8.132654758000,-0.014000000000
8.140341461000,-0.012000000000
8.148028164000,0.000000000000
8.155714867000,0.012000000000
8.163401570000,0.009000000000
8.171088273000,0.017000000000
8.178774976000,0.029000000000
8.186461679000,0.034000000000
8.194148382000,0.034000000000
8.201835085000,0.042000000000
8.209521788000,0.051000000000
8.217208491000,0.056000000000
8.224895194000,0.064000000000
8.232581897000,0.059000000000
8.240268600000,0.044000000000
8.247955303000,0.042000000000
8.255642006000,0.042000000000
8.263328709000,0.024000000000
8.271015412000,0.002000000000
8.278702115000,-0.019000000000
8.286388818000,-0.042000000000
8.294075521000,-0.064000000000
8.301762224000,-0.086000000000
8.309448927000,-0.103000000000
8.317135630000,-0.108000000000
8.324822333000,-0.108000000000
8.332509036000,-0.113000000000
8.340195739000,-0.113000000000
8.347882442000,-0.106000000000
8.355569145000,-0.106000000000
8.363255848000,-0.111000000000
8.370942551000,-0.106000000000
8.378629254000,-0.098000000000
8.386315957000,-0.098000000000
8.394002660000,-0.094000000000
8.401689363000,-0.084000000000
8.409376066000,-0.081000000000
8.417062769000,-0.091000000000
8.424749472000,-0.098000000000
8.432436175000,-0.086000000000
8.440122878000,-0.076000000000
8.447809581000,-0.079000000000
8.455496284000,-0.091000000000
8.463182987000,-0.111000000000
8.470869690000,-0.101000000000
8.478556393000,-0.089000000000
8.486243096000,-0.103000000000
8.493929799000,-0.106000000000
8.501616502000,-0.086000000000
8.509303205000,-0.089000000000
8.516989908000,-0.108000000000
8.524676611000,-0.103000000000
8.532363314000,-0.084000000000
8.540050017000,-0.094000000000
8.547736720000,-0.106000000000
8.555423423000,-0.091000000000
8.563110126000,-0.079000000000
8.570796829000,-0.089000000000
8.578483532000,-0.096000000000
8.586170235000,-0.091000000000
8.593856938000,-0.089000000000
8.601543641000,-0.086000000000
8.609230344000,-0.084000000000
8.616917047000,-0.086000000000
8.624603750000,-0.086000000000
8.632290453000,-0.081000000000
8.639977156000,-0.079000000000
8.647663859000,-0.086000000000
8.655350562000,-0.091000000000
8.663037265000,-0.074000000000
8.670723968000,-0.069000000000
8.678410671000,-0.084000000000
8.686097434000,-0.074000000000
8.693784137000,-0.042000000000
8.701470840000,-0.034000000000
8.709157543000,-0.061000000000
8.716844246000,-0.069000000000
8.724530949000,-0.066000000000
8.732217652000,-0.079000000000
8.739904355000,-0.079000000000
8.747591058000,-0.074000000000
8.755277761000,-0.071000000000
8.762964464000,-0.064000000000
8.770651167000,-0.069000000000
8.778337870000,-0.079000000000
8.786024573000,0.029000000000
8.793711276000,0.358000000000
8.801397979000,0.625000000000
8.809084682000,0.346000000000
8.816771385000,-0.267000000000
8.824458088000,-0.494000000000
8.832144791000,-0.321000000000
8.839831494000,-0.249000000000
8.847518197000,-0.249000000000
8.855204900000,-0.126000000000
8.862891603000,-0.044000000000
8.870578306000,-0.064000000000
8.878265009000,-0.054000000000
8.885951712000,-0.032000000000
8.893638415000,-0.037000000000
8.901325118000,-0.039000000000
8.909011821000,-0.034000000000
8.916698524000,-0.019000000000
8.924385227000,-0.012000000000
8.932071930000,-0.017000000000
8.939758633000,-0.009000000000
8.947445336000,0.007000000000
8.955132039000,0.014000000000
8.962818742000,0.012000000000
8.970505445000,0.014000000000
8.978192148000,0.024000000000
8.985878851000,0.039000000000
8.993565554000,0.047000000000
9.001252257000,0.047000000000
9.008938960000,0.056000000000
9.016625663000,0.076000000000
9.024312366000,0.091000000000
9.031999069000,0.098000000000
9.039685772000,0.101000000000
9.047372475000,0.094000000000
9.055059178000,0.089000000000
9.062745881000,0.094000000000
9.070432584000,0.084000000000
9.078119287000,0.059000000000
9.085805990000,0.032000000000
9.093492693000,0.002000000000
9.101179396000,-0.027000000000
9.108866099000,-0.054000000000
9.116552802000,-0.079000000000
9.124239505000,-0.103000000000
9.131926208000,-0.118000000000
9.139612911000,-0.118000000000
9.147299614000,-0.113000000000
9.154986317000,-0.113000000000
9.162673020000,-0.118000000000
9.170359723000,-0.111000000000
9.178046426000,-0.103000000000
9.185733129000,-0.101000000000
9.193419832000,-0.096000000000
9.201106535000,-0.091000000000
9.208793238000,-0.096000000000
9.216479941000,-0.091000000000
9.224166644000,-0.084000000000
9.231853347000,-0.091000000000
9.239540050000,-0.094000000000
9.247226813000,-0.081000000000
9.254913934000,-0.084000000000
9.262601055000,-0.101000000000
9.270288176000,-0.108000000000
9.277975297000,-0.091000000000
9.285662418000,-0.089000000000
9.293349539000,-0.103000000000
9.301036660000,-0.111000000000
9.308723781000,-0.106000000000
9.316410902000,-0.103000000000
9.324098023000,-0.108000000000
9.331785144000,-0.116000000000
9.339472265000,-0.103000000000
9.347159386000,-0.091000000000
9.354846507000,-0.106000000000
9.362533628000,-0.113000000000
9.370220749000,-0.101000000000
9.377907870000,-0.103000000000
9.385594991000,-0.108000000000
9.393282112000,-0.101000000000
9.400969233000,-0.101000000000
9.408656354000,-0.101000000000
9.416343475000,-0.091000000000
9.424030596000,-0.086000000000
9.431717717000,-0.086000000000
9.439404838000,-0.081000000000
9.447091959000,-0.064000000000
9.454779080000,-0.044000000000
9.462466201000,-0.054000000000
9.470153322000,-0.079000000000
9.477840443000,-0.074000000000
9.485527564000,-0.066000000000
9.493214685000,-0.081000000000
9.500901806000,-0.086000000000
9.508588927000,-0.071000000000
9.516276048000,-0.066000000000
9.523963169000,-0.076000000000
9.531650290000,-0.081000000000
9.539337411000,0.017000000000
9.547024532000,0.346000000000
9.554711653000,0.645000000000
9.562398774000,0.395000000000
9.570085895000,-0.225000000000
9.577773016000,-0.484000000000
9.585460137000,-0.309000000000
9.593147258000,-0.200000000000
9.600834379000,-0.190000000000
9.608521500000,-0.089000000000
9.616208621000,-0.037000000000
9.623895742000,-0.066000000000
9.631582863000,-0.051000000000
9.639269984000,-0.019000000000
9.646957105000,-0.022000000000
9.654644226000,-0.012000000000
9.662331347000,0.000000000000
9.670018468000,-0.014000000000
9.677705589000,-0.022000000000
9.685392710000,-0.004000000000
9.693079831000,-0.002000000000
9.700766952000,-0.002000000000
9.708454073000,0.009000000000
9.716141194000,0.017000000000
9.723828315000,0.012000000000
9.731515436000,0.009000000000
9.739202557000,0.024000000000
9.746889678000,0.047000000000
9.754576799000,0.056000000000
9.762263920000,0.049000000000
9.769951041000,0.042000000000
9.777638162000,0.056000000000
9.785325283000,0.076000000000
9.793012404000,0.079000000000
9.800699525000,0.074000000000
9.808386714000,0.069000000000
9.816073417000,0.059000000000
9.823760120000,0.054000000000
9.831446823000,0.051000000000
9.839133526000,0.024000000000
9.846820229000,-0.017000000000
9.854506932000,-0.042000000000
9.862193635000,-0.066000000000
9.869880338000,-0.094000000000
9.877567041000,-0.108000000000
9.885253744000,-0.118000000000
9.892940447000,-0.131000000000
9.900627150000,-0.133000000000
9.908313853000,-0.131000000000
9.916000556000,-0.126000000000
9.923687259000,-0.111000000000
9.931373962000,-0.103000000000
9.939060665000,-0.116000000000
9.946747368000,-0.113000000000
9.954434071000,-0.098000000000
9.962120774000,-0.098000000000
9.969807477000,-0.098000000000
9.977494180000,-0.096000000000
9.985180883000,-0.096000000000
9.992867586000,-0.089000000000
10.000554289000,-0.076000000000
10.008240992000,-0.076000000000
10.015927695000,-0.081000000000
10.023614398000,-0.089000000000
10.031301101000,-0.098000000000
10.038987804000,-0.098000000000
10.046674507000,-0.094000000000
10.054361210000,-0.089000000000
10.062047913000,-0.086000000000
10.069734616000,-0.091000000000
10.077421319000,-0.101000000000
10.085108022000,-0.089000000000
10.092794725000,-0.076000000000
10.100481428000,-0.089000000000
10.108168131000,-0.096000000000
10.115854834000,-0.091000000000
10.123541537000,-0.089000000000
10.131228240000,-0.089000000000
10.138914943000,-0.084000000000
10.146601646000,-0.081000000000
10.154288349000,-0.079000000000
10.161975052000,-0.086000000000
10.169661755000,-0.094000000000
10.177348458000,-0.098000000000
10.185035161000,-0.094000000000
10.192721864000,-0.074000000000
10.200408567000,-0.056000000000
10.208095270000,-0.049000000000
10.215781973000,-0.049000000000
10.223468676000,-0.049000000000
10.231155379000,-0.059000000000
10.238842082000,-0.081000000000
10.246528785000,-0.086000000000
10.254215488000,-0.069000000000
10.261902191000,-0.064000000000
10.269588894000,-0.074000000000
10.277275597000,-0.076000000000
10.284962300000,-0.079000000000
10.292649003000,-0.084000000000
10.300335706000,-0.039000000000
10.308022409000,0.183000000000
10.315709112000,0.551000000000
10.323395815000,0.611000000000
10.331082518000,0.131000000000
10.338769221000,-0.353000000000
10.346455924000,-0.376000000000
10.354142627000,-0.217000000000
10.361829330000,-0.185000000000
10.369516093000,-0.150000000000
10.377202936000,-0.084000000000
10.384889779000,-0.081000000000
10.392576622000,-0.089000000000
10.400263465000,-0.064000000000
10.407950308000,-0.049000000000
10.415637151000,-0.054000000000
10.423323994000,-0.054000000000
10.431010837000,-0.047000000000
10.438697680000,-0.037000000000
10.446384523000,-0.032000000000
10.454071366000,-0.029000000000
10.461758209000,-0.029000000000
10.469445052000,-0.024000000000
10.477131895000,-0.017000000000
10.484818738000,-0.017000000000
10.492505581000,-0.019000000000
10.500192424000,-0.004000000000
10.507879267000,0.009000000000
10.515566110000,0.012000000000
10.523252953000,0.019000000000
10.530939796000,0.032000000000
10.538626639000,0.039000000000
10.546313482000,0.051000000000
10.554000325000,0.047000000000
10.561687168000,0.032000000000
10.569374011000,0.047000000000
10.577060854000,0.056000000000
10.584747697000,0.037000000000
10.592434540000,0.022000000000
10.600121383000,0.014000000000
10.607808226000,-0.012000000000
10.615495069000,-0.044000000000
10.623181912000,-0.066000000000
10.630868755000,-0.086000000000
10.638555598000,-0.108000000000
10.646242441000,-0.126000000000
10.653929284000,-0.141000000000
10.661616127000,-0.141000000000
10.669302970000,-0.133000000000
10.676989813000,-0.131000000000
10.684676656000,-0.131000000000
10.692363499000,-0.126000000000
10.700050342000,-0.121000000000
10.707737185000,-0.116000000000
10.715424028000,-0.113000000000
10.723110871000,-0.111000000000
10.730797714000,-0.116000000000
10.738484557000,-0.116000000000
10.746171400000,-0.106000000000
10.753858243000,-0.098000000000
10.761545086000,-0.101000000000
10.769231929000,-0.103000000000
10.776918772000,-0.106000000000
10.784605615000,-0.103000000000
10.792292458000,-0.098000000000
10.799979301000,-0.106000000000
10.807666144000,-0.113000000000
10.815352987000,-0.106000000000
10.823039830000,-0.103000000000
10.830726673000,-0.111000000000
10.838413516000,-0.108000000000
10.846100359000,-0.101000000000
10.853787202000,-0.101000000000
10.861474045000,-0.108000000000
10.869160888000,-0.113000000000
10.876847731000,-0.106000000000
10.884534574000,-0.106000000000
10.892221417000,-0.113000000000
10.899908260000,-0.106000000000
10.907595103000,-0.098000000000
10.915281946000,-0.106000000000
10.922968789000,-0.113000000000
10.930655646000,-0.111000000000
10.938342419000,-0.116000000000
10.946029192000,-0.121000000000
10.953715965000,-0.111000000000
10.961402738000,-0.106000000000
10.969089511000,-0.098000000000
10.976776284000,-0.086000000000
10.984463057000,-0.076000000000
10.992149830000,-0.066000000000
10.999836603000,-0.074000000000
11.007523376000,-0.103000000000
11.015210149000,-0.116000000000
11.022896922000,-0.103000000000
11.030583695000,-0.106000000000
11.038270468000,-0.111000000000
11.045957241000,-0.108000000000
11.053644014000,-0.106000000000
11.061330787000,-0.103000000000
11.069017560000,-0.111000000000
11.076704333000,-0.101000000000
11.084391106000,0.069000000000
11.092077879000,0.432000000000
11.099764652000,0.591000000000
11.107451425000,0.217000000000
11.115138198000,-0.306000000000
11.122824971000,-0.445000000000
11.130511744000,-0.294000000000
11.138198517000,-0.230000000000
11.145885290000,-0.205000000000
11.153572063000,-0.118000000000
11.161258836000,-0.091000000000
11.168945609000,-0.111000000000
11.176632382000,-0.101000000000
11.184319155000,-0.086000000000
11.192005928000,-0.084000000000
11.199692701000,-0.084000000000
11.207379474000,-0.079000000000
11.215066247000,-0.069000000000
11.222753020000,-0.059000000000
11.230439793000,-0.054000000000
11.238126566000,-0.051000000000
11.245813339000,-0.066000000000
11.253500112000,-0.074000000000
11.261186885000,-0.051000000000
11.268873658000,-0.032000000000
11.276560431000,-0.032000000000
11.284247204000,-0.027000000000
11.291933977000,-0.012000000000
11.299620750000,-0.004000000000
11.307307523000,0.000000000000
11.314994296000,0.019000000000
11.322681069000,0.029000000000
11.330367842000,0.027000000000
11.338054615000,0.017000000000
11.345741388000,0.017000000000
11.353428161000,0.022000000000
11.361114934000,0.022000000000
11.368801707000,0.004000000000
11.376488480000,-0.017000000000
11.384175253000,-0.034000000000
11.391862026000,-0.061000000000
11.399548799000,-0.086000000000
11.407235572000,-0.108000000000
11.414922345000,-0.128000000000
11.422609118000,-0.150000000000
11.430295891000,-0.168000000000
11.437982664000,-0.168000000000
11.445669437000,-0.160000000000
11.453356210000,-0.155000000000
11.461042983000,-0.143000000000
11.468729756000,-0.148000000000
11.476416529000,-0.158000000000
11.484103302000,-0.145000000000
11.491790112000,-0.131000000000
11.499476885000,-0.141000000000
11.507163658000,-0.138000000000
11.514850431000,-0.123000000000
11.522537204000,-0.121000000000
11.530223977000,-0.128000000000
11.537910750000,-0.126000000000
11.545597523000,-0.123000000000
11.553284296000,-0.123000000000
11.560971069000,-0.121000000000
11.568657842000,-0.131000000000
11.576344615000,-0.136000000000
11.584031388000,-0.123000000000
11.591718161000,-0.123000000000
11.599404934000,-0.133000000000
11.607091707000,-0.136000000000
11.614778480000,-0.133000000000
11.622465253000,-0.126000000000
11.630152026000,-0.126000000000
11.637838799000,-0.136000000000
11.645525572000,-0.128000000000
11.653212345000,-0.106000000000
11.660899118000,-0.113000000000
11.668585891000,-0.131000000000
11.676272664000,-0.133000000000
11.683959437000,-0.123000000000
11.691646210000,-0.123000000000
11.699332983000,-0.131000000000
11.707019756000,-0.128000000000
11.714706529000,-0.118000000000
11.722393302000,-0.111000000000
11.730080075000,-0.111000000000
11.737766848000,-0.106000000000
11.745453621000,-0.089000000000
11.753140394000,-0.074000000000
11.760827167000,-0.084000000000
11.768513940000,-0.098000000000
11.776200713000,-0.096000000000
11.783887486000,-0.094000000000
11.791574259000,-0.108000000000
11.799261032000,-0.116000000000
11.806947805000,-0.111000000000
11.814634578000,-0.106000000000
11.822321351000,-0.101000000000
11.830008124000,-0.116000000000
11.837694897000,-0.106000000000
11.845381670000,0.051000000000
11.853068443000,0.408000000000
11.860755216000,0.591000000000
11.868441989000,0.180000000000
11.876128762000,-0.398000000000
11.883815535000,-0.502000000000
11.891502308000,-0.321000000000
11.899189081000,-0.277000000000
11.906875854000,-0.252000000000
11.914562627000,-0.131000000000
11.922249400000,-0.089000000000
11.929936173000,-0.118000000000
11.937622946000,-0.094000000000
11.945309719000,-0.069000000000
11.952996492000,-0.081000000000
11.960683265000,-0.074000000000
11.968370038000,-0.056000000000
11.976056811000,-0.064000000000
11.983743584000,-0.061000000000
11.991430357000,-0.047000000000
11.999117130000,-0.047000000000
12.006803903000,-0.044000000000
12.014490676000,-0.039000000000
12.022177449000,-0.034000000000
12.029864222000,-0.022000000000
12.037550995000,-0.017000000000
12.045237768000,-0.014000000000
12.052924578000,0.000000000000
12.060611351000,0.012000000000
12.068298124000,0.019000000000
12.075984897000,0.034000000000
12.083671670000,0.051000000000
12.091358443000,0.066000000000
12.099045216000,0.061000000000
12.106731989000,0.044000000000
12.114418762000,0.039000000000
12.122105535000,0.047000000000
12.129792308000,0.037000000000
12.137479081000,0.004000000000
12.145165854000,-0.019000000000
12.152852627000,-0.044000000000
12.160539400000,-0.076000000000
12.168226173000,-0.106000000000
12.175912946000,-0.136000000000
12.183599719000,-0.160000000000
12.191286492000,-0.168000000000
12.198973265000,-0.175000000000
12.206660038000,-0.183000000000
12.214346811000,-0.168000000000
12.222033584000,-0.153000000000
12.229720357000,-0.158000000000
12.237407130000,-0.160000000000
12.245093903000,-0.150000000000
12.252780676000,-0.141000000000
12.260467449000,-0.138000000000
12.268154222000,-0.131000000000
12.275840995000,-0.126000000000
12.283527768000,-0.121000000000
12.291214541000,-0.121000000000
12.298901314000,-0.123000000000
12.306588087000,-0.118000000000
12.314274860000,-0.118000000000
12.321961633000,-0.123000000000
12.329648406000,-0.116000000000
12.337335179000,-0.118000000000
12.345021952000,-0.141000000000
12.352708725000,-0.138000000000
12.360395498000,-0.116000000000
12.368082271000,-0.121000000000
12.375769044000,-0.133000000000
12.383455817000,-0.131000000000
12.391142590000,-0.121000000000
12.398829363000,-0.123000000000
12.406516136000,-0.138000000000
12.414202909000,-0.138000000000
12.421889682000,-0.123000000000
12.429576455000,-0.123000000000
12.437263228000,-0.128000000000
12.444950001000,-0.128000000000
12.452636774000,-0.126000000000
12.460323547000,-0.128000000000
12.468010320000,-0.128000000000
12.475697093000,-0.128000000000
12.483383866000,-0.118000000000
12.491070639000,-0.101000000000
12.498757412000,-0.084000000000
12.506444185000,-0.086000000000
12.514130958000,-0.101000000000
12.521817731000,-0.113000000000
12.529504504000,-0.113000000000
12.537191277000,-0.113000000000
12.544878050000,-0.113000000000
12.552564823000,-0.111000000000
12.560251596000,-0.106000000000
12.567938369000,-0.101000000000
12.575625142000,-0.116000000000
12.583311915000,-0.126000000000
12.590998688000,-0.019000000000
12.598685461000,0.314000000000
12.606372234000,0.603000000000
12.614059044000,0.351000000000
12.621745817000,-0.244000000000
12.629432590000,-0.487000000000
12.637119363000,-0.326000000000
12.644806136000,-0.235000000000
12.652492909000,-0.227000000000
12.660179682000,-0.128000000000
12.667866455000,-0.061000000000
12.675553228000,-0.084000000000
12.683240001000,-0.086000000000
12.690926774000,-0.059000000000
12.698613547000,-0.047000000000
12.706300320000,-0.047000000000
12.713987093000,-0.042000000000
12.721673866000,-0.037000000000
12.729360639000,-0.034000000000
12.737047412000,-0.027000000000
12.744734185000,-0.017000000000
12.752420958000,-0.009000000000
12.760107731000,-0.009000000000
12.767794504000,-0.012000000000
12.775481277000,-0.002000000000
12.783168050000,0.012000000000
12.790854823000,0.014000000000
12.798541596000,0.012000000000
12.806228369000,0.029000000000
12.813915142000,0.049000000000
12.821601915000,0.051000000000
12.829288688000,0.054000000000
12.836975461000,0.071000000000
12.844662234000,0.079000000000
12.852349007000,0.074000000000
12.860035780000,0.071000000000
12.867722553000,0.069000000000
12.875409326000,0.071000000000
12.883096099000,0.051000000000
12.890782872000,0.007000000000
12.898469645000,-0.012000000000
12.906156418000,-0.029000000000
12.913843191000,-0.071000000000
12.921529964000,-0.101000000000
12.929216737000,-0.106000000000
12.936903510000,-0.118000000000
12.944590283000,-0.128000000000
12.952277056000,-0.123000000000
12.959963829000,-0.121000000000
12.967650602000,-0.121000000000
12.975337375000,-0.113000000000
12.983024148000,-0.108000000000
12.990710921000,-0.108000000000
12.998397694000,-0.091000000000
13.006084467000,-0.079000000000
13.013771240000,-0.089000000000
13.021458013000,-0.094000000000
13.029144786000,-0.086000000000
13.036831559000,-0.076000000000
13.044518332000,-0.076000000000
13.052205105000,-0.079000000000
13.059891878000,-0.071000000000
13.067578651000,-0.071000000000
13.075265424000,-0.086000000000
13.082952197000,-0.086000000000
13.090638970000,-0.071000000000
13.098325743000,-0.079000000000
13.106012516000,-0.096000000000
13.113699289000,-0.091000000000
13.121386062000,-0.081000000000
13.129072835000,-0.084000000000
13.136759608000,-0.086000000000
13.144446381000,-0.076000000000
13.152133154000,-0.076000000000
13.159819927000,-0.084000000000
13.167506700000,-0.091000000000
13.175193506000,-0.086000000000
13.182880627000,-0.071000000000
13.190567748000,-0.069000000000
13.198254869000,-0.091000000000
13.205941990000,-0.106000000000
13.213629111000,-0.094000000000
13.221316232000,-0.089000000000
13.229003353000,-0.084000000000
13.236690474000,-0.064000000000
13.244377595000,-0.054000000000
13.252064716000,-0.051000000000
13.259751837000,-0.047000000000
13.267438958000,-0.056000000000
13.275126079000,-0.066000000000
13.282813200000,-0.059000000000
13.290500321000,-0.069000000000
13.298187442000,-0.084000000000
13.305874563000,-0.081000000000
13.313561684000,-0.074000000000
13.321248805000,-0.071000000000
13.328935926000,-0.066000000000
13.336623047000,-0.066000000000
13.344310168000,-0.047000000000
13.351997289000,0.153000000000
13.359684410000,0.541000000000
13.367371531000,0.655000000000
13.375058652000,0.195000000000
13.382745773000,-0.326000000000
13.390432894000,-0.388000000000
13.398120015000,-0.230000000000
13.405807136000,-0.188000000000
13.413494257000,-0.153000000000
13.421181378000,-0.074000000000
13.428868499000,-0.079000000000
13.436555620000,-0.103000000000
13.444242741000,-0.066000000000
13.451929862000,-0.037000000000
13.459616983000,-0.042000000000
13.467304104000,-0.051000000000
13.474991225000,-0.049000000000
13.482678346000,-0.037000000000
13.490365467000,-0.027000000000
13.498052588000,-0.032000000000
13.505739709000,-0.037000000000
13.513426830000,-0.022000000000
13.521113951000,-0.009000000000
13.528801072000,-0.007000000000
13.536488193000,-0.004000000000
13.544175314000,0.002000000000
13.551862435000,0.009000000000
13.559549556000,0.009000000000
13.567236677000,0.022000000000
13.574923798000,0.049000000000
13.582610919000,0.061000000000
13.590298040000,0.054000000000
13.597985161000,0.054000000000
13.605672282000,0.064000000000
13.613359403000,0.066000000000
13.621046524000,0.059000000000
13.628733645000,0.049000000000
13.636420766000,0.042000000000
13.644107887000,0.029000000000
13.651795008000,0.002000000000
13.659482129000,-0.029000000000
13.667169250000,-0.056000000000
13.674856371000,-0.081000000000
13.682543492000,-0.108000000000
13.690230613000,-0.123000000000
13.697917734000,-0.121000000000
13.705604855000,-0.113000000000
13.713291976000,-0.121000000000
13.720979097000,-0.123000000000
13.728666218000,-0.116000000000
13.736353407000,-0.118000000000
13.744040110000,-0.123000000000
13.751726813000,-0.113000000000
13.759413516000,-0.101000000000
13.767100219000,-0.096000000000
13.774786922000,-0.094000000000
13.782473625000,-0.089000000000
13.790160328000,-0.094000000000
13.797847031000,-0.103000000000
13.805533734000,-0.094000000000
13.813220437000,-0.079000000000
13.820907140000,-0.081000000000
13.828593843000,-0.091000000000
13.836280546000,-0.096000000000
13.843967249000,-0.094000000000
13.851653952000,-0.089000000000
13.859340655000,-0.084000000000
13.867027358000,-0.091000000000
13.874714061000,-0.096000000000
13.882400764000,-0.094000000000
13.890087467000,-0.086000000000
13.897774170000,-0.079000000000
13.905460873000,-0.081000000000
13.913147576000,-0.089000000000
13.920834279000,-0.091000000000
13.928520982000,-0.089000000000
13.936207685000,-0.086000000000
13.943894388000,-0.086000000000
13.951581091000,-0.079000000000
13.959267794000,-0.074000000000
13.966954497000,-0.079000000000
13.974641200000,-0.084000000000
13.982327903000,-0.074000000000
13.990014606000,-0.076000000000
13.997701309000,-0.091000000000
14.005388012000,-0.096000000000
14.013074715000,-0.071000000000
14.020761418000,-0.042000000000
14.028448121000,-0.039000000000
14.036134824000,-0.059000000000
14.043821527000,-0.061000000000
14.051508230000,-0.059000000000
14.059194933000,-0.074000000000
14.066881636000,-0.074000000000
14.074568339000,-0.064000000000
14.082255042000,-0.081000000000
14.089941745000,-0.094000000000
14.097628448000,-0.081000000000
14.105315151000,-0.076000000000
14.113001854000,-0.084000000000
14.120688557000,-0.094000000000
14.128375260000,-0.071000000000
14.136061963000,0.103000000000
14.143748666000,0.465000000000
14.151435369000,0.620000000000
14.159122072000,0.244000000000
14.166808775000,-0.286000000000
14.174495478000,-0.423000000000
14.182182181000,-0.267000000000
14.189868884000,-0.200000000000
14.197555587000,-0.180000000000
14.205242290000,-0.103000000000
14.212928993000,-0.091000000000
14.220615696000,-0.108000000000
14.228302399000,-0.086000000000
14.235989102000,-0.076000000000
14.243675805000,-0.089000000000
14.251362508000,-0.084000000000
14.259049211000,-0.074000000000
14.266735914000,-0.074000000000
14.274422617000,-0.071000000000
14.282109320000,-0.066000000000
14.289796023000,-0.066000000000
14.297482786000,-0.061000000000
14.305169489000,-0.059000000000
14.312856192000,-0.051000000000
14.320542895000,-0.042000000000
14.328229598000,-0.044000000000
14.335916301000,-0.049000000000
14.343603004000,-0.042000000000
14.351289707000,-0.029000000000
14.358976410000,-0.024000000000
14.366663113000,-0.019000000000
14.374349816000,-0.007000000000
14.382036519000,0.004000000000
14.389723222000,0.007000000000
14.397409925000,-0.004000000000
14.405096628000,-0.014000000000
14.412783331000,-0.012000000000
14.420470034000,-0.017000000000
14.428156737000,-0.042000000000
14.435843440000,-0.071000000000
14.443530143000,-0.089000000000
14.451216846000,-0.111000000000
14.458903549000,-0.150000000000
14.466590252000,-0.170000000000
14.474276955000,-0.175000000000
14.481963658000,-0.197000000000
14.489650361000,-0.215000000000
14.497337064000,-0.207000000000
14.505023767000,-0.200000000000
14.512710470000,-0.212000000000
14.520397173000,-0.210000000000
14.528083876000,-0.190000000000
14.535770579000,-0.183000000000
14.543457282000,-0.188000000000
14.551143985000,-0.188000000000
14.558830688000,-0.190000000000
14.566517391000,-0.197000000000
14.574204094000,-0.192000000000
14.581890797000,-0.183000000000
14.589577500000,-0.192000000000
14.597264203000,-0.207000000000
14.604950906000,-0.210000000000
14.612637609000,-0.202000000000
14.620324312000,-0.202000000000
14.628011015000,-0.210000000000
14.635697718000,-0.212000000000
14.643384421000,-0.210000000000
14.651071124000,-0.215000000000
14.658757827000,-0.222000000000
14.666444530000,-0.222000000000
14.674131233000,-0.217000000000
14.681817936000,-0.210000000000
14.689504639000,-0.210000000000
14.697191342000,-0.220000000000
14.704878045000,-0.220000000000
14.712564748000,-0.210000000000
14.720251451000,-0.207000000000
14.727938154000,-0.210000000000
14.735624857000,-0.205000000000
14.743311560000,-0.200000000000
14.750998263000,-0.205000000000
14.758684966000,-0.205000000000
14.766371669000,-0.210000000000
14.774058372000,-0.212000000000
14.781745075000,-0.195000000000
14.789431778000,-0.195000000000
14.797118481000,-0.207000000000
14.804805184000,-0.202000000000
14.812491887000,-0.195000000000
14.820178590000,-0.197000000000
14.827865293000,-0.192000000000
14.835551996000,-0.188000000000
14.843238699000,-0.175000000000
14.850925402000,-0.158000000000
14.858612165000,-0.158000000000
14.866298868000,-0.173000000000
14.873985571000,-0.178000000000
14.881672274000,-0.178000000000
14.889358977000,-0.185000000000
14.897045680000,-0.195000000000
14.904732383000,-0.202000000000
14.912419086000,-0.190000000000
14.920105789000,-0.173000000000
14.927792492000,-0.183000000000
14.935479195000,-0.200000000000
14.943165898000,-0.106000000000
14.950852601000,0.225000000000
14.958539304000,0.517000000000
14.966226007000,0.269000000000
14.973912710000,-0.319000000000
14.981599413000,-0.566000000000
14.989286116000,-0.430000000000
14.996972819000,-0.346000000000
15.004659522000,-0.331000000000
15.012346225000,-0.244000000000
15.020032928000,-0.188000000000
15.027719631000,-0.195000000000
15.035406334000,-0.185000000000
15.043093037000,-0.168000000000
15.050779740000,-0.168000000000
15.058466443000,-0.165000000000
15.066153146000,-0.158000000000
15.073839849000,-0.155000000000
15.081526552000,-0.155000000000
15.089213255000,-0.168000000000
15.096899958000,-0.168000000000
15.104586661000,-0.143000000000
15.112273364000,-0.143000000000
15.119960067000,-0.158000000000
15.127646770000,-0.150000000000
15.135333473000,-0.131000000000
15.143020176000,-0.123000000000
15.150706879000,-0.118000000000
15.158393582000,-0.113000000000
15.166080285000,-0.113000000000
15.173766988000,-0.111000000000
15.181453691000,-0.096000000000
15.189140394000,-0.086000000000
15.196827097000,-0.084000000000
15.204513800000,-0.084000000000
15.212200503000,-0.086000000000
15.219887206000,-0.091000000000
15.227573909000,-0.098000000000
15.235260612000,-0.126000000000
15.242947315000,-0.155000000000
15.250634018000,-0.173000000000
15.258320721000,-0.200000000000
15.266007424000,-0.242000000000
15.273694127000,-0.267000000000
15.281380830000,-0.279000000000
15.289067533000,-0.296000000000
15.296754236000,-0.314000000000
15.304440939000,-0.314000000000
15.312127642000,-0.309000000000
15.319814345000,-0.311000000000
15.327501048000,-0.306000000000
15.335187751000,-0.294000000000
15.342874454000,-0.286000000000
15.350561157000,-0.294000000000
15.358247860000,-0.301000000000
15.365934563000,-0.291000000000
15.373621266000,-0.277000000000
15.381307969000,-0.277000000000
15.388994672000,-0.282000000000
15.396681375000,-0.274000000000
15.404368078000,-0.264000000000
15.412054781000,-0.279000000000
15.419741544000,-0.289000000000
15.427428596000,-0.272000000000
15.435115648000,-0.272000000000
15.442802700000,-0.291000000000
15.450489752000,-0.294000000000
15.458176804000,-0.284000000000
15.465863856000,-0.286000000000
15.473550908000,-0.289000000000
15.481237960000,-0.277000000000
15.488925012000,-0.277000000000
15.496612064000,-0.294000000000
15.504299116000,-0.284000000000
15.511986168000,-0.267000000000
15.519673220000,-0.279000000000
15.527360272000,-0.284000000000
15.535047324000,-0.267000000000
15.542734376000,-0.259000000000
15.550421428000,-0.264000000000
15.558108480000,-0.264000000000
15.565795532000,-0.269000000000
15.573482584000,-0.272000000000
15.581169636000,-0.262000000000
15.588856688000,-0.259000000000
15.596543740000,-0.249000000000
15.604230792000,-0.220000000000
15.611917844000,-0.217000000000
15.619604896000,-0.232000000000
15.627291948000,-0.220000000000
15.634979000000,-0.212000000000
15.642666052000,-0.232000000000
15.650353104000,-0.239000000000
15.658040156000,-0.230000000000
15.665727208000,-0.232000000000
15.673414260000,-0.244000000000
15.681101312000,-0.227000000000
15.688788364000,-0.207000000000
15.696475416000,-0.235000000000
15.704162468000,-0.244000000000
15.711849520000,-0.076000000000
15.719536572000,0.304000000000
15.727223624000,0.499000000000
15.734910676000,0.103000000000
15.742597728000,-0.487000000000
15.750284780000,-0.620000000000
15.757971832000,-0.435000000000
15.765658884000,-0.373000000000
15.773345936000,-0.351000000000
15.781032988000,-0.235000000000
15.788720040000,-0.183000000000
15.796407092000,-0.212000000000
15.804094144000,-0.195000000000
15.811781196000,-0.155000000000
15.819468248000,-0.173000000000
15.827155300000,-0.195000000000
15.834842352000,-0.173000000000
15.842529404000,-0.158000000000
15.850216456000,-0.155000000000
15.857903508000,-0.141000000000
15.865590560000,-0.126000000000
15.873277612000,-0.128000000000
15.880964664000,-0.131000000000
15.888651716000,-0.126000000000
15.896338768000,-0.113000000000
15.904025820000,-0.098000000000
15.911712872000,-0.084000000000
15.919399924000,-0.076000000000
15.927086976000,-0.071000000000
15.934774028000,-0.056000000000
15.942461080000,-0.032000000000
15.950148132000,-0.017000000000
15.957835184000,-0.019000000000
15.965522236000,-0.022000000000
15.973209288000,-0.009000000000
15.980896358000,-0.007000000000
15.988583131000,-0.014000000000
15.996269904000,-0.014000000000
16.003956677000,-0.024000000000
16.011643450000,-0.054000000000
16.019330223000,-0.089000000000
16.027016996000,-0.111000000000
16.034703769000,-0.133000000000
16.042390542000,-0.158000000000
16.050077315000,-0.178000000000
16.057764088000,-0.188000000000
16.065450861000,-0.188000000000
16.073137634000,-0.188000000000
16.080824407000,-0.188000000000
16.088511180000,-0.183000000000
16.096197953000,-0.175000000000
16.103884726000,-0.165000000000
16.111571499000,-0.155000000000
16.119258272000,-0.150000000000
16.126945045000,-0.150000000000
16.134631818000,-0.141000000000
16.142318591000,-0.126000000000
16.150005364000,-0.128000000000
16.157692137000,-0.138000000000
16.165378910000,-0.126000000000
16.173065683000,-0.113000000000
16.180752456000,-0.116000000000
16.188439229000,-0.123000000000
16.196126002000,-0.123000000000
16.203812775000,-0.113000000000
16.211499548000,-0.113000000000
16.219186321000,-0.126000000000
16.226873094000,-0.118000000000
16.234559867000,-0.106000000000
16.242246640000,-0.111000000000
16.249933413000,-0.106000000000
16.257620186000,-0.101000000000
16.265306959000,-0.111000000000
16.272993732000,-0.113000000000
16.280680505000,-0.096000000000
16.288367278000,-0.094000000000
16.296054051000,-0.106000000000
16.303740824000,-0.103000000000
16.311427597000,-0.089000000000
16.319114370000,-0.086000000000
16.326801143000,-0.089000000000
16.334487916000,-0.084000000000
16.342174689000,-0.079000000000
16.349861462000,-0.084000000000
16.357548235000,-0.089000000000
16.365235008000,-0.091000000000
16.372921781000,-0.086000000000
16.380608554000,-0.069000000000
16.388295327000,-0.051000000000
16.395982100000,-0.049000000000
16.403668873000,-0.042000000000
16.411355646000,-0.039000000000
16.419042419000,-0.051000000000
16.426729192000,-0.059000000000
16.434415965000,-0.047000000000
16.442102738000,-0.049000000000
16.449789511000,-0.069000000000
16.457476284000,-0.064000000000
16.465163057000,-0.042000000000
16.472849830000,-0.042000000000
16.480536603000,-0.069000000000
16.488223376000,-0.064000000000
16.495910149000,0.121000000000
16.503596922000,0.512000000000
16.511283695000,0.700000000000
16.518970468000,0.326000000000
16.526657241000,-0.237000000000
16.534344014000,-0.388000000000
16.542030824000,-0.227000000000
16.549717527000,-0.163000000000
16.557404230000,-0.145000000000
16.565090933000,-0.069000000000
16.572777636000,-0.049000000000
16.580464339000,-0.066000000000
16.588151042000,-0.042000000000
16.595837745000,-0.019000000000
16.603524448000,-0.024000000000
16.611211151000,-0.022000000000
16.618897854000,-0.017000000000
16.626584557000,-0.019000000000
16.634271260000,-0.002000000000
16.641957963000,0.004000000000
16.649644666000,-0.012000000000
16.657331369000,-0.007000000000
16.665018072000,0.014000000000
16.672704775000,0.024000000000
16.680391478000,0.032000000000
16.688078181000,0.029000000000
16.695764884000,0.022000000000
16.703451587000,0.037000000000
16.711138290000,0.056000000000
16.718824993000,0.061000000000
16.726511696000,0.074000000000
16.734198399000,0.089000000000
16.741885102000,0.094000000000
16.749571805000,0.098000000000
16.757258508000,0.098000000000
16.764945211000,0.094000000000
16.772631914000,0.084000000000
16.780318617000,0.079000000000
16.788005320000,0.066000000000
16.795692023000,0.047000000000
16.803378726000,0.017000000000
16.811065429000,-0.009000000000
16.818752132000,-0.034000000000
16.826438835000,-0.056000000000
16.834125538000,-0.076000000000
16.841812241000,-0.089000000000
16.849498944000,-0.103000000000
16.857185647000,-0.106000000000
16.864872350000,-0.094000000000
16.872559053000,-0.089000000000
16.880245756000,-0.089000000000
16.887932459000,-0.086000000000
16.895619162000,-0.081000000000
16.903305865000,-0.076000000000
16.910992568000,-0.079000000000
16.918679271000,-0.076000000000
16.926365974000,-0.064000000000
16.934052677000,-0.069000000000
16.941739380000,-0.084000000000
16.949426083000,-0.074000000000
16.957112786000,-0.054000000000
16.964799489000,-0.064000000000
16.972486192000,-0.074000000000
16.980172895000,-0.064000000000
16.987859598000,-0.059000000000
16.995546301000,-0.069000000000
17.003233004000,-0.064000000000
17.010919707000,-0.061000000000
17.018606410000,-0.071000000000
17.026293113000,-0.069000000000
17.033979816000,-0.061000000000
17.041666519000,-0.064000000000
17.049353222000,-0.069000000000
17.057039925000,-0.059000000000
17.064726628000,-0.056000000000
17.072413331000,-0.064000000000
17.080100034000,-0.064000000000
17.087786737000,-0.056000000000
17.095473440000,-0.059000000000
17.103160203000,-0.059000000000
17.110847046000,-0.049000000000
17.118533889000,-0.047000000000
17.126220732000,-0.054000000000
17.133907575000,-0.059000000000
17.141594418000,-0.054000000000
17.149281261000,-0.051000000000
17.156968104000,-0.064000000000
17.164654947000,-0.064000000000
17.172341790000,-0.049000000000
17.180028633000,-0.039000000000
17.187715476000,-0.037000000000
17.195402319000,-0.029000000000
17.203089162000,-0.024000000000
17.210776005000,-0.017000000000
17.218462848000,-0.014000000000
17.226149691000,-0.039000000000
17.233836534000,-0.049000000000
17.241523377000,-0.034000000000
17.249210220000,-0.037000000000
17.256897063000,-0.049000000000
17.264583906000,-0.051000000000
17.272270749000,-0.039000000000
17.279957592000,-0.037000000000
17.287644435000,-0.054000000000
17.295331278000,-0.032000000000
17.303018121000,0.192000000000
17.310704964000,0.573000000000
17.318391807000,0.643000000000
17.326078650000,0.188000000000
17.333765493000,-0.291000000000
17.341452336000,-0.343000000000
17.349139179000,-0.197000000000
17.356826022000,-0.163000000000
17.364512865000,-0.126000000000
17.372199708000,-0.039000000000
17.379886551000,-0.029000000000
17.387573394000,-0.061000000000
17.395260237000,-0.047000000000
17.402947080000,-0.024000000000
17.410633923000,-0.027000000000
17.418320766000,-0.022000000000
17.426007609000,-0.009000000000
17.433694452000,-0.009000000000
17.441381295000,-0.012000000000
17.449068138000,-0.007000000000
17.456754981000,-0.004000000000
17.464441824000,0.000000000000
17.472128667000,0.007000000000
17.479815510000,0.019000000000
17.487502353000,0.019000000000
17.495189196000,0.012000000000
17.502876039000,0.024000000000
17.510562882000,0.044000000000
17.518249725000,0.047000000000
17.525936568000,0.044000000000
17.533623411000,0.056000000000
17.541310254000,0.076000000000
17.548997097000,0.086000000000
17.556683940000,0.081000000000
17.564370783000,0.076000000000
17.572057626000,0.076000000000
17.579744469000,0.069000000000
17.587431312000,0.054000000000
17.595118155000,0.042000000000
17.602804998000,0.027000000000
17.610491841000,0.004000000000
17.618178684000,-0.024000000000
17.625865527000,-0.056000000000
17.633552370000,-0.079000000000
17.641239213000,-0.091000000000
17.648926056000,-0.101000000000
17.656612899000,-0.098000000000
17.664299756000,-0.094000000000
17.671986738000,-0.106000000000
17.679673720000,-0.118000000000
17.687360702000,-0.103000000000
17.695047684000,-0.084000000000
17.702734666000,-0.089000000000
17.710421648000,-0.096000000000
17.718108630000,-0.086000000000
17.725795612000,-0.079000000000
17.733482594000,-0.079000000000
17.741169576000,-0.074000000000
17.748856558000,-0.074000000000
17.756543540000,-0.079000000000
17.764230522000,-0.079000000000
17.771917504000,-0.071000000000
17.779604486000,-0.076000000000
17.787291468000,-0.084000000000
17.794978450000,-0.081000000000
17.802665432000,-0.076000000000
17.810352414000,-0.081000000000
17.818039396000,-0.081000000000
17.825726378000,-0.071000000000
17.833413360000,-0.066000000000
17.841100342000,-0.074000000000
17.848787324000,-0.076000000000
17.856474306000,-0.076000000000
17.864161288000,-0.079000000000
17.871848270000,-0.076000000000
17.879535252000,-0.074000000000
17.887222234000,-0.076000000000
17.894909216000,-0.076000000000
17.902596198000,-0.069000000000
17.910283180000,-0.064000000000
17.917970162000,-0.066000000000
17.925657144000,-0.071000000000
17.933344126000,-0.069000000000
17.941031108000,-0.066000000000
17.948718090000,-0.069000000000
17.956405072000,-0.061000000000
17.964092054000,-0.054000000000
17.971779036000,-0.069000000000
17.979466018000,-0.081000000000
17.987153000000,-0.076000000000
17.994839982000,-0.074000000000
18.002526964000,-0.069000000000
18.010213946000,-0.054000000000
18.017900928000,-0.042000000000
18.025587910000,-0.039000000000
18.033274892000,-0.032000000000
18.040961874000,-0.024000000000
18.048648856000,-0.042000000000
18.056335838000,-0.059000000000
18.064022820000,-0.066000000000
18.071709802000,-0.066000000000
18.079396784000,-0.064000000000
18.087083766000,-0.059000000000
18.094770748000,-0.054000000000
18.102457730000,-0.056000000000
18.110144712000,-0.069000000000
18.117831694000,-0.079000000000
18.125518676000,-0.012000000000
18.133205658000,0.272000000000
18.140892640000,0.611000000000
18.148579622000,0.522000000000
18.156266604000,-0.012000000000
18.163953586000,-0.378000000000
18.171640568000,-0.316000000000
18.179327550000,-0.197000000000
18.187014532000,-0.183000000000
18.194701514000,-0.123000000000
18.202388496000,-0.059000000000
18.210075478000,-0.069000000000
18.217762460000,-0.071000000000
18.225449479000,-0.049000000000
18.233136182000,-0.044000000000
18.240822885000,-0.044000000000
18.248509588000,-0.034000000000
18.256196291000,-0.029000000000
18.263882994000,-0.042000000000
18.271569697000,-0.044000000000
18.279256400000,-0.027000000000
18.286943103000,-0.017000000000
18.294629806000,-0.027000000000
18.302316509000,-0.027000000000
18.310003212000,-0.007000000000
18.317689915000,0.004000000000
18.325376618000,-0.002000000000
18.333063321000,-0.004000000000
18.340750024000,0.012000000000
18.348436727000,0.032000000000
18.356123430000,0.037000000000
18.363810133000,0.049000000000
18.371496836000,0.061000000000
18.379183539000,0.051000000000
18.386870242000,0.051000000000
18.394556945000,0.061000000000
18.402243648000,0.056000000000
18.409930351000,0.049000000000
18.417617054000,0.042000000000
18.425303757000,0.027000000000
18.432990460000,0.014000000000
18.440677163000,-0.012000000000
18.448363866000,-0.059000000000
18.456050569000,-0.084000000000
18.463737272000,-0.101000000000
18.471423975000,-0.126000000000
18.479110678000,-0.128000000000
18.486797381000,-0.113000000000
18.494484084000,-0.118000000000
18.502170787000,-0.131000000000
18.509857490000,-0.126000000000
18.517544193000,-0.108000000000
18.525230896000,-0.103000000000
18.532917599000,-0.116000000000
18.540604302000,-0.113000000000
18.548291005000,-0.094000000000
18.555977708000,-0.091000000000
18.563664411000,-0.098000000000
18.571351114000,-0.101000000000
18.579037817000,-0.096000000000
18.586724520000,-0.096000000000
18.594411223000,-0.103000000000
18.602097926000,-0.106000000000
18.609784629000,-0.106000000000
18.617471332000,-0.108000000000
18.625158035000,-0.101000000000
18.632844738000,-0.089000000000
18.640531441000,-0.096000000000
18.648218144000,-0.113000000000
18.655904847000,-0.116000000000
18.663591550000,-0.101000000000
18.671278253000,-0.098000000000
18.678964956000,-0.106000000000
18.686651659000,-0.108000000000
18.694338362000,-0.094000000000
18.702025065000,-0.084000000000
18.709711768000,-0.094000000000
18.717398471000,-0.103000000000
18.725085174000,-0.101000000000
18.732771877000,-0.086000000000
18.740458580000,-0.094000000000
18.748145283000,-0.111000000000
18.755831986000,-0.106000000000
18.763518689000,-0.096000000000
18.771205392000,-0.098000000000
18.778892095000,-0.089000000000
18.786578858000,-0.064000000000
18.794265561000,-0.066000000000
18.801952264000,-0.081000000000
18.809638967000,-0.071000000000
18.817325670000,-0.066000000000
18.825012373000,-0.084000000000
18.832699076000,-0.098000000000
18.840385779000,-0.094000000000
18.848072482000,-0.086000000000
18.855759185000,-0.091000000000
18.863445888000,-0.094000000000
18.871132591000,-0.096000000000
18.878819294000,-0.096000000000
18.886505997000,-0.098000000000
18.894192700000,-0.049000000000
18.901879403000,0.210000000000
18.909566106000,0.569000000000
18.917252809000,0.487000000000
18.924939512000,-0.106000000000
18.932626215000,-0.494000000000
18.940312918000,-0.403000000000
18.947999621000,-0.286000000000
18.955686324000,-0.284000000000
18.963373027000,-0.183000000000
18.971059730000,-0.081000000000
18.978746433000,-0.084000000000
18.986433136000,-0.079000000000
18.994119839000,-0.056000000000
19.001806542000,-0.066000000000
19.009493245000,-0.069000000000
19.017179948000,-0.054000000000
19.024866651000,-0.047000000000
19.032553354000,-0.044000000000
19.040240057000,-0.034000000000
19.047926760000,-0.029000000000
19.055613463000,-0.042000000000
19.063300166000,-0.042000000000
19.070986869000,-0.022000000000
19.078673572000,-0.019000000000
19.086360275000,-0.019000000000
19.094046978000,-0.012000000000
19.101733681000,-0.002000000000
19.109420384000,0.012000000000
19.117107087000,0.017000000000
19.124793790000,0.017000000000
19.132480493000,0.049000000000
19.140167196000,0.074000000000
19.147853899000,0.061000000000
19.155540602000,0.049000000000
19.163227305000,0.049000000000
19.170914008000,0.054000000000
19.178600711000,0.044000000000
19.186287414000,0.024000000000
19.193974117000,0.009000000000
19.201660820000,-0.019000000000
19.209347523000,-0.071000000000
19.217034226000,-0.101000000000
19.224720929000,-0.123000000000
19.232407632000,-0.163000000000
19.240094335000,-0.183000000000
19.247781038000,-0.180000000000
19.255467741000,-0.178000000000
19.263154444000,-0.178000000000
19.270841147000,-0.183000000000
19.278527850000,-0.192000000000
19.286214553000,-0.188000000000
19.293901256000,-0.173000000000
19.301587959000,-0.168000000000
19.309274662000,-0.168000000000
19.316961365000,-0.165000000000
19.324648068000,-0.165000000000
19.332334771000,-0.170000000000
19.340021474000,-0.163000000000
19.347708237000,-0.150000000000
19.355394940000,-0.155000000000
19.363081643000,-0.165000000000
19.370768346000,-0.168000000000
19.378455049000,-0.173000000000
19.386141752000,-0.180000000000
19.393828455000,-0.175000000000
19.401515158000,-0.170000000000
19.409201861000,-0.173000000000
19.416888564000,-0.183000000000
19.424575267000,-0.185000000000
19.432261970000,-0.188000000000
19.439948673000,-0.190000000000
19.447635376000,-0.192000000000
19.455322079000,-0.197000000000
19.463008782000,-0.195000000000
19.470695485000,-0.185000000000
19.478382188000,-0.190000000000
19.486068891000,-0.195000000000
19.493755594000,-0.190000000000
19.501442297000,-0.192000000000
19.509129000000,-0.212000000000
19.516815703000,-0.215000000000
19.524502406000,-0.200000000000
19.532189109000,-0.192000000000
19.539875812000,-0.190000000000
19.547562515000,-0.185000000000
19.555249218000,-0.170000000000
19.562935921000,-0.148000000000
19.570622624000,-0.160000000000
19.578309327000,-0.202000000000
19.585996030000,-0.210000000000
19.593682733000,-0.192000000000
19.601369436000,-0.197000000000
19.609056139000,-0.197000000000
19.616742842000,-0.190000000000
19.624429545000,-0.195000000000
19.632116248000,-0.202000000000
19.639802951000,-0.207000000000
19.647489654000,-0.163000000000
19.655176357000,0.086000000000
19.662863060000,0.462000000000
19.670549763000,0.442000000000
19.678236466000,-0.113000000000
19.685923169000,-0.559000000000
19.693609872000,-0.497000000000
19.701296575000,-0.343000000000
19.708983278000,-0.351000000000
19.716669981000,-0.296000000000
19.724356684000,-0.192000000000
19.732043387000,-0.190000000000
19.739730090000,-0.202000000000
19.747416793000,-0.173000000000
19.755103496000,-0.170000000000
19.762790199000,-0.178000000000
19.770476902000,-0.155000000000
19.778163605000,-0.148000000000
19.785850308000,-0.155000000000
19.793537011000,-0.150000000000
19.801223714000,-0.141000000000
19.808910417000,-0.133000000000
19.816597120000,-0.131000000000
19.824283823000,-0.131000000000
19.831970526000,-0.118000000000
19.839657229000,-0.101000000000
19.847343932000,-0.101000000000
19.855030635000,-0.111000000000
19.862717338000,-0.089000000000
19.870404041000,-0.069000000000
19.878090744000,-0.069000000000
19.885777447000,-0.059000000000
19.893464150000,-0.039000000000
19.901150853000,-0.039000000000
19.908837616000,-0.044000000000
19.916524737000,-0.037000000000
19.924211858000,-0.042000000000
19.931898979000,-0.059000000000
19.939586100000,-0.059000000000
19.947273221000,-0.069000000000
19.954960342000,-0.101000000000
19.962647463000,-0.126000000000
19.970334584000,-0.155000000000
19.978021705000,-0.197000000000
19.985708826000,-0.212000000000
19.993395947000,-0.215000000000
20.001083068000,-0.232000000000
20.008770189000,-0.237000000000
20.016457310000,-0.230000000000
20.024144431000,-0.232000000000
20.031831552000,-0.230000000000
20.039518673000,-0.225000000000
20.047205794000,-0.222000000000
20.054892915000,-0.210000000000
20.062580036000,-0.202000000000
20.070267157000,-0.215000000000
20.077954278000,-0.212000000000
20.085641399000,-0.197000000000
20.093328520000,-0.207000000000
20.101015641000,-0.215000000000
20.108702762000,-0.205000000000
20.116389883000,-0.197000000000
20.124077004000,-0.197000000000
20.131764125000,-0.205000000000
20.139451246000,-0.207000000000
20.147138367000,-0.202000000000
20.154825488000,-0.202000000000
20.162512609000,-0.215000000000
20.170199730000,-0.215000000000
20.177886851000,-0.200000000000
20.185573972000,-0.200000000000
20.193261093000,-0.215000000000
20.200948214000,-0.215000000000
20.208635335000,-0.205000000000
20.216322456000,-0.207000000000
20.224009577000,-0.212000000000
20.231696698000,-0.205000000000
20.239383819000,-0.202000000000
20.247070940000,-0.212000000000
20.254758061000,-0.212000000000
20.262445182000,-0.212000000000
20.270132303000,-0.220000000000
20.277819424000,-0.207000000000
20.285506545000,-0.188000000000
20.293193666000,-0.188000000000
20.300880787000,-0.188000000000
20.308567908000,-0.168000000000
20.316255029000,-0.165000000000
20.323942150000,-0.185000000000
20.331629271000,-0.190000000000
20.339316392000,-0.180000000000
20.347003513000,-0.183000000000
20.354690634000,-0.190000000000
20.362377755000,-0.192000000000
20.370064876000,-0.192000000000
20.377751997000,-0.188000000000
20.385439118000,-0.192000000000
20.393126239000,-0.207000000000
20.400813360000,-0.138000000000
20.408500481000,0.155000000000
20.416187602000,0.499000000000
20.423874723000,0.418000000000
20.431561844000,-0.121000000000
20.439248965000,-0.509000000000
20.446936086000,-0.455000000000
20.454623207000,-0.329000000000
20.462310328000,-0.306000000000
20.469997517000,-0.244000000000
20.477684220000,-0.185000000000
20.485370923000,-0.192000000000
20.493057626000,-0.190000000000
20.500744329000,-0.163000000000
20.508431032000,-0.160000000000
20.516117735000,-0.165000000000
20.523804438000,-0.153000000000
20.531491141000,-0.138000000000
20.539177844000,-0.141000000000
20.546864547000,-0.138000000000
20.554551250000,-0.126000000000
20.562237953000,-0.128000000000
20.569924656000,-0.131000000000
20.577611359000,-0.121000000000
20.585298062000,-0.108000000000
20.592984765000,-0.098000000000
20.600671468000,-0.089000000000
20.608358171000,-0.081000000000
20.616044874000,-0.076000000000
20.623731577000,-0.069000000000
20.631418280000,-0.056000000000
20.639104983000,-0.044000000000
20.646791686000,-0.034000000000
20.654478389000,-0.027000000000
20.662165092000,-0.027000000000
20.669851795000,-0.029000000000
20.677538498000,-0.022000000000
20.685225201000,-0.027000000000
20.692911904000,-0.051000000000
20.700598607000,-0.071000000000
20.708285310000,-0.081000000000
20.715972013000,-0.111000000000
20.723658716000,-0.148000000000
20.731345419000,-0.163000000000
20.739032122000,-0.173000000000
20.746718825000,-0.192000000000
20.754405528000,-0.205000000000
20.762092231000,-0.205000000000
20.769778934000,-0.192000000000
20.777465637000,-0.183000000000
20.785152340000,-0.188000000000
20.792839043000,-0.192000000000
20.800525746000,-0.183000000000
20.808212449000,-0.170000000000
20.815899152000,-0.168000000000
20.823585855000,-0.165000000000
20.831272558000,-0.163000000000
20.838959261000,-0.160000000000
20.846645964000,-0.148000000000
20.854332667000,-0.138000000000
20.862019370000,-0.155000000000
20.869706073000,-0.173000000000
20.877392776000,-0.163000000000
20.885079479000,-0.150000000000
20.892766182000,-0.150000000000
20.900452885000,-0.145000000000
20.908139588000,-0.143000000000
20.915826291000,-0.148000000000
20.923512994000,-0.148000000000
20.931199697000,-0.143000000000
20.938886400000,-0.141000000000
20.946573103000,-0.138000000000
20.954259806000,-0.128000000000
20.961946509000,-0.128000000000
20.969633212000,-0.141000000000
20.977319915000,-0.143000000000
20.985006618000,-0.131000000000
20.992693321000,-0.126000000000
21.000380024000,-0.126000000000
21.008066727000,-0.118000000000
21.015753430000,-0.121000000000
21.023440133000,-0.136000000000
21.031126896000,-0.141000000000
21.038813599000,-0.118000000000
21.046500302000,-0.098000000000
21.054187005000,-0.096000000000
21.061873708000,-0.086000000000
21.069560411000,-0.076000000000
21.077247114000,-0.079000000000
21.084933817000,-0.103000000000
21.092620520000,-0.118000000000
21.100307223000,-0.111000000000
21.107993926000,-0.101000000000
21.115680629000,-0.103000000000
21.123367332000,-0.101000000000
21.131054035000,-0.091000000000
21.138740738000,-0.101000000000
21.146427441000,-0.113000000000
21.154114144000,-0.059000000000
21.161800847000,0.185000000000
21.169487550000,0.534000000000
21.177174253000,0.536000000000
21.184860956000,0.044000000000
21.192547659000,-0.395000000000
21.200234362000,-0.390000000000
21.207921065000,-0.239000000000
21.215607768000,-0.207000000000
21.223294471000,-0.150000000000
21.230981174000,-0.071000000000
21.238667877000,-0.076000000000
21.246354580000,-0.096000000000
21.254041283000,-0.076000000000
21.261727986000,-0.061000000000
21.269414689000,-0.061000000000
21.277101392000,-0.059000000000
21.284788095000,-0.049000000000
21.292474798000,-0.042000000000
21.300161501000,-0.037000000000
21.307848204000,-0.037000000000
21.315534907000,-0.032000000000
21.323221610000,-0.019000000000
21.330908313000,-0.009000000000
21.338595016000,-0.002000000000
21.346281719000,0.002000000000
21.353968422000,0.007000000000
21.361655125000,0.014000000000
21.369341828000,0.019000000000
21.377028531000,0.027000000000
21.384715234000,0.029000000000
21.392401937000,0.039000000000
21.400088640000,0.051000000000
21.407775343000,0.064000000000
21.415462046000,0.071000000000
21.423148749000,0.069000000000
21.430835452000,0.066000000000
21.438522155000,0.064000000000
21.446208858000,0.049000000000
21.453895561000,0.027000000000
21.461582264000,0.007000000000
21.469268967000,-0.024000000000
21.476955670000,-0.059000000000
21.484642373000,-0.079000000000
21.492329076000,-0.086000000000
21.500015779000,-0.098000000000
21.507702482000,-0.121000000000
21.515389185000,-0.131000000000
21.523075888000,-0.123000000000
21.530762591000,-0.123000000000
21.538449294000,-0.121000000000
21.546135997000,-0.111000000000
21.553822700000,-0.101000000000
21.561509403000,-0.101000000000
21.569196106000,-0.106000000000
21.576882809000,-0.106000000000
21.584569512000,-0.096000000000
21.592256275000,-0.096000000000
21.599943257000,-0.103000000000
21.607630239000,-0.098000000000
21.615317221000,-0.091000000000
21.623004203000,-0.086000000000
21.630691185000,-0.086000000000
21.638378167000,-0.091000000000
21.646065149000,-0.086000000000
21.653752131000,-0.076000000000
21.661439113000,-0.081000000000
21.669126095000,-0.098000000000
21.676813077000,-0.098000000000
21.684500059000,-0.091000000000
21.692187041000,-0.084000000000
21.699874023000,-0.074000000000
21.707561005000,-0.079000000000
21.715247987000,-0.094000000000
21.722934969000,-0.094000000000
21.730621951000,-0.081000000000
21.738308933000,-0.081000000000
21.745995915000,-0.089000000000
21.753682897000,-0.086000000000
21.761369879000,-0.086000000000
21.769056861000,-0.089000000000
21.776743843000,-0.081000000000
21.784430825000,-0.069000000000
21.792117807000,-0.071000000000
21.799804789000,-0.066000000000
21.807491771000,-0.049000000000
21.815178753000,-0.034000000000
21.822865735000,-0.039000000000
21.830552717000,-0.059000000000
21.838239699000,-0.076000000000
21.845926681000,-0.069000000000
21.853613663000,-0.064000000000
21.861300645000,-0.074000000000
21.868987627000,-0.074000000000
21.876674609000,-0.059000000000
21.884361591000,-0.064000000000
21.892048573000,-0.076000000000
21.899735555000,-0.061000000000
21.907422537000,0.042000000000
21.915109519000,0.351000000000
21.922796501000,0.623000000000
21.930483483000,0.368000000000
21.938170465000,-0.215000000000
21.945857447000,-0.445000000000
21.953544429000,-0.304000000000
21.961231411000,-0.227000000000
21.968918393000,-0.210000000000
21.976605375000,-0.103000000000
21.984292357000,-0.039000000000
21.991979339000,-0.064000000000
21.999666321000,-0.061000000000
22.007353303000,-0.029000000000
22.015040285000,-0.024000000000
22.022727267000,-0.034000000000
22.030414249000,-0.032000000000
22.038101231000,-0.017000000000
22.045788213000,-0.009000000000
22.053475195000,-0.017000000000
22.061162177000,-0.022000000000
22.068849159000,-0.009000000000
22.076536141000,0.007000000000
22.084223123000,0.017000000000
22.091910105000,0.029000000000
22.099597087000,0.032000000000
22.107284069000,0.019000000000
22.114971051000,0.027000000000
22.122658033000,0.044000000000
22.130345015000,0.066000000000
22.138031997000,0.084000000000
22.145718979000,0.081000000000
22.153406002000,0.091000000000
22.161092775000,0.106000000000
22.168779548000,0.096000000000
22.176466321000,0.096000000000
22.184153094000,0.108000000000
22.191839867000,0.094000000000
22.199526640000,0.069000000000
22.207213413000,0.047000000000
22.214900186000,0.009000000000
22.222586959000,-0.032000000000
22.230273732000,-0.059000000000
22.237960505000,-0.081000000000
22.245647278000,-0.096000000000
22.253334051000,-0.111000000000
22.261020824000,-0.111000000000
22.268707597000,-0.106000000000
22.276394370000,-0.118000000000
22.284081143000,-0.133000000000
22.291767916000,-0.123000000000
22.299454689000,-0.108000000000
22.307141462000,-0.103000000000
22.314828235000,-0.091000000000
22.322515008000,-0.076000000000
22.330201781000,-0.081000000000
22.337888554000,-0.084000000000
22.345575327000,-0.071000000000
22.353262100000,-0.074000000000
22.360948873000,-0.079000000000
22.368635646000,-0.076000000000
22.376322419000,-0.071000000000
22.384009192000,-0.066000000000
22.391695965000,-0.084000000000
22.399382738000,-0.098000000000
22.407069511000,-0.094000000000
22.414756284000,-0.098000000000
22.422443057000,-0.096000000000
22.430129830000,-0.079000000000
22.437816603000,-0.074000000000
22.445503376000,-0.079000000000
22.453190149000,-0.079000000000
22.460876922000,-0.076000000000
22.468563695000,-0.084000000000
22.476250468000,-0.098000000000
22.483937241000,-0.108000000000
22.491624014000,-0.094000000000
22.499310787000,-0.074000000000
22.506997560000,-0.079000000000
22.514684333000,-0.081000000000
22.522371106000,-0.069000000000
22.530057879000,-0.054000000000
22.537744652000,-0.051000000000
22.545431425000,-0.056000000000
22.553118198000,-0.066000000000
22.560804971000,-0.069000000000
22.568491744000,-0.064000000000
22.576178517000,-0.069000000000
22.583865290000,-0.076000000000
22.591552063000,-0.076000000000
22.599238836000,-0.081000000000
22.606925609000,-0.084000000000
22.614612382000,-0.076000000000
22.622299155000,-0.064000000000
22.629985928000,0.069000000000
22.637672701000,0.432000000000
22.645359474000,0.658000000000
22.653046247000,0.272000000000
22.660733020000,-0.338000000000
22.668419793000,-0.482000000000
22.676106566000,-0.289000000000
22.683793339000,-0.237000000000
22.691480112000,-0.225000000000
22.699166885000,-0.108000000000
22.706853658000,-0.049000000000
22.714540468000,-0.066000000000
22.722227241000,-0.054000000000
22.729914014000,-0.027000000000
22.737600787000,-0.032000000000
22.745287560000,-0.034000000000
22.752974333000,-0.019000000000
22.760661106000,-0.012000000000
22.768347879000,-0.017000000000
22.776034652000,-0.017000000000
22.783721425000,-0.004000000000
22.791408198000,0.002000000000
22.799094971000,0.002000000000
22.806781744000,0.009000000000
22.814468517000,0.017000000000
22.822155290000,0.019000000000
22.829842063000,0.029000000000
22.837528836000,0.042000000000
22.845215609000,0.044000000000
22.852902382000,0.054000000000
22.860589155000,0.081000000000
22.868275928000,0.101000000000
22.875962701000,0.096000000000
22.883649474000,0.086000000000
22.891336247000,0.089000000000
22.899023020000,0.089000000000
22.906709793000,0.081000000000
22.914396566000,0.071000000000
22.922083339000,0.047000000000
22.929770112000,0.019000000000
22.937456885000,-0.007000000000
22.945143658000,-0.037000000000
22.952830431000,-0.074000000000
22.960517204000,-0.101000000000
22.968203977000,-0.121000000000
22.975890750000,-0.136000000000
22.983577523000,-0.145000000000
22.991264296000,-0.145000000000
22.998951069000,-0.138000000000
23.006637842000,-0.128000000000
23.014324615000,-0.136000000000
23.022011388000,-0.133000000000
23.029698161000,-0.113000000000
23.037384934000,-0.106000000000
23.045071707000,-0.103000000000
23.052758480000,-0.089000000000
23.060445253000,-0.084000000000
23.068132026000,-0.096000000000
23.075818799000,-0.094000000000
23.083505572000,-0.084000000000
23.091192345000,-0.089000000000
23.098879118000,-0.096000000000
23.106565891000,-0.089000000000
23.114252664000,-0.089000000000
23.121939437000,-0.094000000000
23.129626210000,-0.086000000000
23.137312983000,-0.089000000000
23.144999756000,-0.103000000000
23.152686529000,-0.101000000000
23.160373302000,-0.086000000000
23.168060075000,-0.086000000000
23.175746848000,-0.098000000000
23.183433621000,-0.103000000000
23.191120394000,-0.091000000000
23.198807167000,-0.086000000000
23.206493940000,-0.094000000000
23.214180713000,-0.108000000000
23.221867486000,-0.108000000000
23.229554259000,-0.094000000000
23.237241032000,-0.081000000000
23.244927805000,-0.069000000000
23.252614578000,-0.059000000000
23.260301351000,-0.056000000000
23.267988124000,-0.056000000000
23.275674934000,-0.071000000000
23.283361637000,-0.089000000000
23.291048340000,-0.079000000000
23.298735043000,-0.071000000000
23.306421746000,-0.079000000000
23.314108449000,-0.084000000000
23.321795152000,-0.074000000000
23.329481855000,-0.071000000000
23.337168558000,-0.089000000000
23.344855261000,-0.086000000000
23.352541964000,0.091000000000
23.360228667000,0.479000000000
23.367915370000,0.655000000000
23.375602073000,0.262000000000
23.383288776000,-0.301000000000
23.390975479000,-0.437000000000
23.398662182000,-0.262000000000
23.406348885000,-0.192000000000
23.414035588000,-0.173000000000
23.421722291000,-0.089000000000
23.429408994000,-0.061000000000
23.437095697000,-0.076000000000
23.444782400000,-0.054000000000
23.452469103000,-0.029000000000
23.460155806000,-0.042000000000
23.467842509000,-0.049000000000
23.475529212000,-0.044000000000
23.483215915000,-0.037000000000
23.490902618000,-0.029000000000
23.498589321000,-0.024000000000
23.506276024000,-0.022000000000
23.513962727000,-0.019000000000
23.521649430000,-0.017000000000
23.529336133000,-0.002000000000
23.537022836000,0.014000000000
23.544709539000,0.002000000000
23.552396242000,-0.002000000000
23.560082945000,0.024000000000
23.567769648000,0.044000000000
23.575456351000,0.047000000000
23.583143054000,0.054000000000
23.590829757000,0.061000000000
23.598516460000,0.069000000000
23.606203163000,0.069000000000
23.613889866000,0.069000000000
23.621576569000,0.071000000000
23.629263272000,0.071000000000
23.636949975000,0.064000000000
23.644636678000,0.044000000000
23.652323381000,0.019000000000
23.660010084000,-0.014000000000
23.667696787000,-0.049000000000
23.675383490000,-0.079000000000
23.683070193000,-0.101000000000
23.690756896000,-0.123000000000
23.698443599000,-0.133000000000
23.706130302000,-0.121000000000
23.713817005000,-0.111000000000
23.721503708000,-0.128000000000
23.729190411000,-0.138000000000
23.736877114000,-0.116000000000
23.744563817000,-0.106000000000
23.752250520000,-0.113000000000
23.759937223000,-0.101000000000
23.767623926000,-0.106000000000
23.775310629000,-0.121000000000
23.782997332000,-0.111000000000
23.790684035000,-0.098000000000
23.798370738000,-0.101000000000
23.806057441000,-0.098000000000
23.813744144000,-0.098000000000
23.821430847000,-0.101000000000
23.829117550000,-0.096000000000
23.836804313000,-0.089000000000
23.844491016000,-0.096000000000
23.852177719000,-0.111000000000
23.859864422000,-0.108000000000
23.867551125000,-0.106000000000
23.875237828000,-0.113000000000
23.882924531000,-0.108000000000
23.890611234000,-0.091000000000
23.898297937000,-0.091000000000
23.905984640000,-0.106000000000
23.913671343000,-0.108000000000
23.921358046000,-0.103000000000
23.929044749000,-0.101000000000
23.936731452000,-0.101000000000
23.944418155000,-0.101000000000
23.952104858000,-0.101000000000
23.959791561000,-0.098000000000
23.967478264000,-0.091000000000
23.975164967000,-0.086000000000
23.982851670000,-0.084000000000
23.990538373000,-0.079000000000
23.998225076000,-0.069000000000
24.005911779000,-0.064000000000
24.013598482000,-0.074000000000
24.021285185000,-0.081000000000
24.028971888000,-0.084000000000
24.036658591000,-0.086000000000
24.044345294000,-0.094000000000
24.052031997000,-0.096000000000
24.059718700000,-0.086000000000
24.067405403000,-0.079000000000
24.075092106000,-0.094000000000
24.082778809000,-0.108000000000
24.090465512000,-0.027000000000
24.098152215000,0.269000000000
24.105838918000,0.603000000000
24.113525621000,0.497000000000
24.121212324000,-0.044000000000
24.128899027000,-0.408000000000
24.136585730000,-0.351000000000
24.144272433000,-0.235000000000
24.151959136000,-0.205000000000
24.159645839000,-0.136000000000
24.167332542000,-0.091000000000
24.175019245000,-0.108000000000
24.182705948000,-0.103000000000
24.190392651000,-0.076000000000
24.198079354000,-0.066000000000
24.205766057000,-0.069000000000
24.213452760000,-0.079000000000
24.221139463000,-0.076000000000
24.228826166000,-0.069000000000
24.236512869000,-0.066000000000
24.244199572000,-0.061000000000
24.251886275000,-0.051000000000
24.259572978000,-0.042000000000
24.267259681000,-0.042000000000
24.274946384000,-0.044000000000
24.282633087000,-0.044000000000
24.290319790000,-0.042000000000
24.298006493000,-0.032000000000
24.305693196000,-0.019000000000
24.313379899000,-0.014000000000
24.321066602000,0.000000000000
24.328753305000,0.019000000000
24.336440008000,0.014000000000
24.344126711000,0.000000000000
24.351813414000,0.007000000000
24.359500117000,0.009000000000
24.367186820000,0.004000000000
24.374873523000,0.012000000000
24.382560226000,-0.002000000000
24.390246929000,-0.042000000000
24.397933692000,-0.066000000000
24.405620604000,-0.089000000000
24.413307516000,-0.126000000000
24.420994428000,-0.150000000000
24.428681340000,-0.165000000000
24.436368252000,-0.183000000000
24.444055164000,-0.200000000000
24.451742076000,-0.205000000000
24.459428988000,-0.205000000000
24.467115900000,-0.197000000000
24.474802812000,-0.195000000000
24.482489724000,-0.197000000000
24.490176636000,-0.192000000000
24.497863548000,-0.195000000000
24.505550460000,-0.200000000000
24.513237372000,-0.192000000000
24.520924284000,-0.188000000000
24.528611196000,-0.197000000000
24.536298108000,-0.202000000000
24.543985020000,-0.192000000000
24.551671932000,-0.188000000000
24.559358844000,-0.192000000000
24.567045756000,-0.195000000000
24.574732668000,-0.200000000000
24.582419580000,-0.205000000000
24.590106492000,-0.202000000000
24.597793404000,-0.200000000000
24.605480316000,-0.210000000000
24.613167228000,-0.215000000000
24.620854140000,-0.210000000000
24.628541052000,-0.207000000000
24.636227964000,-0.207000000000
24.643914876000,-0.205000000000
24.651601788000,-0.205000000000
24.659288700000,-0.202000000000
24.666975612000,-0.195000000000
24.674662524000,-0.200000000000
24.682349436000,-0.212000000000
24.690036348000,-0.210000000000
24.697723260000,-0.205000000000
24.705410172000,-0.210000000000
24.713097084000,-0.212000000000
24.720783996000,-0.207000000000
24.728470908000,-0.207000000000
24.736157820000,-0.210000000000
24.743844732000,-0.205000000000
24.751531644000,-0.200000000000
24.759218556000,-0.200000000000
24.766905468000,-0.188000000000
24.774592380000,-0.178000000000
24.782279292000,-0.180000000000
24.789966204000,-0.190000000000
24.797653116000,-0.195000000000
24.805340028000,-0.197000000000
24.813026940000,-0.200000000000
24.820713852000,-0.195000000000
24.828400764000,-0.195000000000
24.836087676000,-0.207000000000
24.843774588000,-0.207000000000
24.851461500000,-0.202000000000
24.859148412000,-0.215000000000
24.866835324000,-0.138000000000
24.874522236000,0.170000000000
24.882209148000,0.482000000000
24.889896060000,0.321000000000
24.897582972000,-0.225000000000
24.905269884000,-0.541000000000
24.912956796000,-0.455000000000
24.920643708000,-0.338000000000
24.928330620000,-0.311000000000
24.936017532000,-0.244000000000
24.943704444000,-0.197000000000
24.951391356000,-0.210000000000
24.959078332000,-0.210000000000
24.966765105000,-0.185000000000
24.974451878000,-0.180000000000
24.982138651000,-0.178000000000
24.989825424000,-0.170000000000
24.997512197000,-0.165000000000
25.005198970000,-0.163000000000
25.012885743000,-0.158000000000
25.020572516000,-0.155000000000
25.028259289000,-0.145000000000
25.035946062000,-0.141000000000
25.043632835000,-0.141000000000
25.051319608000,-0.138000000000
25.059006381000,-0.131000000000
25.066693154000,-0.118000000000
25.074379927000,-0.106000000000
25.082066700000,-0.103000000000
25.089753473000,-0.094000000000
25.097440246000,-0.079000000000
25.105127019000,-0.069000000000
25.112813792000,-0.064000000000
25.120500565000,-0.059000000000
25.128187338000,-0.054000000000
25.135874111000,-0.054000000000
25.143560884000,-0.066000000000
25.151247657000,-0.074000000000
25.158934430000,-0.076000000000
25.166621203000,-0.094000000000
25.174307976000,-0.118000000000
25.181994749000,-0.145000000000
25.189681522000,-0.178000000000
25.197368295000,-0.207000000000
25.205055068000,-0.230000000000
25.212741841000,-0.249000000000
25.220428614000,-0.254000000000
25.228115387000,-0.244000000000
25.235802160000,-0.242000000000
25.243488933000,-0.247000000000
25.251175706000,-0.244000000000
25.258862479000,-0.235000000000
25.266549252000,-0.227000000000
25.274236025000,-0.230000000000
25.281922798000,-0.232000000000
25.289609571000,-0.227000000000
25.297296344000,-0.225000000000
25.304983117000,-0.217000000000
25.312669890000,-0.205000000000
25.320356663000,-0.205000000000
25.328043436000,-0.212000000000
25.335730209000,-0.217000000000
25.343416982000,-0.220000000000
25.351103755000,-0.217000000000
25.358790528000,-0.212000000000
25.366477301000,-0.215000000000
25.374164074000,-0.220000000000
25.381850847000,-0.215000000000
25.389537620000,-0.212000000000
25.397224393000,-0.215000000000
25.404911166000,-0.212000000000
25.412597939000,-0.220000000000
25.420284712000,-0.225000000000
25.427971485000,-0.207000000000
25.435658258000,-0.197000000000
25.443345031000,-0.207000000000
25.451031804000,-0.207000000000
25.458718577000,-0.205000000000
25.466405350000,-0.212000000000
25.474092123000,-0.217000000000
25.481778896000,-0.207000000000
25.489465669000,-0.200000000000
25.497152442000,-0.207000000000
25.504839215000,-0.207000000000
25.512525988000,-0.188000000000
25.520212798000,-0.183000000000
25.527899571000,-0.180000000000
25.535586344000,-0.163000000000
25.543273117000,-0.173000000000
25.550959890000,-0.195000000000
25.558646663000,-0.188000000000
25.566333436000,-0.188000000000
25.574020209000,-0.202000000000
25.581706982000,-0.197000000000
25.589393755000,-0.185000000000
25.597080528000,-0.190000000000
25.604767301000,-0.197000000000
25.612454074000,-0.190000000000
25.620140847000,-0.094000000000
25.627827620000,0.202000000000
25.635514393000,0.502000000000
25.643201166000,0.311000000000
25.650887939000,-0.291000000000
25.658574712000,-0.596000000000
25.666261485000,-0.450000000000
25.673948258000,-0.336000000000
25.681635031000,-0.343000000000
25.689321804000,-0.247000000000
25.697008577000,-0.143000000000
25.704695350000,-0.153000000000
25.712382123000,-0.165000000000
25.720068896000,-0.133000000000
25.727755669000,-0.116000000000
25.735442442000,-0.131000000000
25.743129215000,-0.138000000000
25.750815988000,-0.128000000000
25.758502761000,-0.121000000000
25.766189534000,-0.113000000000
25.773876307000,-0.101000000000
25.781563080000,-0.091000000000
25.789249853000,-0.081000000000
25.796936626000,-0.079000000000
25.804623399000,-0.076000000000
25.812310172000,-0.066000000000
25.819996945000,-0.051000000000
25.827683718000,-0.044000000000
25.835370491000,-0.037000000000
25.843057264000,-0.022000000000
25.850744037000,-0.017000000000
25.858430810000,-0.007000000000
25.866117583000,0.017000000000
25.873804356000,0.037000000000
25.881491129000,0.027000000000
25.889177902000,0.007000000000
25.896864675000,0.007000000000
25.904551448000,0.012000000000
25.912238221000,0.000000000000
25.919924994000,-0.027000000000
25.927611767000,-0.059000000000
25.935298540000,-0.101000000000
25.942985313000,-0.133000000000
25.950672086000,-0.150000000000
25.958358859000,-0.165000000000
25.966045632000,-0.185000000000
25.973732405000,-0.202000000000
25.981419178000,-0.217000000000
25.989105951000,-0.212000000000
25.996792724000,-0.190000000000
26.004479497000,-0.180000000000
26.012166270000,-0.178000000000
26.019853043000,-0.170000000000
26.027539816000,-0.168000000000
26.035226589000,-0.168000000000
26.042913362000,-0.155000000000
26.050600135000,-0.136000000000
26.058286908000,-0.143000000000
26.065973681000,-0.153000000000
26.073660454000,-0.133000000000
26.081347264000,-0.126000000000
26.089034037000,-0.138000000000
26.096720810000,-0.141000000000
26.104407583000,-0.136000000000
26.112094356000,-0.136000000000
26.119781129000,-0.138000000000
26.127467902000,-0.145000000000
26.135154675000,-0.141000000000
26.142841448000,-0.131000000000
26.150528221000,-0.128000000000
26.158214994000,-0.133000000000
26.165901767000,-0.138000000000
26.173588540000,-0.133000000000
26.181275313000,-0.121000000000
26.188962086000,-0.123000000000
26.196648859000,-0.133000000000
26.204335632000,-0.131000000000
26.212022405000,-0.133000000000
26.219709178000,-0.131000000000
26.227395951000,-0.111000000000
26.235082724000,-0.106000000000
26.242769497000,-0.106000000000
26.250456270000,-0.094000000000
26.258143043000,-0.079000000000
26.265829816000,-0.079000000000
26.273516589000,-0.089000000000
26.281203362000,-0.101000000000
26.288890135000,-0.098000000000
26.296576908000,-0.094000000000
26.304263681000,-0.101000000000
26.311950454000,-0.106000000000
26.319637227000,-0.101000000000
26.327324000000,-0.094000000000
26.335010773000,-0.096000000000
26.342697546000,-0.103000000000
26.350384319000,-0.012000000000
26.358071092000,0.324000000000
26.365757865000,0.648000000000
26.373444638000,0.405000000000
26.381131411000,-0.249000000000
26.388818184000,-0.526000000000
26.396504957000,-0.346000000000
26.404191730000,-0.259000000000
26.411878503000,-0.264000000000
26.419565276000,-0.131000000000
26.427252049000,-0.039000000000
26.434938822000,-0.066000000000
26.442625595000,-0.064000000000
26.450312368000,-0.042000000000
26.457999141000,-0.051000000000
26.465685914000,-0.051000000000
26.473372687000,-0.039000000000
26.481059460000,-0.027000000000
26.488746233000,-0.004000000000
26.496433006000,-0.002000000000
26.504119779000,-0.019000000000
26.511806552000,-0.004000000000
26.519493325000,0.019000000000
26.527180098000,0.009000000000
26.534866871000,-0.002000000000
26.542553644000,0.004000000000
26.550240417000,0.027000000000
26.557927190000,0.051000000000
26.565613963000,0.064000000000
26.573300736000,0.064000000000
26.580987509000,0.071000000000
26.588674282000,0.084000000000
26.596361055000,0.098000000000
26.604047828000,0.113000000000
26.611734601000,0.121000000000
26.619421374000,0.121000000000
26.627108147000,0.098000000000
26.634794920000,0.081000000000
26.642481730000,0.076000000000
26.650168433000,0.051000000000
26.657855136000,0.009000000000
26.665541839000,-0.032000000000
26.673228542000,-0.066000000000
26.680915245000,-0.094000000000
26.688601948000,-0.116000000000
26.696288651000,-0.113000000000
26.703975354000,-0.101000000000
26.711662057000,-0.143000000000
26.719348760000,-0.175000000000
26.727035463000,-0.141000000000
26.734722166000,-0.113000000000
26.742408869000,-0.126000000000
26.750095572000,-0.118000000000
26.757782275000,-0.091000000000
26.765468978000,-0.086000000000
26.773155681000,-0.091000000000
26.780842384000,-0.094000000000
26.788529087000,-0.094000000000
26.796215790000,-0.094000000000
26.803902493000,-0.089000000000
26.811589196000,-0.076000000000
26.819275899000,-0.071000000000
26.826962602000,-0.079000000000
26.834649305000,-0.076000000000
26.842336008000,-0.076000000000
26.850022711000,-0.089000000000
26.857709414000,-0.089000000000
26.865396117000,-0.074000000000
26.873082820000,-0.076000000000
26.880769523000,-0.086000000000
26.888456226000,-0.091000000000
26.896142929000,-0.084000000000
26.903829632000,-0.066000000000
26.911516335000,-0.066000000000
26.919203038000,-0.094000000000
26.926889741000,-0.118000000000
26.934576444000,-0.103000000000
26.942263147000,-0.084000000000
26.949949850000,-0.076000000000
26.957636553000,-0.056000000000
26.965323256000,-0.034000000000
26.973009959000,-0.044000000000
26.980696662000,-0.056000000000
26.988383365000,-0.056000000000
26.996070068000,-0.064000000000
27.003756771000,-0.069000000000
27.011443474000,-0.069000000000
27.019130177000,-0.064000000000
27.026816880000,-0.051000000000
27.034503583000,-0.064000000000
27.042190286000,-0.089000000000
27.049876989000,-0.089000000000
27.057563692000,-0.069000000000
27.065250395000,0.113000000000
27.072937098000,0.536000000000
27.080623801000,0.705000000000
27.088310504000,0.190000000000
27.095997207000,-0.460000000000
27.103683910000,-0.522000000000
27.111370613000,-0.264000000000
27.119057316000,-0.200000000000
27.126744019000,-0.183000000000
27.134430722000,-0.079000000000
27.142117425000,-0.037000000000
27.149804128000,-0.051000000000
27.157490831000,-0.051000000000
27.165177534000,-0.044000000000
27.172864237000,-0.029000000000
27.180550940000,-0.014000000000
27.188237643000,-0.022000000000
27.195924346000,-0.024000000000
27.203611109000,-0.007000000000
27.211297534000,-0.007000000000
27.218983959000,-0.017000000000
27.226670384000,-0.007000000000
27.234356809000,0.009000000000
27.242043234000,0.012000000000
27.249729659000,0.007000000000
27.257416084000,0.024000000000
27.265102509000,0.042000000000
27.272788934000,0.032000000000
27.280475359000,0.039000000000
27.288161784000,0.074000000000
27.295848209000,0.086000000000
27.303534634000,0.091000000000
27.311221059000,0.101000000000
27.318907484000,0.106000000000
27.326593909000,0.113000000000
27.334280334000,0.101000000000
27.341966759000,0.089000000000
27.349653184000,0.084000000000
27.357339609000,0.042000000000
27.365026034000,-0.007000000000
27.372712459000,-0.044000000000
27.380398884000,-0.079000000000
27.388085309000,-0.101000000000
27.395771734000,-0.131000000000
27.403458159000,-0.160000000000
27.411144584000,-0.160000000000
27.418831009000,-0.165000000000
27.426517434000,-0.183000000000
27.434203859000,-0.175000000000
27.441890284000,-0.178000000000
27.449576709000,-0.183000000000
27.457263134000,-0.158000000000
27.464949559000,-0.141000000000
27.472635984000,-0.153000000000
27.480322409000,-0.148000000000
27.488008834000,-0.131000000000
27.495695259000,-0.121000000000
27.503381684000,-0.118000000000
27.511068109000,-0.123000000000
27.518754534000,-0.136000000000
27.526440959000,-0.131000000000
27.534127384000,-0.123000000000
27.541813809000,-0.131000000000
27.549500234000,-0.145000000000
27.557186659000,-0.148000000000
27.564873084000,-0.141000000000
27.572559509000,-0.145000000000
27.580245934000,-0.150000000000
27.587932359000,-0.136000000000
27.595618784000,-0.123000000000
27.603305209000,-0.145000000000
27.610991634000,-0.173000000000
27.618678059000,-0.168000000000
27.626364484000,-0.153000000000
27.634050909000,-0.150000000000
27.641737334000,-0.145000000000
27.649423759000,-0.123000000000
27.657110184000,-0.103000000000
27.664796609000,-0.096000000000
27.672483034000,-0.108000000000
27.680169459000,-0.123000000000
27.687855884000,-0.133000000000
27.695542309000,-0.136000000000
27.703228734000,-0.138000000000
27.710915159000,-0.131000000000
27.718601584000,-0.126000000000
27.726288009000,-0.123000000000
27.733974434000,-0.126000000000
27.741660859000,-0.148000000000
27.749347284000,-0.131000000000
27.757033709000,0.071000000000
27.764720144000,0.462000000000
27.772406917000,0.616000000000
27.780093690000,0.138000000000
27.787780463000,-0.499000000000
27.795467236000,-0.583000000000
27.803154009000,-0.331000000000
27.810840782000,-0.262000000000
27.818527555000,-0.247000000000
27.826214328000,-0.136000000000
27.833901101000,-0.101000000000
27.841587874000,-0.126000000000
27.849274647000,-0.103000000000
27.856961420000,-0.079000000000
27.864648193000,-0.094000000000
27.872334966000,-0.094000000000
27.880021739000,-0.079000000000
27.887708512000,-0.084000000000
27.895395285000,-0.081000000000
27.903082058000,-0.061000000000
27.910768831000,-0.054000000000
27.918455604000,-0.059000000000
27.926142377000,-0.047000000000
27.933829150000,-0.032000000000
27.941515923000,-0.032000000000
27.949202696000,-0.029000000000
27.956889469000,-0.019000000000
27.964576242000,-0.009000000000
27.972263015000,0.009000000000
27.979949788000,0.029000000000
27.987636561000,0.029000000000
27.995323334000,0.037000000000
28.003010107000,0.056000000000
28.010696880000,0.061000000000
28.018383653000,0.054000000000
28.026070426000,0.051000000000
28.033757199000,0.042000000000
28.041443972000,0.022000000000
28.049130745000,0.000000000000
28.056817518000,-0.029000000000
28.064504291000,-0.064000000000
28.072191064000,-0.096000000000
28.079877837000,-0.126000000000
28.087564610000,-0.158000000000
28.095251383000,-0.185000000000
28.102938156000,-0.197000000000
28.110624929000,-0.192000000000
28.118311702000,-0.183000000000
28.125998475000,-0.185000000000
28.133685248000,-0.183000000000
28.141372021000,-0.168000000000
28.149058794000,-0.160000000000
28.156745567000,-0.160000000000
28.164432340000,-0.150000000000
28.172119113000,-0.145000000000
28.179805886000,-0.148000000000
28.187492659000,-0.141000000000
28.195179432000,-0.136000000000
28.202866205000,-0.145000000000
28.210552978000,-0.145000000000
28.218239751000,-0.138000000000
28.225926524000,-0.141000000000
28.233613297000,-0.143000000000
28.241300070000,-0.143000000000
28.248986843000,-0.143000000000
28.256673616000,-0.143000000000
28.264360389000,-0.138000000000
28.272047162000,-0.141000000000
28.279733935000,-0.143000000000
28.287420708000,-0.143000000000
28.295107481000,-0.150000000000
28.302794254000,-0.153000000000
28.310481027000,-0.141000000000
28.318167800000,-0.126000000000
28.325854610000,-0.113000000000
28.333541522000,-0.101000000000
28.341228434000,-0.103000000000
28.348915346000,-0.123000000000
28.356602258000,-0.131000000000
28.364289170000,-0.126000000000
28.371976082000,-0.123000000000
28.379662994000,-0.126000000000
28.387349906000,-0.123000000000
28.395036818000,-0.116000000000
28.402723730000,-0.116000000000
28.410410642000,-0.126000000000
28.418097554000,-0.113000000000
28.425784466000,0.061000000000
28.433471378000,0.455000000000
28.441158290000,0.633000000000
28.448845202000,0.180000000000
28.456532114000,-0.440000000000
28.464219026000,-0.539000000000
28.471905938000,-0.309000000000
28.479592850000,-0.237000000000
28.487279762000,-0.217000000000
28.494966674000,-0.111000000000
28.502653586000,-0.074000000000
28.510340498000,-0.103000000000
28.518027410000,-0.094000000000
28.525714322000,-0.074000000000
28.533401234000,-0.074000000000
28.541088146000,-0.064000000000
28.548775058000,-0.054000000000
28.556461970000,-0.061000000000
28.564148882000,-0.056000000000
28.571835794000,-0.042000000000
28.579522706000,-0.037000000000
28.587209618000,-0.032000000000
28.594896530000,-0.019000000000
28.602583442000,-0.012000000000
28.610270354000,-0.009000000000
28.617957266000,0.000000000000
28.625644178000,0.014000000000
28.633331090000,0.019000000000
28.641018002000,0.022000000000
28.648704914000,0.037000000000
28.656391826000,0.054000000000
28.664078738000,0.071000000000
28.671765650000,0.079000000000
28.679452562000,0.079000000000
28.687139474000,0.074000000000
28.694826386000,0.076000000000
28.702513298000,0.071000000000
28.710200210000,0.056000000000
28.717887122000,0.032000000000
28.725574034000,0.000000000000
28.733260946000,-0.037000000000
28.740947858000,-0.076000000000
28.748634770000,-0.111000000000
28.756321682000,-0.141000000000
28.764008594000,-0.155000000000
28.771695506000,-0.160000000000
28.779382418000,-0.160000000000
28.787069330000,-0.153000000000
28.794756242000,-0.150000000000
28.802443154000,-0.155000000000
28.810130066000,-0.148000000000
28.817816978000,-0.133000000000
28.825503890000,-0.126000000000
28.833190802000,-0.128000000000
28.840877714000,-0.121000000000
28.848564626000,-0.108000000000
28.856251538000,-0.101000000000
28.863938450000,-0.111000000000
28.871625362000,-0.123000000000
28.879312274000,-0.121000000000
28.886999246000,-0.113000000000
28.894685949000,-0.113000000000
28.902372652000,-0.111000000000
28.910059355000,-0.113000000000
28.917746058000,-0.118000000000
28.925432761000,-0.121000000000
28.933119464000,-0.121000000000
28.940806167000,-0.131000000000
28.948492870000,-0.133000000000
28.956179573000,-0.118000000000
28.963866276000,-0.096000000000
28.971552979000,-0.089000000000
28.979239682000,-0.086000000000
28.986926385000,-0.079000000000
28.994613088000,-0.084000000000
29.002299791000,-0.094000000000
29.009986494000,-0.096000000000
29.017673197000,-0.098000000000
29.025359900000,-0.103000000000
29.033046603000,-0.101000000000
29.040733306000,-0.101000000000
29.048420009000,-0.098000000000
29.056106712000,-0.103000000000
29.063793415000,-0.101000000000
29.071480118000,0.019000000000
29.079166821000,0.373000000000
29.086853524000,0.667000000000
29.094540227000,0.385000000000
29.102226930000,-0.267000000000
29.109913633000,-0.531000000000
29.117600336000,-0.336000000000
29.125287039000,-0.217000000000
29.132973742000,-0.222000000000
29.140660445000,-0.131000000000
29.148347148000,-0.056000000000
29.156033851000,-0.076000000000
29.163720554000,-0.076000000000
29.171407257000,-0.047000000000
29.179093960000,-0.044000000000
29.186780663000,-0.051000000000
29.194467366000,-0.044000000000
29.202154069000,-0.037000000000
29.209840772000,-0.032000000000
29.217527475000,-0.024000000000
29.225214178000,-0.017000000000
29.232900881000,-0.009000000000
29.240587584000,-0.004000000000
29.248274287000,-0.002000000000
29.255960990000,0.000000000000
29.263647693000,0.012000000000
