time,LSB
0.000000000000,1.866000000000
0.007687609000,1.031000000000
0.015375218000,-0.285000000000
0.023062827000,-0.546000000000
0.030750436000,-0.118000000000
0.038438045000,-0.135000000000
0.046125654000,-0.270000000000
0.053813263000,-0.167000000000
0.061500872000,-0.118000000000
0.069188481000,-0.155000000000
0.076876090000,-0.125000000000
0.084563699000,-0.093000000000
0.092251308000,-0.091000000000
0.099938917000,-0.071000000000
0.107626526000,-0.039000000000
0.115314135000,-0.019000000000
0.123001744000,-0.004000000000
0.130689353000,0.007000000000
0.138376962000,0.024000000000
0.146064571000,0.054000000000
0.153752180000,0.093000000000
0.161439789000,0.120000000000
0.169127398000,0.140000000000
0.176815007000,0.169000000000
0.184502616000,0.206000000000
0.192190225000,0.224000000000
0.199877834000,0.216000000000
0.207565443000,0.206000000000
0.215253052000,0.204000000000
0.222940661000,0.199000000000
0.230628270000,0.169000000000
0.238315879000,0.105000000000
0.246003488000,0.029000000000
0.253691097000,-0.041000000000
0.261378706000,-0.110000000000
0.269066315000,-0.167000000000
0.276753924000,-0.201000000000
0.284441533000,-0.219000000000
0.292129142000,-0.219000000000
0.299816751000,-0.214000000000
0.307504360000,-0.209000000000
0.315191969000,-0.196000000000
0.322879578000,-0.179000000000
0.330567187000,-0.177000000000
0.338254796000,-0.167000000000
0.345942405000,-0.145000000000
0.353630014000,-0.137000000000
0.361317623000,-0.142000000000
0.369005232000,-0.140000000000
0.376692841000,-0.135000000000
0.384380450000,-0.130000000000
0.392068059000,-0.113000000000
0.399755668000,-0.110000000000
0.407443277000,-0.118000000000
0.415130886000,-0.103000000000
0.422818495000,-0.105000000000
0.430506149000,-0.125000000000
0.438193758000,-0.118000000000
0.445881367000,-0.105000000000
0.453568976000,-0.113000000000
0.461256585000,-0.115000000000
0.468944194000,-0.103000000000
0.476631803000,-0.098000000000
0.484319412000,-0.110000000000
0.492007021000,-0.120000000000
0.499694630000,-0.098000000000
0.507382239000,-0.076000000000
0.515069848000,-0.083000000000
0.522757457000,-0.081000000000
0.530445066000,-0.068000000000
0.538132675000,-0.066000000000
0.545820284000,-0.081000000000
0.553507893000,-0.098000000000
0.561195502000,-0.098000000000
0.568883111000,-0.088000000000
0.576570720000,-0.081000000000
0.584258329000,-0.076000000000
0.591945938000,-0.076000000000
0.599633547000,-0.091000000000
0.607321156000,-0.115000000000
0.615008765000,-0.160000000000
0.622696374000,-0.251000000000
0.630383983000,-0.164000000000
0.638071592000,0.438000000000
0.645759201000,1.334000000000
0.653446810000,1.878000000000
0.661134419000,1.381000000000
0.668822028000,0.034000000000
0.676509637000,-0.610000000000
0.684197246000,-0.236000000000
0.691884855000,-0.098000000000
0.699572464000,-0.251000000000
0.707260073000,-0.192000000000
0.714947682000,-0.132000000000
0.722635291000,-0.164000000000
0.730322900000,-0.125000000000
0.738010509000,-0.078000000000
0.745698118000,-0.096000000000
0.753385727000,-0.083000000000
0.761073336000,-0.036000000000
0.768760945000,-0.019000000000
0.776448554000,-0.014000000000
0.784136163000,0.012000000000
0.791823772000,0.044000000000
0.799511381000,0.064000000000
0.807198990000,0.098000000000
0.814886599000,0.130000000000
0.822574208000,0.150000000000
0.830261817000,0.184000000000
0.837949426000,0.219000000000
0.845637035000,0.224000000000
0.853324644000,0.233000000000
0.861012253000,0.233000000000
0.868699862000,0.214000000000
0.876387471000,0.201000000000
0.884075080000,0.184000000000
0.891762689000,0.115000000000
0.899450298000,0.024000000000
0.907137907000,-0.044000000000
0.914825516000,-0.113000000000
0.922513125000,-0.179000000000
0.930200734000,-0.211000000000
0.937888343000,-0.228000000000
0.945575952000,-0.236000000000
0.953263561000,-0.228000000000
0.960951170000,-0.233000000000
0.968638779000,-0.228000000000
0.976326388000,-0.204000000000
0.984013997000,-0.201000000000
0.991701651000,-0.189000000000
0.999389260000,-0.164000000000
1.007076869000,-0.169000000000
1.014764478000,-0.172000000000
1.022452087000,-0.152000000000
1.030139696000,-0.150000000000
1.037827305000,-0.155000000000
1.045514914000,-0.142000000000
1.053202523000,-0.132000000000
1.060890132000,-0.137000000000
1.068577741000,-0.140000000000
1.076265350000,-0.140000000000
1.083952959000,-0.140000000000
1.091640568000,-0.140000000000
1.099328177000,-0.132000000000
1.107015786000,-0.132000000000
1.114703395000,-0.140000000000
1.122391004000,-0.147000000000
1.130078613000,-0.155000000000
1.137766222000,-0.157000000000
1.145453831000,-0.145000000000
1.153141440000,-0.125000000000
1.160829049000,-0.120000000000
1.168516658000,-0.128000000000
1.176204267000,-0.118000000000
1.183891876000,-0.105000000000
1.191579485000,-0.118000000000
1.199267094000,-0.137000000000
1.206954703000,-0.140000000000
1.214642312000,-0.132000000000
1.222329921000,-0.128000000000
1.230017530000,-0.120000000000
1.237705139000,-0.113000000000
1.245392748000,-0.123000000000
1.253080357000,-0.152000000000
1.260767966000,-0.209000000000
1.268455575000,-0.283000000000
1.276143184000,-0.137000000000
1.283830793000,0.499000000000
1.291518402000,1.353000000000
1.299206011000,1.794000000000
1.306893620000,1.196000000000
1.314581229000,-0.130000000000
1.322268838000,-0.657000000000
1.329956447000,-0.243000000000
1.337644056000,-0.135000000000
1.345331665000,-0.297000000000
1.353019274000,-0.221000000000
1.360706883000,-0.152000000000
1.368394492000,-0.194000000000
1.376082101000,-0.174000000000
1.383769710000,-0.125000000000
1.391457319000,-0.120000000000
1.399144928000,-0.113000000000
1.406832537000,-0.091000000000
1.414520146000,-0.071000000000
1.422207755000,-0.054000000000
1.429895364000,-0.034000000000
1.437582973000,-0.012000000000
1.445270582000,0.014000000000
1.452958191000,0.032000000000
1.460645800000,0.049000000000
1.468333409000,0.078000000000
1.476021018000,0.113000000000
1.483708627000,0.132000000000
1.491396236000,0.142000000000
1.499083845000,0.150000000000
1.506771454000,0.145000000000
1.514459063000,0.130000000000
1.522146672000,0.113000000000
1.529834281000,0.088000000000
1.537521890000,0.049000000000
1.545209499000,-0.014000000000
1.552897153000,-0.086000000000
1.560584762000,-0.145000000000
1.568272371000,-0.189000000000
1.575959980000,-0.224000000000
1.583647589000,-0.238000000000
1.591335198000,-0.238000000000
1.599022807000,-0.233000000000
1.606710416000,-0.228000000000
1.614398025000,-0.219000000000
1.622085634000,-0.209000000000
1.629773243000,-0.201000000000
1.637460852000,-0.192000000000
1.645148461000,-0.184000000000
1.652836070000,-0.177000000000
1.660523679000,-0.164000000000
1.668211288000,-0.160000000000
1.675898897000,-0.155000000000
1.683586506000,-0.152000000000
1.691274115000,-0.150000000000
1.698961724000,-0.142000000000
1.706649333000,-0.140000000000
1.714336942000,-0.140000000000
1.722024551000,-0.140000000000
1.729712160000,-0.137000000000
1.737399769000,-0.132000000000
1.745087378000,-0.135000000000
1.752774987000,-0.142000000000
1.760462596000,-0.142000000000
1.768150205000,-0.132000000000
1.775837814000,-0.132000000000
1.783525423000,-0.137000000000
1.791213032000,-0.147000000000
1.798900641000,-0.147000000000
1.806588250000,-0.140000000000
1.814275859000,-0.128000000000
1.821963468000,-0.120000000000
1.829651077000,-0.115000000000
1.837338686000,-0.105000000000
1.845026295000,-0.091000000000
1.852713904000,-0.091000000000
1.860401513000,-0.110000000000
1.868089122000,-0.128000000000
1.875776731000,-0.125000000000
1.883464340000,-0.115000000000
1.891151949000,-0.113000000000
1.898839558000,-0.113000000000
1.906527167000,-0.108000000000
1.914214776000,-0.113000000000
1.921902385000,-0.145000000000
1.929589994000,-0.226000000000
1.937277603000,-0.270000000000
1.944965212000,0.029000000000
1.952652821000,0.795000000000
1.960340430000,1.619000000000
1.968028039000,1.772000000000
1.975715648000,0.755000000000
1.983403257000,-0.462000000000
1.991090866000,-0.509000000000
1.998778475000,-0.093000000000
2.006466084000,-0.189000000000
2.014153693000,-0.295000000000
2.021841302000,-0.177000000000
2.029528911000,-0.157000000000
2.037216520000,-0.184000000000
2.044904129000,-0.142000000000
2.052591738000,-0.120000000000
2.060279347000,-0.120000000000
2.067966956000,-0.093000000000
2.075654565000,-0.066000000000
2.083342174000,-0.056000000000
2.091029783000,-0.036000000000
2.098717392000,-0.012000000000
2.106405001000,0.007000000000
2.114092655000,0.029000000000
2.121780264000,0.054000000000
2.129467873000,0.083000000000
2.137155482000,0.110000000000
2.144843091000,0.135000000000
2.152530700000,0.157000000000
2.160218309000,0.172000000000
2.167905918000,0.172000000000
2.175593527000,0.167000000000
2.183281136000,0.157000000000
2.190968745000,0.137000000000
2.198656354000,0.105000000000
2.206343963000,0.054000000000
2.214031572000,-0.022000000000
2.221719181000,-0.098000000000
2.229406790000,-0.157000000000
2.237094399000,-0.199000000000
2.244782008000,-0.224000000000
2.252469617000,-0.238000000000
2.260157226000,-0.243000000000
2.267844835000,-0.236000000000
2.275532444000,-0.226000000000
2.283220053000,-0.219000000000
2.290907662000,-0.204000000000
2.298595271000,-0.189000000000
2.306282880000,-0.179000000000
2.313970489000,-0.172000000000
2.321658098000,-0.164000000000
2.329345707000,-0.160000000000
2.337033316000,-0.152000000000
2.344720925000,-0.152000000000
2.352408534000,-0.147000000000
2.360096143000,-0.140000000000
2.367783752000,-0.137000000000
2.375471361000,-0.142000000000
2.383158970000,-0.140000000000
2.390846579000,-0.132000000000
2.398534188000,-0.132000000000
2.406221797000,-0.132000000000
2.413909406000,-0.128000000000
2.421597015000,-0.125000000000
2.429284624000,-0.125000000000
2.436972233000,-0.123000000000
2.444659842000,-0.118000000000
2.452347451000,-0.120000000000
2.460035060000,-0.130000000000
2.467722669000,-0.135000000000
2.475410278000,-0.128000000000
2.483097887000,-0.113000000000
2.490785496000,-0.100000000000
2.498473105000,-0.098000000000
2.506160714000,-0.098000000000
2.513848323000,-0.083000000000
2.521535932000,-0.071000000000
2.529223541000,-0.091000000000
2.536911150000,-0.113000000000
2.544598759000,-0.110000000000
2.552286368000,-0.100000000000
2.559973977000,-0.096000000000
2.567661586000,-0.093000000000
2.575349195000,-0.088000000000
2.583036804000,-0.088000000000
2.590724413000,-0.105000000000
2.598412022000,-0.169000000000
2.606099631000,-0.260000000000
2.613787240000,-0.145000000000
2.621474849000,0.452000000000
2.629162458000,1.331000000000
2.636850067000,1.863000000000
2.644537676000,1.307000000000
2.652225285000,-0.049000000000
2.659912894000,-0.612000000000
2.667600503000,-0.211000000000
2.675288157000,-0.098000000000
2.682975696000,-0.270000000000
2.690663235000,-0.211000000000
2.698350774000,-0.137000000000
2.706038313000,-0.174000000000
2.713725852000,-0.152000000000
2.721413391000,-0.105000000000
2.729100930000,-0.105000000000
2.736788469000,-0.096000000000
2.744476008000,-0.064000000000
2.752163547000,-0.046000000000
2.759851086000,-0.032000000000
2.767538625000,-0.009000000000
2.775226164000,0.014000000000
2.782913703000,0.032000000000
2.790601242000,0.056000000000
2.798288781000,0.088000000000
2.805976320000,0.118000000000
2.813663859000,0.145000000000
2.821351398000,0.169000000000
2.829038937000,0.192000000000
2.836726476000,0.199000000000
2.844414015000,0.192000000000
2.852101554000,0.184000000000
2.859789093000,0.169000000000
2.867476632000,0.147000000000
2.875164171000,0.098000000000
2.882851710000,0.027000000000
2.890539249000,-0.041000000000
2.898226788000,-0.108000000000
2.905914327000,-0.167000000000
2.913601866000,-0.204000000000
2.921289405000,-0.221000000000
2.928976944000,-0.231000000000
2.936664483000,-0.228000000000
2.944352022000,-0.214000000000
2.952039561000,-0.204000000000
2.959727100000,-0.199000000000
2.967414639000,-0.182000000000
2.975102178000,-0.162000000000
2.982789717000,-0.160000000000
2.990477256000,-0.162000000000
2.998164795000,-0.150000000000
3.005852334000,-0.142000000000
3.013539873000,-0.135000000000
3.021227412000,-0.135000000000
3.028914951000,-0.137000000000
3.036602490000,-0.135000000000
3.044290029000,-0.125000000000
3.051977568000,-0.118000000000
3.059665107000,-0.120000000000
3.067352646000,-0.118000000000
3.075040185000,-0.118000000000
3.082727724000,-0.120000000000
3.090415263000,-0.110000000000
3.098102802000,-0.105000000000
3.105790341000,-0.118000000000
3.113477880000,-0.115000000000
3.121165419000,-0.103000000000
3.128852958000,-0.110000000000
3.136540497000,-0.118000000000
3.144228036000,-0.120000000000
3.151915575000,-0.118000000000
3.159603114000,-0.096000000000
3.167290653000,-0.076000000000
3.174978192000,-0.076000000000
3.182665731000,-0.078000000000
3.190353270000,-0.071000000000
3.198040809000,-0.071000000000
3.205728348000,-0.091000000000
3.213415887000,-0.108000000000
3.221103426000,-0.103000000000
3.228790965000,-0.083000000000
3.236478572000,-0.078000000000
3.244166111000,-0.086000000000
3.251853650000,-0.088000000000
3.259541189000,-0.100000000000
3.267228728000,-0.164000000000
3.274916267000,-0.251000000000
3.282603806000,-0.128000000000
3.290291345000,0.480000000000
3.297978884000,1.381000000000
3.305666423000,1.898000000000
3.313353962000,1.277000000000
3.321041501000,-0.098000000000
3.328729040000,-0.595000000000
3.336416579000,-0.187000000000
3.344104118000,-0.118000000000
3.351791657000,-0.273000000000
3.359479196000,-0.184000000000
3.367166735000,-0.123000000000
3.374854274000,-0.167000000000
3.382541813000,-0.137000000000
3.390229352000,-0.088000000000
3.397916891000,-0.088000000000
3.405604430000,-0.086000000000
3.413291969000,-0.059000000000
3.420979508000,-0.032000000000
3.428667047000,-0.014000000000
3.436354586000,0.009000000000
3.444042125000,0.041000000000
3.451729664000,0.061000000000
3.459417203000,0.078000000000
3.467104742000,0.108000000000
3.474792281000,0.145000000000
3.482479820000,0.184000000000
3.490167359000,0.204000000000
3.497854898000,0.201000000000
3.505542437000,0.214000000000
3.513229976000,0.219000000000
3.520917515000,0.204000000000
3.528605054000,0.196000000000
3.536292593000,0.177000000000
3.543980132000,0.113000000000
3.551667671000,0.039000000000
3.559355210000,-0.027000000000
3.567042749000,-0.115000000000
3.574730288000,-0.189000000000
3.582417827000,-0.219000000000
3.590105366000,-0.219000000000
3.597792905000,-0.221000000000
3.605480444000,-0.238000000000
3.613167983000,-0.233000000000
3.620855522000,-0.201000000000
3.628543061000,-0.187000000000
3.636230600000,-0.196000000000
3.643918139000,-0.184000000000
3.651605678000,-0.150000000000
3.659293217000,-0.142000000000
3.666980756000,-0.162000000000
3.674668295000,-0.160000000000
3.682355834000,-0.145000000000
3.690043373000,-0.132000000000
3.697730912000,-0.120000000000
3.705418451000,-0.125000000000
3.713105990000,-0.130000000000
3.720793529000,-0.120000000000
3.728481068000,-0.118000000000
3.736168607000,-0.123000000000
3.743856146000,-0.128000000000
3.751543685000,-0.113000000000
3.759231224000,-0.108000000000
3.766918763000,-0.123000000000
3.774606302000,-0.125000000000
3.782293841000,-0.123000000000
3.789981380000,-0.128000000000
3.797668987000,-0.115000000000
3.805356526000,-0.096000000000
3.813044065000,-0.083000000000
3.820731604000,-0.088000000000
3.828419143000,-0.100000000000
3.836106682000,-0.091000000000
3.843794221000,-0.073000000000
3.851481760000,-0.091000000000
3.859169299000,-0.108000000000
3.866856838000,-0.096000000000
3.874544377000,-0.098000000000
3.882231916000,-0.098000000000
3.889919455000,-0.088000000000
3.897606994000,-0.093000000000
3.905294533000,-0.103000000000
3.912982072000,-0.123000000000
3.920669611000,-0.189000000000
3.928357150000,-0.260000000000
3.936044689000,-0.061000000000
3.943732228000,0.654000000000
3.951419767000,1.548000000000
3.959107306000,1.890000000000
3.966794845000,1.075000000000
3.974482384000,-0.256000000000
3.982169923000,-0.573000000000
3.989857462000,-0.167000000000
3.997545001000,-0.167000000000
4.005232540000,-0.275000000000
4.012920079000,-0.164000000000
4.020607618000,-0.135000000000
4.028295157000,-0.169000000000
4.035982696000,-0.128000000000
4.043670235000,-0.098000000000
4.051357774000,-0.103000000000
4.059045313000,-0.083000000000
4.066732852000,-0.049000000000
4.074420391000,-0.029000000000
4.082107930000,-0.017000000000
4.089795469000,0.000000000000
4.097483008000,0.027000000000
4.105170547000,0.059000000000
4.112858086000,0.083000000000
4.120545625000,0.110000000000
4.128233164000,0.142000000000
4.135920703000,0.177000000000
4.143608242000,0.199000000000
4.151295781000,0.206000000000
4.158983320000,0.206000000000
4.166670859000,0.201000000000
4.174358398000,0.184000000000
4.182045937000,0.157000000000
4.189733476000,0.120000000000
4.197421015000,0.061000000000
4.205108554000,-0.014000000000
4.212796093000,-0.096000000000
4.220483632000,-0.167000000000
4.228171171000,-0.209000000000
4.235858710000,-0.233000000000
4.243546249000,-0.246000000000
4.251233788000,-0.253000000000
4.258921327000,-0.248000000000
4.266608866000,-0.241000000000
4.274296405000,-0.231000000000
4.281983944000,-0.221000000000
4.289671483000,-0.209000000000
4.297359022000,-0.199000000000
4.305046561000,-0.192000000000
4.312734100000,-0.182000000000
4.320421639000,-0.172000000000
4.328109178000,-0.164000000000
4.335796717000,-0.162000000000
4.343484256000,-0.155000000000
4.351171795000,-0.145000000000
4.358859402000,-0.140000000000
4.366546941000,-0.140000000000
4.374234480000,-0.140000000000
4.381922019000,-0.137000000000
4.389609558000,-0.140000000000
4.397297097000,-0.137000000000
4.404984636000,-0.132000000000
4.412672175000,-0.135000000000
4.420359714000,-0.137000000000
4.428047253000,-0.135000000000
4.435734792000,-0.140000000000
4.443422331000,-0.155000000000
4.451109870000,-0.152000000000
4.458797409000,-0.135000000000
4.466484948000,-0.125000000000
4.474172487000,-0.123000000000
4.481860026000,-0.115000000000
4.489547565000,-0.098000000000
4.497235104000,-0.096000000000
4.504922643000,-0.113000000000
4.512610182000,-0.130000000000
4.520297721000,-0.128000000000
4.527985260000,-0.118000000000
4.535672799000,-0.115000000000
4.543360338000,-0.113000000000
4.551047877000,-0.103000000000
4.558735416000,-0.115000000000
4.566422955000,-0.147000000000
4.574110494000,-0.216000000000
4.581798033000,-0.273000000000
4.589485572000,-0.027000000000
4.597173111000,0.708000000000
4.604860650000,1.555000000000
4.612548189000,1.821000000000
4.620235728000,0.945000000000
4.627923267000,-0.364000000000
4.635610806000,-0.590000000000
4.643298345000,-0.142000000000
4.650985884000,-0.169000000000
4.658673423000,-0.307000000000
4.666360962000,-0.194000000000
4.674048501000,-0.155000000000
4.681736040000,-0.196000000000
4.689423579000,-0.164000000000
4.697111118000,-0.128000000000
4.704798657000,-0.125000000000
4.712486196000,-0.103000000000
4.720173735000,-0.073000000000
4.727861274000,-0.066000000000
4.735548813000,-0.054000000000
4.743236352000,-0.027000000000
4.750923891000,0.002000000000
4.758611430000,0.019000000000
4.766298969000,0.039000000000
4.773986508000,0.066000000000
4.781674047000,0.100000000000
4.789361586000,0.125000000000
4.797049125000,0.142000000000
4.804736664000,0.160000000000
4.812424203000,0.162000000000
4.820111742000,0.147000000000
4.827799281000,0.140000000000
4.835486820000,0.128000000000
4.843174359000,0.093000000000
4.850861898000,0.041000000000
4.858549437000,-0.022000000000
4.866236976000,-0.096000000000
4.873924515000,-0.160000000000
4.881612054000,-0.204000000000
4.889299593000,-0.228000000000
4.896987132000,-0.238000000000
4.904674671000,-0.246000000000
4.912362210000,-0.243000000000
4.920049817000,-0.228000000000
4.927737356000,-0.214000000000
4.935424895000,-0.209000000000
4.943112434000,-0.199000000000
4.950799973000,-0.187000000000
4.958487512000,-0.179000000000
4.966175051000,-0.174000000000
4.973862590000,-0.167000000000
4.981550129000,-0.160000000000
4.989237668000,-0.155000000000
4.996925207000,-0.152000000000
5.004612746000,-0.147000000000
5.012300285000,-0.142000000000
5.019987824000,-0.140000000000
5.027675363000,-0.142000000000
5.035362902000,-0.142000000000
5.043050441000,-0.140000000000
5.050737980000,-0.137000000000
5.058425519000,-0.135000000000
5.066113058000,-0.132000000000
5.073800597000,-0.130000000000
5.081488136000,-0.137000000000
5.089175675000,-0.147000000000
5.096863214000,-0.147000000000
5.104550753000,-0.132000000000
5.112238292000,-0.120000000000
5.119925831000,-0.115000000000
5.127613370000,-0.113000000000
5.135300909000,-0.100000000000
5.142988448000,-0.088000000000
5.150675987000,-0.093000000000
5.158363526000,-0.115000000000
5.166051065000,-0.125000000000
5.173738604000,-0.120000000000
5.181426143000,-0.115000000000
5.189113682000,-0.115000000000
5.196801221000,-0.108000000000
5.204488760000,-0.100000000000
5.212176299000,-0.113000000000
5.219863838000,-0.157000000000
5.227551377000,-0.243000000000
5.235238916000,-0.258000000000
5.242926455000,0.110000000000
5.250613994000,0.920000000000
5.258301533000,1.703000000000
5.265989072000,1.710000000000
5.273676611000,0.580000000000
5.281364150000,-0.531000000000
5.289051689000,-0.452000000000
5.296739228000,-0.088000000000
5.304426767000,-0.219000000000
5.312114306000,-0.288000000000
5.319801845000,-0.169000000000
5.327489384000,-0.167000000000
5.335176923000,-0.192000000000
5.342864462000,-0.142000000000
5.350552001000,-0.115000000000
5.358239540000,-0.115000000000
5.365927079000,-0.091000000000
5.373614618000,-0.066000000000
5.381302157000,-0.054000000000
5.388989696000,-0.036000000000
5.396677235000,-0.009000000000
5.404364774000,0.009000000000
5.412052313000,0.032000000000
5.419739852000,0.061000000000
5.427427391000,0.093000000000
5.435114930000,0.125000000000
5.442802469000,0.152000000000
5.450490008000,0.174000000000
5.458177547000,0.187000000000
5.465865086000,0.189000000000
5.473552625000,0.179000000000
5.481240232000,0.164000000000
5.488928190000,0.142000000000
5.496616148000,0.108000000000
5.504304106000,0.049000000000
5.511992064000,-0.034000000000
5.519680022000,-0.110000000000
5.527367980000,-0.167000000000
5.535055938000,-0.211000000000
5.542743896000,-0.238000000000
5.550431854000,-0.246000000000
5.558119812000,-0.243000000000
5.565807770000,-0.241000000000
5.573495728000,-0.231000000000
5.581183686000,-0.219000000000
5.588871644000,-0.206000000000
5.596559602000,-0.192000000000
5.604247560000,-0.179000000000
5.611935518000,-0.174000000000
5.619623476000,-0.167000000000
5.627311434000,-0.157000000000
5.634999392000,-0.155000000000
5.642687350000,-0.155000000000
5.650375308000,-0.147000000000
5.658063266000,-0.142000000000
5.665751224000,-0.142000000000
5.673439182000,-0.140000000000
5.681127140000,-0.135000000000
5.688815098000,-0.135000000000
5.696503056000,-0.137000000000
5.704191014000,-0.135000000000
5.711878972000,-0.132000000000
5.719566930000,-0.132000000000
5.727254888000,-0.135000000000
5.734942846000,-0.137000000000
5.742630804000,-0.140000000000
5.750318762000,-0.135000000000
5.758006720000,-0.120000000000
5.765694678000,-0.105000000000
5.773382636000,-0.103000000000
5.781070594000,-0.100000000000
5.788758552000,-0.086000000000
5.796446510000,-0.083000000000
5.804134468000,-0.103000000000
5.811822426000,-0.120000000000
5.819510384000,-0.115000000000
5.827198342000,-0.108000000000
5.834886300000,-0.103000000000
5.842574258000,-0.096000000000
5.850262216000,-0.093000000000
5.857950174000,-0.103000000000
5.865638132000,-0.132000000000
5.873326090000,-0.209000000000
5.881014048000,-0.275000000000
5.888702006000,-0.044000000000
5.896389964000,0.676000000000
5.904077922000,1.550000000000
5.911765880000,1.851000000000
5.919453838000,0.969000000000
5.927141796000,-0.332000000000
5.934829754000,-0.561000000000
5.942517712000,-0.137000000000
5.950205670000,-0.162000000000
5.957893628000,-0.290000000000
5.965581586000,-0.184000000000
5.973269544000,-0.152000000000
5.980957502000,-0.192000000000
5.988645460000,-0.155000000000
5.996333418000,-0.113000000000
6.004021376000,-0.113000000000
6.011709334000,-0.096000000000
6.019397292000,-0.066000000000
6.027085250000,-0.051000000000
6.034773208000,-0.036000000000
6.042461169000,-0.014000000000
6.050148708000,0.004000000000
6.057836247000,0.032000000000
6.065523786000,0.064000000000
6.073211325000,0.091000000000
6.080898864000,0.118000000000
6.088586403000,0.147000000000
6.096273942000,0.174000000000
6.103961481000,0.189000000000
6.111649020000,0.196000000000
6.119336559000,0.192000000000
6.127024098000,0.179000000000
6.134711637000,0.162000000000
6.142399176000,0.128000000000
6.150086715000,0.061000000000
6.157774254000,-0.014000000000
6.165461793000,-0.088000000000
6.173149332000,-0.152000000000
6.180836871000,-0.196000000000
6.188524410000,-0.224000000000
6.196211949000,-0.241000000000
6.203899488000,-0.243000000000
6.211587027000,-0.236000000000
6.219274566000,-0.221000000000
6.226962105000,-0.214000000000
6.234649644000,-0.206000000000
6.242337183000,-0.192000000000
6.250024722000,-0.177000000000
6.257712261000,-0.167000000000
6.265399800000,-0.164000000000
6.273087339000,-0.160000000000
6.280774878000,-0.147000000000
6.288462417000,-0.145000000000
6.296149956000,-0.147000000000
6.303837495000,-0.135000000000
6.311525034000,-0.128000000000
6.319212573000,-0.130000000000
6.326900112000,-0.128000000000
6.334587651000,-0.115000000000
6.342275190000,-0.113000000000
6.349962729000,-0.130000000000
6.357650268000,-0.132000000000
6.365337807000,-0.118000000000
6.373025346000,-0.113000000000
6.380712885000,-0.118000000000
6.388400424000,-0.123000000000
6.396087963000,-0.128000000000
6.403775502000,-0.123000000000
6.411463041000,-0.108000000000
6.419150580000,-0.088000000000
6.426838119000,-0.093000000000
6.434525658000,-0.096000000000
6.442213197000,-0.071000000000
6.449900736000,-0.064000000000
6.457588275000,-0.096000000000
6.465275814000,-0.113000000000
6.472963353000,-0.093000000000
6.480650892000,-0.086000000000
6.488338431000,-0.103000000000
6.496025970000,-0.096000000000
6.503713509000,-0.073000000000
6.511401048000,-0.088000000000
6.519088587000,-0.132000000000
6.526776126000,-0.219000000000
6.534463665000,-0.273000000000
6.542151204000,0.012000000000
6.549838743000,0.790000000000
6.557526282000,1.651000000000
6.565213821000,1.834000000000
6.572901360000,0.814000000000
6.580588899000,-0.425000000000
6.588276438000,-0.497000000000
6.595963977000,-0.108000000000
6.603651584000,-0.192000000000
6.611339123000,-0.258000000000
6.619026662000,-0.145000000000
6.626714201000,-0.150000000000
6.634401740000,-0.174000000000
6.642089279000,-0.115000000000
6.649776818000,-0.086000000000
6.657464357000,-0.098000000000
6.665151896000,-0.071000000000
6.672839435000,-0.039000000000
6.680526974000,-0.036000000000
6.688214513000,-0.022000000000
6.695902052000,0.027000000000
6.703589591000,0.056000000000
6.711277130000,0.071000000000
6.718964669000,0.093000000000
6.726652208000,0.120000000000
6.734339747000,0.150000000000
6.742027286000,0.187000000000
6.749714825000,0.219000000000
6.757402364000,0.228000000000
6.765089903000,0.238000000000
6.772777442000,0.231000000000
6.780464981000,0.219000000000
6.788152520000,0.196000000000
6.795840059000,0.142000000000
6.803527598000,0.076000000000
6.811215137000,0.004000000000
6.818902676000,-0.083000000000
6.826590215000,-0.152000000000
6.834277754000,-0.187000000000
6.841965293000,-0.216000000000
6.849652832000,-0.246000000000
6.857340371000,-0.256000000000
6.865027910000,-0.243000000000
6.872715449000,-0.221000000000
6.880402988000,-0.211000000000
6.888090527000,-0.204000000000
6.895778066000,-0.184000000000
6.903465605000,-0.174000000000
6.911153144000,-0.182000000000
6.918840683000,-0.174000000000
6.926528222000,-0.152000000000
6.934215761000,-0.142000000000
6.941903300000,-0.135000000000
6.949590839000,-0.123000000000
6.957278378000,-0.132000000000
6.964965917000,-0.145000000000
6.972653456000,-0.120000000000
6.980340995000,-0.110000000000
6.988028534000,-0.130000000000
6.995716073000,-0.130000000000
7.003403612000,-0.125000000000
7.011091151000,-0.128000000000
7.018778690000,-0.123000000000
7.026466229000,-0.120000000000
7.034153768000,-0.128000000000
7.041841307000,-0.118000000000
7.049528846000,-0.105000000000
7.057216385000,-0.103000000000
7.064903924000,-0.086000000000
7.072591463000,-0.066000000000
7.080279002000,-0.088000000000
7.087966541000,-0.128000000000
7.095654080000,-0.120000000000
7.103341619000,-0.103000000000
7.111029158000,-0.108000000000
7.118716697000,-0.100000000000
7.126404236000,-0.096000000000
7.134091775000,-0.100000000000
7.141779314000,-0.110000000000
7.149466853000,-0.128000000000
7.157154392000,-0.189000000000
7.164841999000,-0.283000000000
7.172529538000,-0.130000000000
7.180217077000,0.571000000000
7.187904616000,1.504000000000
7.195592155000,1.920000000000
7.203279694000,1.174000000000
7.210967233000,-0.201000000000
7.218654772000,-0.615000000000
7.226342311000,-0.194000000000
7.234029850000,-0.164000000000
7.241717389000,-0.290000000000
7.249404928000,-0.174000000000
7.257092467000,-0.137000000000
7.264780006000,-0.177000000000
7.272467545000,-0.142000000000
7.280155084000,-0.098000000000
7.287842623000,-0.091000000000
7.295530162000,-0.088000000000
7.303217701000,-0.068000000000
7.310905240000,-0.034000000000
7.318592779000,-0.009000000000
7.326280318000,0.007000000000
7.333967857000,0.036000000000
7.341655396000,0.061000000000
7.349342935000,0.086000000000
7.357030474000,0.120000000000
7.364718013000,0.147000000000
7.372405552000,0.174000000000
7.380093091000,0.206000000000
7.387780630000,0.221000000000
7.395468169000,0.216000000000
7.403155708000,0.201000000000
7.410843247000,0.189000000000
7.418530786000,0.172000000000
7.426218325000,0.120000000000
7.433905864000,0.049000000000
7.441593403000,-0.024000000000
7.449280942000,-0.110000000000
7.456968481000,-0.182000000000
7.464656020000,-0.224000000000
7.472343559000,-0.248000000000
7.480031098000,-0.268000000000
7.487718637000,-0.268000000000
7.495406176000,-0.258000000000
7.503093715000,-0.256000000000
7.510781254000,-0.256000000000
7.518468793000,-0.238000000000
7.526156332000,-0.219000000000
7.533843871000,-0.211000000000
7.541531410000,-0.206000000000
7.549218949000,-0.194000000000
7.556906488000,-0.189000000000
7.564594027000,-0.182000000000
7.572281566000,-0.167000000000
7.579969105000,-0.162000000000
7.587656644000,-0.160000000000
7.595344183000,-0.150000000000
7.603031722000,-0.147000000000
7.610719261000,-0.152000000000
7.618406800000,-0.147000000000
7.626094339000,-0.142000000000
7.633781878000,-0.140000000000
7.641469417000,-0.142000000000
7.649156956000,-0.142000000000
7.656844495000,-0.142000000000
7.664532034000,-0.147000000000
7.672219573000,-0.155000000000
7.679907112000,-0.152000000000
7.687594651000,-0.137000000000
7.695282190000,-0.123000000000
7.702969729000,-0.125000000000
7.710657268000,-0.123000000000
7.718344807000,-0.105000000000
7.726032414000,-0.098000000000
7.733719953000,-0.113000000000
7.741407492000,-0.132000000000
7.749095031000,-0.130000000000
7.756782570000,-0.118000000000
7.764470109000,-0.113000000000
7.772157648000,-0.113000000000
7.779845187000,-0.113000000000
7.787532726000,-0.115000000000
7.795220265000,-0.135000000000
7.802907804000,-0.199000000000
7.810595343000,-0.283000000000
7.818282882000,-0.140000000000
7.825970421000,0.492000000000
7.833657960000,1.368000000000
7.841345499000,1.861000000000
7.849033038000,1.287000000000
7.856720577000,-0.076000000000
7.864408116000,-0.652000000000
7.872095655000,-0.243000000000
7.879783194000,-0.125000000000
7.887470733000,-0.300000000000
7.895158272000,-0.226000000000
7.902845811000,-0.147000000000
7.910533350000,-0.194000000000
7.918220889000,-0.177000000000
7.925908428000,-0.123000000000
7.933595967000,-0.118000000000
7.941283506000,-0.105000000000
7.948971045000,-0.081000000000
7.956658584000,-0.068000000000
7.964346123000,-0.051000000000
7.972033662000,-0.029000000000
7.979721201000,-0.004000000000
7.987408740000,0.017000000000
7.995096279000,0.039000000000
8.002783818000,0.068000000000
8.010471357000,0.105000000000
8.018158896000,0.130000000000
8.025846435000,0.147000000000
8.033533974000,0.162000000000
8.041221513000,0.167000000000
8.048909052000,0.167000000000
8.056596591000,0.164000000000
8.064284130000,0.150000000000
8.071971669000,0.118000000000
8.079659208000,0.076000000000
8.087346747000,0.009000000000
8.095034286000,-0.073000000000
8.102721825000,-0.145000000000
8.110409364000,-0.184000000000
8.118096903000,-0.209000000000
8.125784442000,-0.226000000000
8.133471981000,-0.231000000000
8.141159520000,-0.226000000000
8.148847059000,-0.216000000000
8.156534598000,-0.206000000000
8.164222137000,-0.194000000000
8.171909676000,-0.184000000000
8.179597215000,-0.177000000000
8.187284754000,-0.164000000000
8.194972293000,-0.155000000000
8.202659832000,-0.150000000000
8.210347371000,-0.145000000000
8.218034910000,-0.142000000000
8.225722449000,-0.137000000000
8.233409988000,-0.135000000000
8.241097527000,-0.132000000000
8.248785066000,-0.128000000000
8.256472605000,-0.125000000000
8.264160144000,-0.125000000000
8.271847683000,-0.125000000000
8.279535222000,-0.120000000000
8.287222829000,-0.115000000000
8.294910368000,-0.115000000000
8.302597907000,-0.118000000000
8.310285446000,-0.123000000000
8.317972985000,-0.125000000000
8.325660524000,-0.128000000000
8.333348063000,-0.123000000000
8.341035602000,-0.105000000000
8.348723141000,-0.093000000000
8.356410680000,-0.096000000000
8.364098219000,-0.093000000000
8.371785758000,-0.071000000000
8.379473297000,-0.071000000000
8.387160836000,-0.096000000000
8.394848375000,-0.108000000000
8.402535914000,-0.103000000000
8.410223453000,-0.098000000000
8.417910992000,-0.093000000000
8.425598531000,-0.091000000000
8.433286070000,-0.088000000000
8.440973609000,-0.093000000000
8.448661148000,-0.125000000000
8.456348687000,-0.219000000000
8.464036226000,-0.258000000000
8.471723765000,0.076000000000
8.479411304000,0.871000000000
8.487098843000,1.688000000000
8.494786382000,1.802000000000
8.502473921000,0.736000000000
8.510161460000,-0.475000000000
8.517848999000,-0.492000000000
8.525536538000,-0.086000000000
8.533224077000,-0.192000000000
8.540911616000,-0.285000000000
8.548599155000,-0.164000000000
8.556286694000,-0.152000000000
8.563974233000,-0.184000000000
8.571661772000,-0.137000000000
8.579349311000,-0.103000000000
8.587036850000,-0.103000000000
8.594724389000,-0.083000000000
8.602411928000,-0.056000000000
8.610099467000,-0.039000000000
8.617787006000,-0.032000000000
8.625474545000,-0.007000000000
8.633162084000,0.019000000000
8.640849623000,0.041000000000
8.648537162000,0.066000000000
8.656224701000,0.103000000000
8.663912240000,0.132000000000
8.671599779000,0.157000000000
8.679287318000,0.184000000000
8.686974857000,0.199000000000
8.694662396000,0.204000000000
8.702349935000,0.196000000000
8.710037474000,0.174000000000
8.717725013000,0.155000000000
8.725412552000,0.123000000000
8.733100091000,0.056000000000
8.740787630000,-0.029000000000
8.748475169000,-0.113000000000
8.756162708000,-0.172000000000
8.763850247000,-0.214000000000
8.771537786000,-0.243000000000
8.779225325000,-0.256000000000
8.786912864000,-0.246000000000
8.794600403000,-0.238000000000
8.802287942000,-0.233000000000
8.809975481000,-0.226000000000
8.817663020000,-0.216000000000
8.825350559000,-0.206000000000
8.833038098000,-0.196000000000
8.840725637000,-0.192000000000
8.848413244000,-0.182000000000
8.856100783000,-0.172000000000
8.863788322000,-0.164000000000
8.871475861000,-0.160000000000
8.879163400000,-0.160000000000
8.886850939000,-0.162000000000
8.894538478000,-0.160000000000
8.902226017000,-0.155000000000
8.909913556000,-0.152000000000
8.917601095000,-0.150000000000
8.925288634000,-0.152000000000
8.932976173000,-0.147000000000
8.940663712000,-0.140000000000
8.948351251000,-0.142000000000
8.956038790000,-0.150000000000
8.963726329000,-0.155000000000
8.971413868000,-0.157000000000
8.979101407000,-0.150000000000
8.986788946000,-0.137000000000
8.994476485000,-0.123000000000
9.002164024000,-0.118000000000
9.009851563000,-0.118000000000
9.017539102000,-0.103000000000
9.025226641000,-0.096000000000
9.032914180000,-0.113000000000
9.040601719000,-0.137000000000
9.048289258000,-0.137000000000
9.055976797000,-0.123000000000
9.063664336000,-0.118000000000
9.071351875000,-0.115000000000
9.079039414000,-0.113000000000
9.086726953000,-0.118000000000
9.094414492000,-0.155000000000
9.102102031000,-0.241000000000
9.109789570000,-0.288000000000
9.117477109000,0.000000000000
9.125164648000,0.768000000000
9.132852187000,1.614000000000
9.140539726000,1.797000000000
9.148227265000,0.804000000000
9.155914804000,-0.443000000000
9.163602343000,-0.541000000000
9.171289882000,-0.120000000000
9.178977421000,-0.199000000000
9.186664960000,-0.312000000000
9.194352499000,-0.189000000000
9.202040038000,-0.167000000000
9.209727577000,-0.204000000000
9.217415116000,-0.157000000000
9.225102655000,-0.125000000000
9.232790194000,-0.130000000000
9.240477733000,-0.108000000000
9.248165272000,-0.081000000000
9.255852811000,-0.068000000000
9.263540350000,-0.044000000000
9.271227889000,-0.019000000000
9.278915428000,-0.002000000000
9.286602967000,0.019000000000
9.294290506000,0.049000000000
9.301978045000,0.078000000000
9.309665584000,0.110000000000
9.317353123000,0.142000000000
9.325040662000,0.169000000000
9.332728201000,0.184000000000
9.340415740000,0.189000000000
9.348103279000,0.182000000000
9.355790818000,0.169000000000
9.363478357000,0.150000000000
9.371165896000,0.110000000000
9.378853435000,0.046000000000
9.386540974000,-0.034000000000
9.394228513000,-0.113000000000
9.401916052000,-0.174000000000
9.409603659000,-0.216000000000
9.417291268000,-0.243000000000
9.424978877000,-0.248000000000
9.432666486000,-0.248000000000
9.440354095000,-0.246000000000
9.448041704000,-0.238000000000
9.455729313000,-0.224000000000
9.463416922000,-0.216000000000
9.471104531000,-0.209000000000
9.478792140000,-0.201000000000
9.486479749000,-0.187000000000
9.494167358000,-0.174000000000
9.501854967000,-0.172000000000
9.509542576000,-0.172000000000
9.517230185000,-0.167000000000
9.524917794000,-0.160000000000
9.532605403000,-0.157000000000
9.540293012000,-0.152000000000
9.547980621000,-0.152000000000
9.555668230000,-0.155000000000
9.563355839000,-0.152000000000
9.571043448000,-0.147000000000
9.578731057000,-0.145000000000
9.586418666000,-0.145000000000
9.594106275000,-0.142000000000
9.601793884000,-0.142000000000
9.609481493000,-0.155000000000
9.617169102000,-0.160000000000
9.624856711000,-0.140000000000
9.632544320000,-0.123000000000
9.640231929000,-0.125000000000
9.647919538000,-0.120000000000
9.655607147000,-0.103000000000
9.663294756000,-0.096000000000
9.670982365000,-0.108000000000
9.678669974000,-0.130000000000
9.686357583000,-0.132000000000
9.694045192000,-0.125000000000
9.701732801000,-0.120000000000
9.709420410000,-0.115000000000
9.717108019000,-0.110000000000
9.724795628000,-0.113000000000
9.732483237000,-0.132000000000
9.740170846000,-0.201000000000
9.747858455000,-0.295000000000
9.755546064000,-0.164000000000
9.763233673000,0.448000000000
9.770921282000,1.321000000000
9.778608891000,1.814000000000
9.786296500000,1.218000000000
9.793984109000,-0.120000000000
9.801671718000,-0.632000000000
9.809359327000,-0.221000000000
9.817046936000,-0.128000000000
9.824734545000,-0.297000000000
9.832422154000,-0.226000000000
9.840109763000,-0.152000000000
9.847797372000,-0.187000000000
9.855484981000,-0.169000000000
9.863172590000,-0.128000000000
9.870860199000,-0.125000000000
9.878547808000,-0.110000000000
9.886235417000,-0.076000000000
9.893923026000,-0.061000000000
9.901610635000,-0.051000000000
9.909298244000,-0.029000000000
9.916985853000,-0.007000000000
9.924673462000,0.012000000000
9.932361071000,0.039000000000
9.940048680000,0.073000000000
9.947736289000,0.105000000000
9.955423898000,0.128000000000
9.963111507000,0.152000000000
9.970799165000,0.172000000000
9.978486774000,0.177000000000
9.986174383000,0.174000000000
9.993861992000,0.172000000000
10.001549601000,0.155000000000
10.009237210000,0.123000000000
10.016924819000,0.076000000000
10.024612428000,0.000000000000
10.032300037000,-0.083000000000
10.039987646000,-0.142000000000
10.047675255000,-0.194000000000
10.055362864000,-0.231000000000
10.063050473000,-0.236000000000
10.070738082000,-0.238000000000
10.078425691000,-0.238000000000
10.086113300000,-0.216000000000
10.093800909000,-0.201000000000
10.101488518000,-0.206000000000
10.109176127000,-0.196000000000
10.116863736000,-0.177000000000
10.124551345000,-0.157000000000
10.132238954000,-0.147000000000
10.139926563000,-0.152000000000
10.147614172000,-0.152000000000
10.155301781000,-0.137000000000
10.162989390000,-0.130000000000
10.170676999000,-0.130000000000
10.178364608000,-0.137000000000
10.186052217000,-0.140000000000
10.193739826000,-0.130000000000
10.201427435000,-0.120000000000
10.209115044000,-0.123000000000
10.216802653000,-0.120000000000
10.224490262000,-0.110000000000
10.232177871000,-0.125000000000
10.239865480000,-0.140000000000
10.247553089000,-0.118000000000
10.255240698000,-0.103000000000
10.262928307000,-0.110000000000
10.270615916000,-0.105000000000
10.278303525000,-0.088000000000
10.285991134000,-0.081000000000
10.293678743000,-0.081000000000
10.301366352000,-0.088000000000
10.309053961000,-0.110000000000
10.316741570000,-0.115000000000
10.324429179000,-0.096000000000
10.332116788000,-0.091000000000
10.339804397000,-0.098000000000
10.347492006000,-0.100000000000
10.355179615000,-0.110000000000
10.362867224000,-0.162000000000
10.370554833000,-0.258000000000
10.378242442000,-0.226000000000
10.385930051000,0.256000000000
10.393617660000,1.137000000000
10.401305269000,1.836000000000
10.408992878000,1.577000000000
10.416680487000,0.295000000000
10.424368096000,-0.590000000000
10.432055705000,-0.337000000000
10.439743314000,-0.096000000000
10.447430923000,-0.263000000000
10.455118532000,-0.246000000000
10.462806141000,-0.137000000000
10.470493750000,-0.172000000000
10.478181359000,-0.169000000000
10.485868968000,-0.105000000000
10.493556577000,-0.100000000000
10.501244186000,-0.096000000000
10.508931795000,-0.046000000000
10.516619404000,-0.029000000000
10.524307013000,-0.039000000000
10.531994667000,-0.002000000000
10.539682485000,0.029000000000
10.547370303000,0.034000000000
10.555058121000,0.071000000000
10.562745939000,0.125000000000
10.570433757000,0.155000000000
10.578121575000,0.177000000000
10.585809393000,0.214000000000
10.593497211000,0.238000000000
10.601185029000,0.231000000000
10.608872847000,0.228000000000
10.616560665000,0.226000000000
10.624248483000,0.189000000000
10.631936301000,0.164000000000
10.639624119000,0.140000000000
10.647311937000,0.051000000000
10.654999755000,-0.044000000000
10.662687573000,-0.115000000000
10.670375391000,-0.187000000000
10.678063209000,-0.224000000000
10.685751027000,-0.221000000000
10.693438845000,-0.233000000000
10.701126663000,-0.246000000000
10.708814481000,-0.224000000000
10.716502299000,-0.206000000000
10.724190117000,-0.216000000000
10.731877935000,-0.204000000000
10.739565753000,-0.179000000000
10.747253571000,-0.174000000000
10.754941389000,-0.160000000000
10.762629207000,-0.147000000000
10.770317025000,-0.157000000000
10.778004843000,-0.157000000000
10.785692661000,-0.140000000000
10.793380479000,-0.132000000000
10.801068297000,-0.135000000000
10.808756115000,-0.135000000000
10.816443933000,-0.132000000000
10.824131751000,-0.125000000000
10.831819569000,-0.128000000000
10.839507387000,-0.142000000000
10.847195205000,-0.150000000000
10.854883023000,-0.150000000000
10.862570841000,-0.135000000000
10.870258659000,-0.113000000000
10.877946477000,-0.115000000000
10.885634295000,-0.128000000000
10.893322113000,-0.108000000000
10.901009931000,-0.096000000000
10.908697749000,-0.125000000000
10.916385567000,-0.147000000000
10.924073385000,-0.140000000000
10.931761203000,-0.130000000000
10.939449021000,-0.125000000000
10.947136839000,-0.125000000000
10.954824657000,-0.125000000000
10.962512475000,-0.140000000000
10.970200293000,-0.199000000000
10.977888111000,-0.302000000000
10.985575929000,-0.270000000000
10.993263747000,0.233000000000
11.000951565000,1.122000000000
11.008639383000,1.779000000000
11.016327201000,1.509000000000
11.024015019000,0.251000000000
11.031702837000,-0.632000000000
11.039390655000,-0.379000000000
11.047078473000,-0.120000000000
11.054766291000,-0.280000000000
11.062454109000,-0.265000000000
11.070141927000,-0.160000000000
11.077829745000,-0.189000000000
11.085517563000,-0.192000000000
11.093205426000,-0.145000000000
11.100892965000,-0.137000000000
11.108580504000,-0.128000000000
11.116268043000,-0.088000000000
11.123955582000,-0.071000000000
11.131643121000,-0.064000000000
11.139330660000,-0.036000000000
11.147018199000,-0.014000000000
11.154705738000,0.000000000000
11.162393277000,0.027000000000
11.170080816000,0.054000000000
11.177768355000,0.073000000000
11.185455894000,0.105000000000
11.193143433000,0.130000000000
11.200830972000,0.137000000000
11.208518511000,0.142000000000
11.216206050000,0.132000000000
11.223893589000,0.115000000000
11.231581128000,0.108000000000
11.239268667000,0.088000000000
11.246956206000,0.036000000000
11.254643745000,-0.029000000000
11.262331284000,-0.093000000000
11.270018823000,-0.155000000000
11.277706362000,-0.204000000000
11.285393901000,-0.231000000000
11.293081440000,-0.241000000000
11.300768979000,-0.243000000000
11.308456518000,-0.241000000000
11.316144057000,-0.228000000000
11.323831596000,-0.219000000000
11.331519135000,-0.209000000000
11.339206674000,-0.192000000000
11.346894213000,-0.179000000000
11.354581752000,-0.177000000000
11.362269291000,-0.172000000000
11.369956830000,-0.160000000000
11.377644369000,-0.152000000000
11.385331908000,-0.150000000000
11.393019447000,-0.147000000000
11.400706986000,-0.145000000000
11.408394525000,-0.140000000000
11.416082064000,-0.140000000000
11.423769603000,-0.140000000000
11.431457142000,-0.140000000000
11.439144681000,-0.142000000000
11.446832220000,-0.142000000000
11.454519759000,-0.142000000000
11.462207298000,-0.150000000000
11.469894837000,-0.160000000000
11.477582376000,-0.152000000000
11.485269915000,-0.132000000000
11.492957454000,-0.125000000000
11.500644993000,-0.123000000000
11.508332532000,-0.120000000000
11.516020071000,-0.110000000000
11.523707610000,-0.105000000000
11.531395149000,-0.118000000000
11.539082688000,-0.132000000000
11.546770227000,-0.132000000000
11.554457766000,-0.123000000000
11.562145305000,-0.118000000000
11.569832844000,-0.115000000000
11.577520383000,-0.113000000000
11.585207922000,-0.128000000000
11.592895461000,-0.179000000000
11.600583000000,-0.263000000000
11.608270539000,-0.214000000000
11.615958078000,0.256000000000
11.623645617000,1.100000000000
11.631333156000,1.787000000000
11.639020695000,1.558000000000
11.646708234000,0.290000000000
11.654395841000,-0.620000000000
11.662083380000,-0.364000000000
11.669770919000,-0.088000000000
11.677458458000,-0.263000000000
11.685145997000,-0.273000000000
11.692833536000,-0.160000000000
11.700521075000,-0.184000000000
11.708208614000,-0.192000000000
11.715896153000,-0.135000000000
11.723583692000,-0.123000000000
11.731271231000,-0.123000000000
11.738958770000,-0.093000000000
11.746646309000,-0.071000000000
11.754333848000,-0.059000000000
11.762021387000,-0.039000000000
11.769708926000,-0.017000000000
11.777396465000,0.002000000000
11.785084004000,0.029000000000
11.792771543000,0.059000000000
11.800459082000,0.086000000000
11.808146621000,0.108000000000
11.815834160000,0.137000000000
11.823521699000,0.162000000000
11.831209238000,0.164000000000
11.838896777000,0.157000000000
11.846584316000,0.152000000000
11.854271855000,0.137000000000
11.861959394000,0.113000000000
11.869646933000,0.073000000000
11.877334472000,0.012000000000
11.885022011000,-0.068000000000
11.892709550000,-0.137000000000
11.900397089000,-0.179000000000
11.908084628000,-0.211000000000
11.915772167000,-0.233000000000
11.923459706000,-0.238000000000
11.931147245000,-0.228000000000
11.938834784000,-0.221000000000
11.946522323000,-0.216000000000
11.954209862000,-0.201000000000
11.961897401000,-0.189000000000
11.969584940000,-0.182000000000
11.977272479000,-0.174000000000
11.984960018000,-0.164000000000
11.992647557000,-0.160000000000
12.000335096000,-0.155000000000
12.008022635000,-0.152000000000
12.015710174000,-0.147000000000
12.023397713000,-0.145000000000
12.031085252000,-0.145000000000
12.038772791000,-0.145000000000
12.046460330000,-0.140000000000
12.054147869000,-0.137000000000
12.061835408000,-0.142000000000
12.069522947000,-0.137000000000
12.077210486000,-0.132000000000
12.084898025000,-0.135000000000
12.092585564000,-0.142000000000
12.100273103000,-0.142000000000
12.107960642000,-0.132000000000
12.115648181000,-0.115000000000
12.123335720000,-0.113000000000
12.131023259000,-0.113000000000
12.138710798000,-0.098000000000
12.146398337000,-0.083000000000
12.154085876000,-0.096000000000
12.161773415000,-0.118000000000
12.169460954000,-0.120000000000
12.177148493000,-0.108000000000
12.184836032000,-0.103000000000
12.192523571000,-0.105000000000
12.200211110000,-0.105000000000
12.207898649000,-0.108000000000
12.215586256000,-0.125000000000
12.223274214000,-0.187000000000
12.230962172000,-0.268000000000
12.238650130000,-0.147000000000
12.246338088000,0.452000000000
12.254026046000,1.326000000000
12.261714004000,1.838000000000
12.269401962000,1.285000000000
12.277089920000,-0.056000000000
12.284777878000,-0.635000000000
12.292465836000,-0.238000000000
12.300153794000,-0.110000000000
12.307841752000,-0.285000000000
12.315529710000,-0.226000000000
12.323217668000,-0.145000000000
12.330905626000,-0.184000000000
12.338593584000,-0.164000000000
12.346281542000,-0.110000000000
12.353969500000,-0.110000000000
12.361657458000,-0.108000000000
12.369345416000,-0.073000000000
12.377033374000,-0.054000000000
12.384721332000,-0.039000000000
12.392409290000,-0.017000000000
12.400097248000,0.004000000000
12.407785206000,0.027000000000
12.415473164000,0.059000000000
12.423161122000,0.088000000000
12.430849080000,0.113000000000
12.438537038000,0.140000000000
12.446224996000,0.162000000000
12.453912954000,0.179000000000
12.461600912000,0.184000000000
12.469288870000,0.177000000000
12.476976828000,0.169000000000
12.484664786000,0.155000000000
12.492352744000,0.128000000000
12.500040702000,0.078000000000
12.507728660000,0.009000000000
12.515416618000,-0.068000000000
12.523104576000,-0.132000000000
12.530792534000,-0.174000000000
12.538480492000,-0.209000000000
12.546168450000,-0.224000000000
12.553856408000,-0.216000000000
12.561544366000,-0.211000000000
12.569232324000,-0.209000000000
12.576920282000,-0.204000000000
12.584608240000,-0.189000000000
12.592296198000,-0.164000000000
12.599984156000,-0.155000000000
12.607672114000,-0.157000000000
12.615360072000,-0.140000000000
12.623048030000,-0.130000000000
12.630735988000,-0.137000000000
12.638423946000,-0.130000000000
12.646111904000,-0.120000000000
12.653799862000,-0.125000000000
12.661487820000,-0.123000000000
12.669175778000,-0.113000000000
12.676863736000,-0.108000000000
12.684551694000,-0.115000000000
12.692239652000,-0.123000000000
12.699927610000,-0.113000000000
12.707615568000,-0.110000000000
12.715303526000,-0.120000000000
12.722991484000,-0.125000000000
12.730679442000,-0.120000000000
12.738367400000,-0.110000000000
12.746055358000,-0.096000000000
12.753743316000,-0.088000000000
12.761431274000,-0.091000000000
12.769119232000,-0.086000000000
12.776807193000,-0.066000000000
12.784494732000,-0.066000000000
12.792182271000,-0.105000000000
12.799869810000,-0.115000000000
12.807557349000,-0.096000000000
12.815244888000,-0.091000000000
12.822932427000,-0.088000000000
12.830619966000,-0.076000000000
12.838307505000,-0.081000000000
12.845995044000,-0.103000000000
12.853682583000,-0.145000000000
12.861370122000,-0.236000000000
12.869057661000,-0.201000000000
12.876745200000,0.310000000000
12.884432739000,1.191000000000
12.892120278000,1.858000000000
12.899807817000,1.565000000000
12.907495356000,0.248000000000
12.915182895000,-0.598000000000
12.922870434000,-0.290000000000
12.930557973000,-0.068000000000
12.938245512000,-0.251000000000
12.945933051000,-0.219000000000
12.953620590000,-0.110000000000
12.961308129000,-0.150000000000
12.968995668000,-0.157000000000
12.976683207000,-0.105000000000
12.984370746000,-0.083000000000
12.992058285000,-0.073000000000
12.999745824000,-0.054000000000
13.007433363000,-0.024000000000
13.015120902000,-0.004000000000
13.022808441000,0.014000000000
13.030495980000,0.041000000000
13.038183519000,0.059000000000
13.045871058000,0.081000000000
13.053558597000,0.125000000000
13.061246136000,0.157000000000
13.068933675000,0.169000000000
13.076621214000,0.204000000000
13.084308753000,0.246000000000
13.091996292000,0.233000000000
13.099683831000,0.199000000000
13.107371370000,0.206000000000
13.115058909000,0.206000000000
13.122746448000,0.160000000000
13.130433987000,0.110000000000
13.138121526000,0.051000000000
13.145809065000,-0.027000000000
13.153496604000,-0.103000000000
13.161184143000,-0.162000000000
13.168871682000,-0.199000000000
13.176559221000,-0.209000000000
13.184246760000,-0.206000000000
13.191934299000,-0.221000000000
13.199621838000,-0.224000000000
13.207309377000,-0.187000000000
13.214996916000,-0.172000000000
13.222684455000,-0.174000000000
13.230371994000,-0.157000000000
13.238059533000,-0.152000000000
13.245747072000,-0.147000000000
13.253434611000,-0.132000000000
13.261122150000,-0.125000000000
13.268809689000,-0.123000000000
13.276497228000,-0.115000000000
13.284184767000,-0.108000000000
13.291872306000,-0.115000000000
13.299559845000,-0.120000000000
13.307247384000,-0.120000000000
13.314934923000,-0.113000000000
13.322622462000,-0.105000000000
13.330310001000,-0.105000000000
13.337997608000,-0.110000000000
13.345685147000,-0.132000000000
13.353372686000,-0.140000000000
13.361060225000,-0.110000000000
13.368747764000,-0.098000000000
13.376435303000,-0.110000000000
13.384122842000,-0.105000000000
13.391810381000,-0.093000000000
13.399497920000,-0.083000000000
13.407185459000,-0.091000000000
13.414872998000,-0.108000000000
13.422560537000,-0.118000000000
13.430248076000,-0.118000000000
13.437935615000,-0.118000000000
13.445623154000,-0.113000000000
13.453310693000,-0.105000000000
13.460998232000,-0.108000000000
13.468685771000,-0.132000000000
13.476373310000,-0.199000000000
13.484060849000,-0.297000000000
13.491748388000,-0.209000000000
13.499435927000,0.388000000000
13.507123466000,1.302000000000
13.514811005000,1.848000000000
13.522498544000,1.351000000000
13.530186083000,0.024000000000
13.537873622000,-0.632000000000
13.545561161000,-0.283000000000
13.553248700000,-0.140000000000
13.560936239000,-0.295000000000
13.568623778000,-0.228000000000
13.576311317000,-0.152000000000
13.583998856000,-0.194000000000
13.591686395000,-0.174000000000
13.599373934000,-0.125000000000
13.607061473000,-0.120000000000
13.614749012000,-0.113000000000
13.622436551000,-0.088000000000
13.630124090000,-0.071000000000
13.637811629000,-0.054000000000
13.645499168000,-0.032000000000
13.653186707000,-0.009000000000
13.660874246000,0.009000000000
13.668561785000,0.039000000000
13.676249324000,0.064000000000
13.683936863000,0.081000000000
13.691624402000,0.103000000000
13.699311941000,0.128000000000
13.706999480000,0.137000000000
13.714687019000,0.135000000000
13.722374558000,0.125000000000
13.730062097000,0.108000000000
13.737749636000,0.093000000000
13.745437175000,0.071000000000
13.753124714000,0.027000000000
13.760812253000,-0.036000000000
13.768499792000,-0.103000000000
13.776187331000,-0.160000000000
13.783874870000,-0.199000000000
13.791562409000,-0.224000000000
13.799249948000,-0.233000000000
13.806937487000,-0.236000000000
13.814625026000,-0.233000000000
13.822312565000,-0.224000000000
13.830000104000,-0.216000000000
13.837687643000,-0.206000000000
13.845375182000,-0.192000000000
13.853062721000,-0.184000000000
13.860750260000,-0.177000000000
13.868437799000,-0.169000000000
13.876125338000,-0.157000000000
13.883812877000,-0.152000000000
13.891500416000,-0.147000000000
13.899188023000,-0.145000000000
13.906875562000,-0.142000000000
13.914563101000,-0.140000000000
13.922250640000,-0.137000000000
13.929938179000,-0.140000000000
13.937625718000,-0.145000000000
13.945313257000,-0.137000000000
13.953000796000,-0.130000000000
13.960688335000,-0.135000000000
13.968375874000,-0.142000000000
13.976063413000,-0.137000000000
13.983750952000,-0.140000000000
13.991438491000,-0.150000000000
13.999126030000,-0.155000000000
14.006813569000,-0.147000000000
14.014501108000,-0.135000000000
14.022188647000,-0.123000000000
14.029876186000,-0.125000000000
14.037563725000,-0.123000000000
14.045251264000,-0.108000000000
14.052938803000,-0.100000000000
14.060626342000,-0.110000000000
14.068313881000,-0.130000000000
14.076001420000,-0.135000000000
14.083688959000,-0.130000000000
14.091376498000,-0.118000000000
14.099064037000,-0.110000000000
14.106751576000,-0.113000000000
14.114439115000,-0.125000000000
14.122126654000,-0.157000000000
14.129814193000,-0.238000000000
14.137501732000,-0.251000000000
14.145189271000,0.105000000000
14.152876810000,0.881000000000
14.160564349000,1.644000000000
14.168251888000,1.686000000000
14.175939427000,0.590000000000
14.183626966000,-0.534000000000
14.191314505000,-0.465000000000
14.199002044000,-0.088000000000
14.206689583000,-0.219000000000
14.214377122000,-0.290000000000
14.222064661000,-0.169000000000
14.229752200000,-0.164000000000
14.237439739000,-0.189000000000
14.245127278000,-0.137000000000
14.252814817000,-0.113000000000
14.260502356000,-0.115000000000
14.268189895000,-0.091000000000
14.275877434000,-0.066000000000
14.283564973000,-0.054000000000
14.291252512000,-0.034000000000
14.298940051000,-0.012000000000
14.306627590000,0.009000000000
14.314315129000,0.032000000000
14.322002668000,0.059000000000
14.329690207000,0.083000000000
14.337377746000,0.108000000000
14.345065285000,0.135000000000
14.352752824000,0.152000000000
14.360440363000,0.157000000000
14.368127902000,0.157000000000
14.375815441000,0.155000000000
14.383502980000,0.140000000000
14.391190519000,0.118000000000
14.398878058000,0.086000000000
14.406565597000,0.032000000000
14.414253136000,-0.041000000000
14.421940675000,-0.113000000000
14.429628214000,-0.167000000000
14.437315753000,-0.204000000000
14.445003292000,-0.224000000000
14.452690831000,-0.231000000000
14.460378438000,-0.226000000000
14.468066256000,-0.219000000000
14.475754074000,-0.216000000000
14.483441892000,-0.204000000000
14.491129710000,-0.189000000000
14.498817528000,-0.182000000000
14.506505346000,-0.179000000000
14.514193164000,-0.169000000000
14.521880982000,-0.164000000000
14.529568800000,-0.160000000000
14.537256618000,-0.157000000000
14.544944436000,-0.160000000000
14.552632254000,-0.160000000000
14.560320072000,-0.155000000000
14.568007890000,-0.152000000000
14.575695708000,-0.152000000000
14.583383526000,-0.145000000000
14.591071344000,-0.142000000000
14.598759162000,-0.145000000000
14.606446980000,-0.142000000000
14.614134798000,-0.140000000000
14.621822616000,-0.137000000000
14.629510434000,-0.132000000000
14.637198252000,-0.130000000000
14.644886070000,-0.132000000000
14.652573888000,-0.137000000000
14.660261706000,-0.145000000000
14.667949524000,-0.142000000000
14.675637342000,-0.120000000000
14.683325160000,-0.103000000000
14.691012978000,-0.110000000000
14.698700796000,-0.105000000000
14.706388614000,-0.088000000000
14.714076432000,-0.083000000000
14.721764250000,-0.100000000000
14.729452068000,-0.125000000000
14.737139886000,-0.120000000000
14.744827704000,-0.105000000000
14.752515522000,-0.103000000000
14.760203340000,-0.100000000000
14.767891158000,-0.098000000000
14.775578976000,-0.110000000000
14.783266794000,-0.155000000000
14.790954612000,-0.238000000000
14.798642430000,-0.246000000000
14.806330248000,0.132000000000
14.814018066000,0.937000000000
14.821705884000,1.698000000000
14.829393702000,1.646000000000
14.837081520000,0.470000000000
14.844769338000,-0.571000000000
14.852457156000,-0.413000000000
14.860144974000,-0.076000000000
14.867832792000,-0.231000000000
14.875520610000,-0.275000000000
14.883208428000,-0.155000000000
14.890896246000,-0.164000000000
14.898584064000,-0.182000000000
14.906271882000,-0.128000000000
14.913959700000,-0.108000000000
14.921647518000,-0.108000000000
14.929335336000,-0.083000000000
14.937023154000,-0.064000000000
14.944710972000,-0.051000000000
14.952398790000,-0.029000000000
14.960086608000,-0.007000000000
14.967774426000,0.012000000000
14.975462244000,0.036000000000
14.983150062000,0.061000000000
14.990837880000,0.086000000000
14.998525698000,0.118000000000
15.006213516000,0.142000000000
15.013901334000,0.157000000000
15.021589201000,0.164000000000
15.029276810000,0.167000000000
15.036964419000,0.160000000000
15.044652028000,0.142000000000
15.052339637000,0.120000000000
15.060027246000,0.086000000000
15.067714855000,0.024000000000
15.075402464000,-0.049000000000
15.083090073000,-0.118000000000
15.090777682000,-0.174000000000
15.098465291000,-0.211000000000
15.106152900000,-0.231000000000
15.113840509000,-0.238000000000
15.121528118000,-0.236000000000
15.129215727000,-0.228000000000
15.136903336000,-0.219000000000
15.144590945000,-0.209000000000
15.152278554000,-0.196000000000
15.159966163000,-0.184000000000
15.167653772000,-0.174000000000
15.175341381000,-0.169000000000
15.183028990000,-0.167000000000
15.190716599000,-0.162000000000
15.198404208000,-0.160000000000
15.206091817000,-0.157000000000
15.213779426000,-0.152000000000
15.221467035000,-0.150000000000
15.229154644000,-0.152000000000
15.236842253000,-0.145000000000
15.244529862000,-0.142000000000
15.252217471000,-0.140000000000
15.259905080000,-0.140000000000
15.267592689000,-0.135000000000
15.275280298000,-0.135000000000
15.282967907000,-0.132000000000
15.290655516000,-0.128000000000
15.298343125000,-0.125000000000
15.306030734000,-0.128000000000
15.313718343000,-0.130000000000
15.321405952000,-0.132000000000
15.329093561000,-0.132000000000
15.336781170000,-0.123000000000
15.344468779000,-0.108000000000
15.352156388000,-0.105000000000
15.359843997000,-0.103000000000
15.367531606000,-0.088000000000
15.375219215000,-0.076000000000
15.382906824000,-0.091000000000
15.390594433000,-0.118000000000
15.398282042000,-0.115000000000
15.405969651000,-0.105000000000
15.413657260000,-0.105000000000
15.421344869000,-0.100000000000
15.429032478000,-0.091000000000
15.436720087000,-0.105000000000
15.444407696000,-0.142000000000
15.452095305000,-0.219000000000
15.459782914000,-0.263000000000
15.467470523000,0.014000000000
15.475158132000,0.748000000000
15.482845741000,1.580000000000
15.490533350000,1.774000000000
15.498220959000,0.785000000000
15.505908568000,-0.445000000000
15.513596177000,-0.519000000000
15.521283786000,-0.103000000000
15.528971395000,-0.182000000000
15.536659004000,-0.283000000000
15.544346613000,-0.169000000000
15.552034222000,-0.152000000000
15.559721831000,-0.177000000000
15.567409440000,-0.128000000000
15.575097049000,-0.100000000000
15.582784703000,-0.103000000000
15.590472312000,-0.078000000000
15.598159921000,-0.051000000000
15.605847530000,-0.041000000000
15.613535139000,-0.027000000000
15.621222748000,-0.002000000000
15.628910357000,0.017000000000
15.636597966000,0.044000000000
15.644285575000,0.071000000000
15.651973184000,0.096000000000
15.659660793000,0.125000000000
15.667348402000,0.155000000000
15.675036011000,0.174000000000
15.682723620000,0.189000000000
15.690411229000,0.199000000000
15.698098838000,0.184000000000
15.705786447000,0.157000000000
15.713474056000,0.142000000000
15.721161665000,0.123000000000
15.728849274000,0.073000000000
15.736536883000,-0.002000000000
15.744224492000,-0.073000000000
15.751912101000,-0.135000000000
15.759599710000,-0.174000000000
15.767287319000,-0.194000000000
15.774974928000,-0.211000000000
15.782662537000,-0.219000000000
15.790350146000,-0.206000000000
15.798037755000,-0.192000000000
15.805725364000,-0.184000000000
15.813412973000,-0.177000000000
15.821100582000,-0.162000000000
15.828788191000,-0.150000000000
15.836475800000,-0.145000000000
15.844163409000,-0.145000000000
15.851851018000,-0.140000000000
15.859538627000,-0.137000000000
15.867226236000,-0.135000000000
15.874913845000,-0.128000000000
15.882601454000,-0.123000000000
15.890289063000,-0.123000000000
15.897976672000,-0.123000000000
15.905664281000,-0.118000000000
15.913351890000,-0.120000000000
15.921039499000,-0.120000000000
15.928727108000,-0.113000000000
15.936414717000,-0.115000000000
15.944102326000,-0.125000000000
15.951789935000,-0.115000000000
15.959477544000,-0.096000000000
15.967165153000,-0.100000000000
15.974852762000,-0.120000000000
15.982540371000,-0.118000000000
15.990227980000,-0.113000000000
15.997915589000,-0.118000000000
16.005603198000,-0.098000000000
16.013290807000,-0.081000000000
16.020978416000,-0.091000000000
16.028666025000,-0.078000000000
16.036353634000,-0.049000000000
16.044041243000,-0.071000000000
16.051728852000,-0.113000000000
16.059416461000,-0.103000000000
16.067104070000,-0.083000000000
16.074791679000,-0.091000000000
16.082479288000,-0.091000000000
16.090166897000,-0.071000000000
16.097854506000,-0.071000000000
16.105542115000,-0.110000000000
16.113229724000,-0.184000000000
16.120917333000,-0.260000000000
16.128604942000,-0.078000000000
16.136292551000,0.630000000000
16.143980205000,1.528000000000
16.151667744000,1.870000000000
16.159355283000,1.043000000000
16.167042822000,-0.280000000000
16.174730361000,-0.561000000000
16.182417900000,-0.125000000000
16.190105439000,-0.135000000000
16.197792978000,-0.278000000000
16.205480517000,-0.169000000000
16.213168056000,-0.120000000000
16.220855595000,-0.164000000000
16.228543134000,-0.128000000000
16.236230673000,-0.078000000000
16.243918212000,-0.078000000000
16.251605751000,-0.061000000000
16.259293290000,-0.034000000000
16.266980829000,-0.019000000000
16.274668368000,0.007000000000
16.282355907000,0.032000000000
16.290043446000,0.039000000000
16.297730985000,0.059000000000
16.305418524000,0.096000000000
16.313106063000,0.128000000000
16.320793602000,0.152000000000
16.328481141000,0.184000000000
16.336168680000,0.204000000000
16.343856219000,0.196000000000
16.351543758000,0.194000000000
16.359231297000,0.196000000000
16.366918836000,0.182000000000
16.374606375000,0.157000000000
16.382293914000,0.130000000000
16.389981453000,0.078000000000
16.397668992000,0.002000000000
16.405356531000,-0.066000000000
16.413044070000,-0.128000000000
16.420731609000,-0.182000000000
16.428419148000,-0.209000000000
16.436106687000,-0.221000000000
16.443794226000,-0.224000000000
16.451481765000,-0.211000000000
16.459169304000,-0.204000000000
16.466856843000,-0.201000000000
16.474544382000,-0.194000000000
16.482231921000,-0.184000000000
16.489919460000,-0.169000000000
16.497606999000,-0.157000000000
16.505294538000,-0.164000000000
16.512982077000,-0.167000000000
16.520669616000,-0.145000000000
16.528357155000,-0.132000000000
16.536044694000,-0.135000000000
16.543732233000,-0.132000000000
16.551419772000,-0.132000000000
16.559107311000,-0.135000000000
16.566794850000,-0.130000000000
16.574482389000,-0.128000000000
16.582169928000,-0.130000000000
16.589857467000,-0.128000000000
16.597545006000,-0.130000000000
16.605232545000,-0.135000000000
16.612920084000,-0.128000000000
16.620607623000,-0.128000000000
16.628295162000,-0.142000000000
16.635982701000,-0.145000000000
16.643670240000,-0.137000000000
16.651357779000,-0.128000000000
16.659045318000,-0.115000000000
16.666732857000,-0.113000000000
16.674420396000,-0.110000000000
16.682107935000,-0.093000000000
16.689795474000,-0.083000000000
16.697483013000,-0.096000000000
16.705170620000,-0.118000000000
16.712858159000,-0.120000000000
16.720545698000,-0.113000000000
16.728233237000,-0.113000000000
16.735920776000,-0.110000000000
16.743608315000,-0.100000000000
16.751295854000,-0.108000000000
16.758983393000,-0.142000000000
16.766670932000,-0.216000000000
16.774358471000,-0.270000000000
16.782046010000,-0.022000000000
16.789733549000,0.696000000000
16.797421088000,1.513000000000
16.805108627000,1.757000000000
16.812796166000,0.883000000000
16.820483705000,-0.379000000000
16.828171244000,-0.566000000000
16.835858783000,-0.142000000000
16.843546322000,-0.179000000000
16.851233861000,-0.292000000000
16.858921400000,-0.182000000000
16.866608939000,-0.157000000000
16.874296478000,-0.192000000000
16.881984017000,-0.150000000000
16.889671556000,-0.118000000000
16.897359095000,-0.123000000000
16.905046634000,-0.100000000000
16.912734173000,-0.071000000000
16.920421712000,-0.059000000000
16.928109251000,-0.044000000000
16.935796790000,-0.019000000000
16.943484329000,-0.002000000000
16.951171868000,0.022000000000
16.958859407000,0.049000000000
16.966546946000,0.071000000000
16.974234485000,0.088000000000
16.981922024000,0.115000000000
16.989609563000,0.135000000000
16.997297102000,0.145000000000
17.004984641000,0.142000000000
17.012672180000,0.132000000000
17.020359719000,0.115000000000
17.028047258000,0.100000000000
17.035734797000,0.076000000000
17.043422336000,0.032000000000
17.051109875000,-0.036000000000
17.058797414000,-0.105000000000
17.066484953000,-0.157000000000
17.074172492000,-0.194000000000
17.081860031000,-0.219000000000
17.089547570000,-0.228000000000
17.097235109000,-0.224000000000
17.104922648000,-0.221000000000
17.112610187000,-0.216000000000
17.120297726000,-0.201000000000
17.127985265000,-0.192000000000
17.135672804000,-0.184000000000
17.143360343000,-0.174000000000
17.151047882000,-0.164000000000
17.158735421000,-0.160000000000
17.166422960000,-0.157000000000
17.174110499000,-0.147000000000
17.181798038000,-0.140000000000
17.189485577000,-0.137000000000
17.197173116000,-0.137000000000
17.204860655000,-0.137000000000
17.212548194000,-0.135000000000
17.220235733000,-0.132000000000
17.227923272000,-0.130000000000
17.235610811000,-0.132000000000
17.243298350000,-0.135000000000
17.250985889000,-0.132000000000
17.258673428000,-0.128000000000
17.266361035000,-0.123000000000
17.274048783000,-0.120000000000
17.281736531000,-0.120000000000
17.289424279000,-0.120000000000
17.297112027000,-0.123000000000
17.304799775000,-0.128000000000
17.312487523000,-0.132000000000
17.320175271000,-0.128000000000
17.327863019000,-0.118000000000
17.335550767000,-0.105000000000
17.343238515000,-0.103000000000
17.350926263000,-0.098000000000
17.358614011000,-0.083000000000
17.366301759000,-0.078000000000
17.373989507000,-0.093000000000
17.381677255000,-0.110000000000
17.389365003000,-0.115000000000
17.397052751000,-0.105000000000
17.404740499000,-0.100000000000
17.412428247000,-0.093000000000
17.420115995000,-0.091000000000
17.427803743000,-0.105000000000
17.435491491000,-0.142000000000
17.443179239000,-0.226000000000
17.450866987000,-0.233000000000
17.458554735000,0.147000000000
17.466242483000,0.955000000000
17.473930231000,1.715000000000
17.481617979000,1.671000000000
17.489305727000,0.502000000000
17.496993475000,-0.551000000000
17.504681223000,-0.413000000000
17.512368971000,-0.076000000000
17.520056719000,-0.219000000000
17.527744467000,-0.263000000000
17.535432215000,-0.152000000000
17.543119963000,-0.162000000000
17.550807711000,-0.179000000000
17.558495459000,-0.123000000000
17.566183207000,-0.100000000000
17.573870955000,-0.098000000000
17.581558703000,-0.076000000000
17.589246451000,-0.059000000000
17.596934199000,-0.044000000000
17.604621947000,-0.019000000000
17.612309695000,0.002000000000
17.619997443000,0.022000000000
17.627685191000,0.044000000000
17.635372939000,0.066000000000
17.643060687000,0.093000000000
17.650748435000,0.125000000000
17.658436183000,0.147000000000
17.666123931000,0.162000000000
17.673811679000,0.169000000000
17.681499427000,0.169000000000
17.689187175000,0.160000000000
17.696874923000,0.142000000000
17.704562671000,0.128000000000
17.712250419000,0.098000000000
17.719938167000,0.039000000000
17.727625915000,-0.029000000000
17.735313663000,-0.093000000000
17.743001411000,-0.147000000000
17.750689159000,-0.184000000000
17.758376907000,-0.201000000000
17.766064655000,-0.214000000000
17.773752403000,-0.219000000000
17.781440151000,-0.211000000000
17.789127899000,-0.196000000000
17.796815647000,-0.187000000000
17.804503395000,-0.179000000000
17.812191143000,-0.164000000000
17.819878891000,-0.155000000000
17.827566711000,-0.150000000000
17.835254320000,-0.145000000000
17.842941929000,-0.140000000000
17.850629538000,-0.137000000000
17.858317147000,-0.130000000000
17.866004756000,-0.123000000000
17.873692365000,-0.120000000000
17.881379974000,-0.118000000000
17.889067583000,-0.120000000000
17.896755192000,-0.123000000000
17.904442801000,-0.120000000000
17.912130410000,-0.113000000000
17.919818019000,-0.115000000000
17.927505628000,-0.115000000000
17.935193237000,-0.113000000000
17.942880846000,-0.110000000000
17.950568455000,-0.110000000000
17.958256064000,-0.105000000000
17.965943673000,-0.103000000000
17.973631282000,-0.118000000000
17.981318891000,-0.123000000000
17.989006500000,-0.113000000000
17.996694109000,-0.096000000000
18.004381718000,-0.081000000000
18.012069327000,-0.083000000000
18.019756936000,-0.083000000000
18.027444545000,-0.073000000000
18.035132154000,-0.066000000000
18.042819763000,-0.081000000000
18.050507372000,-0.100000000000
18.058194981000,-0.098000000000
18.065882590000,-0.083000000000
18.073570199000,-0.078000000000
18.081257808000,-0.081000000000
18.088945417000,-0.076000000000
18.096633026000,-0.083000000000
18.104320635000,-0.132000000000
18.112008244000,-0.221000000000
18.119695853000,-0.209000000000
18.127383462000,0.211000000000
18.135071071000,1.046000000000
18.142758680000,1.777000000000
18.150446289000,1.634000000000
18.158133898000,0.403000000000
18.165821507000,-0.568000000000
18.173509116000,-0.364000000000
18.181196725000,-0.064000000000
18.188884334000,-0.221000000000
18.196571943000,-0.243000000000
18.204259552000,-0.130000000000
18.211947161000,-0.150000000000
18.219634770000,-0.160000000000
18.227322379000,-0.103000000000
18.235009988000,-0.088000000000
18.242697597000,-0.088000000000
18.250385206000,-0.061000000000
18.258072815000,-0.039000000000
18.265760424000,-0.024000000000
18.273448033000,-0.002000000000
18.281135642000,0.019000000000
18.288823251000,0.039000000000
18.296510860000,0.061000000000
18.304198469000,0.086000000000
18.311886078000,0.113000000000
18.319573687000,0.137000000000
18.327261296000,0.162000000000
18.334948905000,0.182000000000
18.342636514000,0.194000000000
18.350324123000,0.187000000000
18.358011732000,0.169000000000
18.365699341000,0.160000000000
18.373386950000,0.142000000000
18.381074559000,0.105000000000
18.388762213000,0.044000000000
18.396449822000,-0.027000000000
18.404137431000,-0.093000000000
18.411825040000,-0.147000000000
18.419512649000,-0.179000000000
18.427200258000,-0.201000000000
18.434887867000,-0.209000000000
18.442575476000,-0.206000000000
18.450263085000,-0.196000000000
18.457950694000,-0.189000000000
18.465638303000,-0.182000000000
18.473325912000,-0.177000000000
18.481013521000,-0.167000000000
18.488701130000,-0.152000000000
18.496388739000,-0.142000000000
18.504076348000,-0.137000000000
18.511763957000,-0.125000000000
18.519451566000,-0.120000000000
18.527139175000,-0.123000000000
18.534826784000,-0.120000000000
18.542514393000,-0.113000000000
18.550202002000,-0.120000000000
18.557889611000,-0.128000000000
18.565577220000,-0.113000000000
18.573264829000,-0.103000000000
18.580952438000,-0.108000000000
18.588640047000,-0.108000000000
18.596327656000,-0.105000000000
18.604015265000,-0.105000000000
18.611702874000,-0.103000000000
18.619390483000,-0.098000000000
18.627078092000,-0.096000000000
18.634765701000,-0.091000000000
18.642453310000,-0.098000000000
18.650140919000,-0.105000000000
18.657828528000,-0.100000000000
18.665516137000,-0.091000000000
18.673203746000,-0.078000000000
18.680891355000,-0.064000000000
18.688578964000,-0.061000000000
18.696266573000,-0.071000000000
18.703954182000,-0.066000000000
18.711641791000,-0.054000000000
18.719329400000,-0.066000000000
18.727017009000,-0.086000000000
18.734704618000,-0.076000000000
18.742392227000,-0.064000000000
18.750079836000,-0.066000000000
18.757767445000,-0.068000000000
18.765455054000,-0.066000000000
18.773142663000,-0.081000000000
18.780830272000,-0.140000000000
18.788517881000,-0.228000000000
18.796205490000,-0.137000000000
18.803893099000,0.440000000000
18.811580708000,1.329000000000
18.819268317000,1.875000000000
18.826955926000,1.346000000000
18.834643535000,0.007000000000
18.842331144000,-0.580000000000
18.850018753000,-0.199000000000
18.857706362000,-0.078000000000
18.865393971000,-0.246000000000
18.873081580000,-0.187000000000
18.880769189000,-0.113000000000
18.888456798000,-0.147000000000
18.896144407000,-0.130000000000
18.903832016000,-0.086000000000
18.911519625000,-0.076000000000
18.919207234000,-0.059000000000
18.926894843000,-0.036000000000
18.934582452000,-0.024000000000
18.942270061000,-0.009000000000
18.949957715000,0.019000000000
18.957645324000,0.046000000000
18.965332933000,0.068000000000
18.973020542000,0.086000000000
18.980708151000,0.110000000000
18.988395760000,0.150000000000
18.996083369000,0.179000000000
19.003770978000,0.189000000000
19.011458587000,0.199000000000
19.019146196000,0.211000000000
19.026833805000,0.209000000000
19.034521414000,0.199000000000
19.042209023000,0.177000000000
19.049896632000,0.147000000000
19.057584241000,0.108000000000
19.065271850000,0.046000000000
19.072959459000,-0.036000000000
19.080647068000,-0.108000000000
19.088334677000,-0.147000000000
19.096022286000,-0.172000000000
19.103709895000,-0.196000000000
19.111397504000,-0.209000000000
19.119085113000,-0.199000000000
19.126772722000,-0.192000000000
19.134460331000,-0.187000000000
19.142147940000,-0.169000000000
19.149835549000,-0.157000000000
19.157523158000,-0.155000000000
19.165210767000,-0.147000000000
19.172898376000,-0.132000000000
19.180585985000,-0.125000000000
19.188273594000,-0.120000000000
19.195961203000,-0.103000000000
19.203648812000,-0.103000000000
19.211336421000,-0.115000000000
19.219024030000,-0.100000000000
19.226711639000,-0.086000000000
19.234399248000,-0.108000000000
19.242086857000,-0.115000000000
19.249774466000,-0.091000000000
19.257462075000,-0.086000000000
19.265149684000,-0.103000000000
19.272837293000,-0.103000000000
19.280524902000,-0.093000000000
19.288212511000,-0.093000000000
19.295900120000,-0.098000000000
19.303587729000,-0.091000000000
19.311275338000,-0.078000000000
19.318962947000,-0.091000000000
19.326650556000,-0.118000000000
19.334338165000,-0.108000000000
19.342025774000,-0.076000000000
19.349713383000,-0.071000000000
19.357400992000,-0.078000000000
19.365088601000,-0.071000000000
19.372776210000,-0.056000000000
19.380463819000,-0.064000000000
19.388151428000,-0.081000000000
19.395839037000,-0.088000000000
19.403526646000,-0.091000000000
19.411214255000,-0.093000000000
19.418901864000,-0.081000000000
19.426589473000,-0.066000000000
19.434277082000,-0.068000000000
19.441964691000,-0.096000000000
19.449652300000,-0.162000000000
19.457339909000,-0.251000000000
19.465027518000,-0.147000000000
19.472715127000,0.445000000000
19.480402736000,1.336000000000
19.488090345000,1.870000000000
19.495777954000,1.339000000000
19.503465563000,-0.012000000000
19.511153213000,-0.603000000000
19.518840752000,-0.224000000000
19.526528291000,-0.118000000000
19.534215830000,-0.275000000000
19.541903369000,-0.199000000000
19.549590908000,-0.142000000000
19.557278447000,-0.184000000000
19.564965986000,-0.147000000000
19.572653525000,-0.098000000000
19.580341064000,-0.108000000000
19.588028603000,-0.096000000000
19.595716142000,-0.066000000000
19.603403681000,-0.056000000000
19.611091220000,-0.041000000000
19.618778759000,-0.007000000000
19.626466298000,0.014000000000
19.634153837000,0.024000000000
19.641841376000,0.051000000000
19.649528915000,0.081000000000
19.657216454000,0.100000000000
19.664903993000,0.130000000000
19.672591532000,0.157000000000
19.680279071000,0.162000000000
19.687966610000,0.157000000000
19.695654149000,0.157000000000
19.703341688000,0.142000000000
19.711029227000,0.118000000000
19.718716766000,0.091000000000
19.726404305000,0.051000000000
19.734091844000,-0.009000000000
19.741779383000,-0.076000000000
19.749466922000,-0.132000000000
19.757154461000,-0.179000000000
19.764842000000,-0.211000000000
19.772529539000,-0.226000000000
19.780217078000,-0.226000000000
19.787904617000,-0.226000000000
19.795592156000,-0.219000000000
19.803279695000,-0.206000000000
19.810967234000,-0.196000000000
19.818654773000,-0.192000000000
19.826342312000,-0.179000000000
19.834029851000,-0.164000000000
19.841717390000,-0.155000000000
19.849404929000,-0.152000000000
19.857092468000,-0.147000000000
19.864780007000,-0.137000000000
19.872467546000,-0.130000000000
19.880155085000,-0.132000000000
19.887842624000,-0.132000000000
19.895530163000,-0.128000000000
19.903217702000,-0.125000000000
19.910905241000,-0.125000000000
19.918592780000,-0.123000000000
19.926280319000,-0.123000000000
19.933967858000,-0.125000000000
19.941655397000,-0.120000000000
19.949342936000,-0.115000000000
19.957030475000,-0.120000000000
19.964718014000,-0.128000000000
19.972405553000,-0.118000000000
19.980093092000,-0.118000000000
19.987780631000,-0.128000000000
19.995468170000,-0.130000000000
20.003155709000,-0.123000000000
20.010843248000,-0.115000000000
20.018530787000,-0.110000000000
20.026218326000,-0.105000000000
20.033905865000,-0.096000000000
20.041593404000,-0.086000000000
20.049280943000,-0.081000000000
20.056968482000,-0.093000000000
20.064656021000,-0.115000000000
20.072343632000,-0.115000000000
20.080031171000,-0.103000000000
20.087718710000,-0.100000000000
20.095406249000,-0.100000000000
20.103093788000,-0.096000000000
20.110781327000,-0.105000000000
20.118468866000,-0.145000000000
20.126156405000,-0.228000000000
20.133843944000,-0.253000000000
20.141531483000,0.088000000000
20.149219022000,0.881000000000
20.156906561000,1.688000000000
20.164594100000,1.752000000000
20.172281639000,0.649000000000
20.179969178000,-0.507000000000
20.187656717000,-0.470000000000
20.195344256000,-0.098000000000
20.203031795000,-0.219000000000
20.210719334000,-0.290000000000
20.218406873000,-0.167000000000
20.226094412000,-0.167000000000
20.233781951000,-0.194000000000
20.241469490000,-0.142000000000
20.249157029000,-0.115000000000
20.256844568000,-0.118000000000
20.264532107000,-0.098000000000
20.272219646000,-0.068000000000
20.279907185000,-0.051000000000
20.287594724000,-0.036000000000
20.295282263000,-0.017000000000
20.302969802000,0.007000000000
20.310657341000,0.032000000000
20.318344880000,0.054000000000
20.326032419000,0.081000000000
20.333719958000,0.110000000000
20.341407497000,0.137000000000
20.349095036000,0.157000000000
20.356782575000,0.164000000000
20.364470114000,0.162000000000
20.372157653000,0.152000000000
20.379845192000,0.142000000000
20.387532731000,0.128000000000
20.395220270000,0.091000000000
20.402907809000,0.034000000000
20.410595348000,-0.034000000000
20.418282887000,-0.100000000000
20.425970426000,-0.155000000000
20.433657965000,-0.194000000000
20.441345504000,-0.219000000000
20.449033043000,-0.228000000000
20.456720582000,-0.231000000000
20.464408121000,-0.224000000000
20.472095660000,-0.211000000000
20.479783199000,-0.196000000000
20.487470738000,-0.187000000000
20.495158277000,-0.182000000000
20.502845816000,-0.177000000000
20.510533355000,-0.162000000000
20.518220894000,-0.152000000000
20.525908433000,-0.147000000000
20.533595972000,-0.145000000000
20.541283511000,-0.142000000000
20.548971050000,-0.137000000000
20.556658589000,-0.132000000000
20.564346128000,-0.132000000000
20.572033667000,-0.137000000000
20.579721206000,-0.137000000000
20.587408745000,-0.132000000000
20.595096284000,-0.130000000000
20.602783823000,-0.130000000000
20.610471362000,-0.128000000000
20.618158901000,-0.128000000000
20.625846440000,-0.125000000000
20.633534047000,-0.123000000000
20.641221795000,-0.120000000000
20.648909543000,-0.118000000000
20.656597291000,-0.118000000000
20.664285039000,-0.125000000000
20.671972787000,-0.132000000000
20.679660535000,-0.128000000000
20.687348283000,-0.113000000000
20.695036031000,-0.098000000000
20.702723779000,-0.096000000000
20.710411527000,-0.096000000000
20.718099275000,-0.083000000000
20.725787023000,-0.076000000000
20.733474771000,-0.093000000000
20.741162519000,-0.110000000000
20.748850267000,-0.105000000000
20.756538015000,-0.100000000000
20.764225763000,-0.100000000000
20.771913511000,-0.093000000000
20.779601259000,-0.088000000000
20.787289007000,-0.105000000000
20.794976755000,-0.152000000000
20.802664503000,-0.243000000000
20.810352251000,-0.233000000000
20.818039999000,0.192000000000
20.825727747000,1.036000000000
20.833415495000,1.782000000000
20.841103243000,1.639000000000
20.848790991000,0.393000000000
20.856478739000,-0.583000000000
20.864166487000,-0.376000000000
20.871854235000,-0.086000000000
20.879541983000,-0.246000000000
20.887229731000,-0.263000000000
20.894917479000,-0.150000000000
20.902605227000,-0.172000000000
20.910292975000,-0.179000000000
20.917980723000,-0.128000000000
20.925668471000,-0.115000000000
20.933356219000,-0.113000000000
20.941043967000,-0.083000000000
20.948731715000,-0.059000000000
20.956419463000,-0.044000000000
20.964107211000,-0.027000000000
20.971794959000,-0.004000000000
20.979482707000,0.017000000000
20.987170455000,0.039000000000
20.994858203000,0.066000000000
21.002545951000,0.096000000000
21.010233699000,0.123000000000
21.017921447000,0.147000000000
21.025609195000,0.167000000000
21.033296943000,0.177000000000
21.040984691000,0.174000000000
21.048672439000,0.162000000000
21.056360187000,0.150000000000
21.064047935000,0.125000000000
21.071735683000,0.086000000000
21.079423431000,0.022000000000
21.087111179000,-0.054000000000
21.094798927000,-0.120000000000
21.102486675000,-0.174000000000
21.110174423000,-0.214000000000
21.117862171000,-0.231000000000
21.125549919000,-0.238000000000
21.133237667000,-0.243000000000
21.140925415000,-0.238000000000
21.148613163000,-0.226000000000
21.156300911000,-0.214000000000
21.163988659000,-0.201000000000
21.171676407000,-0.189000000000
21.179364155000,-0.182000000000
21.187051903000,-0.177000000000
21.194739723000,-0.167000000000
21.202427332000,-0.157000000000
21.210114941000,-0.152000000000
21.217802550000,-0.147000000000
21.225490159000,-0.145000000000
21.233177768000,-0.142000000000
21.240865377000,-0.142000000000
21.248552986000,-0.142000000000
21.256240595000,-0.145000000000
21.263928204000,-0.142000000000
21.271615813000,-0.135000000000
21.279303422000,-0.130000000000
21.286991031000,-0.132000000000
21.294678640000,-0.132000000000
21.302366249000,-0.130000000000
21.310053858000,-0.132000000000
21.317741467000,-0.128000000000
21.325429076000,-0.120000000000
21.333116685000,-0.120000000000
21.340804294000,-0.123000000000
21.348491903000,-0.123000000000
21.356179512000,-0.125000000000
21.363867121000,-0.128000000000
21.371554730000,-0.120000000000
21.379242339000,-0.105000000000
21.386929948000,-0.098000000000
21.394617557000,-0.091000000000
21.402305166000,-0.083000000000
21.409992775000,-0.081000000000
21.417680384000,-0.091000000000
21.425367993000,-0.105000000000
21.433055602000,-0.100000000000
21.440743211000,-0.091000000000
21.448430820000,-0.093000000000
21.456118429000,-0.098000000000
21.463806038000,-0.096000000000
21.471493647000,-0.098000000000
21.479181256000,-0.125000000000
21.486868865000,-0.206000000000
21.494556474000,-0.270000000000
21.502244083000,-0.034000000000
21.509931692000,0.694000000000
21.517619301000,1.573000000000
21.525306910000,1.848000000000
21.532994519000,0.937000000000
21.540682128000,-0.352000000000
21.548369737000,-0.541000000000
21.556057346000,-0.120000000000
21.563744955000,-0.162000000000
21.571432564000,-0.278000000000
21.579120173000,-0.172000000000
21.586807782000,-0.142000000000
21.594495391000,-0.179000000000
21.602183000000,-0.140000000000
21.609870609000,-0.103000000000
21.617558218000,-0.103000000000
21.625245827000,-0.088000000000
21.632933436000,-0.059000000000
21.640621045000,-0.039000000000
21.648308654000,-0.019000000000
21.655996263000,0.004000000000
21.663683872000,0.027000000000
21.671371481000,0.041000000000
21.679059090000,0.066000000000
21.686746699000,0.103000000000
21.694434308000,0.132000000000
21.702121917000,0.162000000000
21.709809526000,0.187000000000
21.717497135000,0.201000000000
21.725184744000,0.201000000000
21.732872353000,0.189000000000
21.740559962000,0.179000000000
21.748247571000,0.162000000000
21.755935225000,0.130000000000
21.763622834000,0.076000000000
21.771310443000,0.000000000000
21.778998052000,-0.076000000000
21.786685661000,-0.140000000000
21.794373270000,-0.189000000000
21.802060879000,-0.204000000000
21.809748488000,-0.209000000000
21.817436097000,-0.231000000000
21.825123706000,-0.248000000000
21.832811315000,-0.231000000000
21.840498924000,-0.209000000000
21.848186533000,-0.194000000000
21.855874142000,-0.184000000000
21.863561751000,-0.177000000000
21.871249360000,-0.164000000000
21.878936969000,-0.155000000000
21.886624578000,-0.147000000000
21.894312187000,-0.150000000000
21.901999796000,-0.145000000000
21.909687405000,-0.135000000000
21.917375014000,-0.132000000000
21.925062623000,-0.130000000000
21.932750232000,-0.120000000000
21.940437841000,-0.120000000000
21.948125450000,-0.128000000000
21.955813059000,-0.120000000000
21.963500668000,-0.110000000000
21.971188277000,-0.125000000000
21.978875886000,-0.128000000000
21.986563495000,-0.113000000000
21.994251104000,-0.108000000000
22.001938713000,-0.113000000000
22.009626322000,-0.120000000000
22.017313931000,-0.120000000000
22.025001540000,-0.118000000000
22.032689149000,-0.113000000000
22.040376758000,-0.115000000000
22.048064367000,-0.108000000000
22.055751976000,-0.086000000000
22.063439585000,-0.088000000000
22.071127194000,-0.100000000000
22.078814803000,-0.086000000000
22.086502412000,-0.071000000000
22.094190021000,-0.081000000000
22.101877630000,-0.098000000000
22.109565239000,-0.098000000000
22.117252848000,-0.093000000000
22.124940457000,-0.098000000000
22.132628066000,-0.103000000000
22.140315675000,-0.098000000000
22.148003284000,-0.091000000000
22.155690893000,-0.115000000000
22.163378502000,-0.192000000000
22.171066111000,-0.263000000000
22.178753720000,-0.078000000000
22.186441329000,0.605000000000
22.194128938000,1.499000000000
22.201816547000,1.885000000000
22.209504156000,1.097000000000
22.217191765000,-0.256000000000
22.224879374000,-0.583000000000
22.232566983000,-0.150000000000
22.240254592000,-0.155000000000
22.247942201000,-0.283000000000
22.255629810000,-0.164000000000
22.263317419000,-0.130000000000
22.271005028000,-0.177000000000
22.278692637000,-0.140000000000
22.286380246000,-0.098000000000
22.294067855000,-0.093000000000
22.301755464000,-0.076000000000
22.309443073000,-0.059000000000
22.317130727000,-0.044000000000
22.324818336000,-0.014000000000
22.332505945000,0.012000000000
22.340193554000,0.027000000000
22.347881163000,0.049000000000
22.355568772000,0.083000000000
22.363256381000,0.113000000000
22.370943990000,0.140000000000
22.378631599000,0.160000000000
22.386319208000,0.172000000000
22.394006817000,0.196000000000
22.401694426000,0.209000000000
22.409382035000,0.189000000000
22.417069644000,0.172000000000
22.424757253000,0.160000000000
22.432444862000,0.118000000000
22.440132471000,0.056000000000
22.447820080000,-0.009000000000
22.455507689000,-0.091000000000
22.463195298000,-0.164000000000
22.470882907000,-0.206000000000
22.478570516000,-0.231000000000
22.486258125000,-0.248000000000
22.493945734000,-0.251000000000
22.501633343000,-0.243000000000
22.509320952000,-0.236000000000
22.517008561000,-0.228000000000
22.524696170000,-0.219000000000
22.532383779000,-0.214000000000
22.540071388000,-0.199000000000
22.547758997000,-0.184000000000
22.555446606000,-0.182000000000
22.563134215000,-0.177000000000
22.570821824000,-0.164000000000
22.578509433000,-0.160000000000
22.586197042000,-0.160000000000
22.593884651000,-0.152000000000
22.601572260000,-0.145000000000
22.609259869000,-0.145000000000
22.616947478000,-0.145000000000
22.624635087000,-0.142000000000
22.632322696000,-0.142000000000
22.640010305000,-0.140000000000
22.647697914000,-0.140000000000
22.655385523000,-0.145000000000
22.663073132000,-0.140000000000
22.670760741000,-0.135000000000
22.678448350000,-0.132000000000
22.686135959000,-0.130000000000
22.693823568000,-0.130000000000
22.701511177000,-0.137000000000
22.709198786000,-0.145000000000
22.716886395000,-0.145000000000
22.724574004000,-0.137000000000
22.732261613000,-0.125000000000
22.739949222000,-0.110000000000
22.747636831000,-0.108000000000
22.755324440000,-0.105000000000
22.763012049000,-0.096000000000
22.770699658000,-0.091000000000
22.778387267000,-0.108000000000
22.786074876000,-0.120000000000
22.793762485000,-0.123000000000
22.801450094000,-0.118000000000
22.809137703000,-0.110000000000
22.816825312000,-0.105000000000
22.824512921000,-0.105000000000
22.832200530000,-0.118000000000
22.839888139000,-0.162000000000
22.847575748000,-0.251000000000
22.855263357000,-0.241000000000
22.862950966000,0.174000000000
22.870638575000,1.006000000000
22.878326229000,1.745000000000
22.886013768000,1.646000000000
22.893701307000,0.445000000000
22.901388846000,-0.590000000000
22.909076385000,-0.428000000000
22.916763924000,-0.098000000000
22.924451463000,-0.251000000000
22.932139002000,-0.285000000000
22.939826541000,-0.167000000000
22.947514080000,-0.182000000000
22.955201619000,-0.199000000000
22.962889158000,-0.147000000000
22.970576697000,-0.130000000000
22.978264236000,-0.128000000000
22.985951775000,-0.100000000000
22.993639314000,-0.078000000000
23.001326853000,-0.068000000000
23.009014392000,-0.049000000000
23.016701931000,-0.022000000000
23.024389470000,0.002000000000
23.032077009000,0.022000000000
23.039764548000,0.044000000000
23.047452087000,0.073000000000
23.055139626000,0.103000000000
23.062827165000,0.125000000000
23.070514704000,0.147000000000
23.078202243000,0.160000000000
23.085889782000,0.152000000000
23.093577321000,0.142000000000
23.101264860000,0.135000000000
23.108952399000,0.115000000000
23.116639938000,0.076000000000
23.124327477000,0.014000000000
23.132015016000,-0.056000000000
23.139702555000,-0.128000000000
23.147390094000,-0.182000000000
23.155077633000,-0.219000000000
23.162765172000,-0.236000000000
23.170452711000,-0.241000000000
23.178140250000,-0.246000000000
23.185827789000,-0.241000000000
23.193515328000,-0.226000000000
23.201202867000,-0.216000000000
23.208890406000,-0.209000000000
23.216577945000,-0.194000000000
23.224265484000,-0.184000000000
23.231953023000,-0.174000000000
23.239640562000,-0.164000000000
23.247328101000,-0.160000000000
23.255015640000,-0.157000000000
23.262703179000,-0.152000000000
23.270390718000,-0.145000000000
23.278078257000,-0.142000000000
23.285765796000,-0.142000000000
23.293453335000,-0.142000000000
23.301140874000,-0.140000000000
23.308828413000,-0.142000000000
23.316515952000,-0.140000000000
23.324203491000,-0.132000000000
23.331891030000,-0.132000000000
23.339578569000,-0.135000000000
23.347266108000,-0.130000000000
23.354953647000,-0.123000000000
23.362641186000,-0.125000000000
23.370328725000,-0.123000000000
23.378016264000,-0.120000000000
23.385703803000,-0.120000000000
23.393391342000,-0.115000000000
23.401078881000,-0.113000000000
23.408766420000,-0.123000000000
23.416453959000,-0.130000000000
23.424141498000,-0.125000000000
23.431829037000,-0.110000000000
23.439516644000,-0.100000000000
23.447204183000,-0.103000000000
23.454891722000,-0.096000000000
23.462579261000,-0.081000000000
23.470266800000,-0.068000000000
23.477954339000,-0.078000000000
23.485641878000,-0.103000000000
23.493329417000,-0.110000000000
23.501016956000,-0.098000000000
23.508704495000,-0.096000000000
23.516392034000,-0.096000000000
23.524079573000,-0.091000000000
23.531767112000,-0.093000000000
23.539454651000,-0.120000000000
23.547142190000,-0.189000000000
23.554829729000,-0.268000000000
23.562517268000,-0.130000000000
23.570204807000,0.489000000000
23.577892346000,1.381000000000
23.585579885000,1.883000000000
23.593267424000,1.260000000000
23.600954963000,-0.113000000000
23.608642502000,-0.612000000000
23.616330041000,-0.199000000000
23.624017580000,-0.120000000000
23.631705119000,-0.290000000000
23.639392658000,-0.214000000000
23.647080197000,-0.145000000000
23.654767736000,-0.184000000000
23.662455275000,-0.160000000000
23.670142814000,-0.115000000000
23.677830353000,-0.113000000000
23.685517892000,-0.100000000000
23.693205431000,-0.071000000000
23.700892970000,-0.056000000000
23.708580509000,-0.039000000000
23.716268048000,-0.014000000000
23.723955587000,0.007000000000
23.731643126000,0.024000000000
23.739330665000,0.046000000000
23.747018204000,0.073000000000
23.754705743000,0.103000000000
23.762393282000,0.135000000000
23.770080821000,0.162000000000
23.777768360000,0.179000000000
23.785455899000,0.184000000000
23.793143438000,0.179000000000
23.800830977000,0.164000000000
23.808518516000,0.150000000000
23.816206055000,0.125000000000
23.823893594000,0.081000000000
23.831581133000,0.014000000000
23.839268672000,-0.061000000000
23.846956211000,-0.135000000000
23.854643750000,-0.182000000000
23.862331289000,-0.209000000000
23.870018828000,-0.233000000000
23.877706367000,-0.241000000000
23.885393906000,-0.233000000000
23.893081445000,-0.224000000000
23.900768984000,-0.221000000000
23.908456523000,-0.214000000000
23.916144062000,-0.196000000000
23.923831601000,-0.184000000000
23.931519140000,-0.177000000000
23.939206679000,-0.164000000000
23.946894218000,-0.157000000000
23.954581757000,-0.152000000000
23.962269296000,-0.150000000000
23.969956835000,-0.145000000000
23.977644374000,-0.140000000000
23.985331913000,-0.135000000000
23.993019452000,-0.135000000000
24.000707059000,-0.135000000000
24.008394598000,-0.130000000000
24.016082137000,-0.128000000000
24.023769676000,-0.130000000000
24.031457215000,-0.132000000000
24.039144754000,-0.123000000000
24.046832293000,-0.115000000000
24.054519832000,-0.120000000000
24.062207371000,-0.123000000000
24.069894910000,-0.118000000000
24.077582449000,-0.115000000000
24.085269988000,-0.105000000000
24.092957527000,-0.096000000000
24.100645066000,-0.100000000000
24.108332605000,-0.113000000000
24.116020144000,-0.118000000000
24.123707683000,-0.123000000000
24.131395222000,-0.132000000000
24.139082761000,-0.125000000000
24.146770300000,-0.093000000000
24.154457839000,-0.081000000000
24.162145378000,-0.093000000000
24.169832917000,-0.086000000000
24.177520456000,-0.068000000000
24.185207995000,-0.066000000000
24.192895534000,-0.086000000000
24.200583073000,-0.100000000000
24.208270612000,-0.096000000000
24.215958151000,-0.093000000000
24.223645690000,-0.086000000000
24.231333229000,-0.078000000000
24.239020768000,-0.083000000000
24.246708307000,-0.100000000000
24.254395846000,-0.135000000000
24.262083385000,-0.221000000000
24.269770924000,-0.251000000000
24.277458463000,0.115000000000
24.285146002000,0.955000000000
24.292833541000,1.765000000000
24.300521080000,1.735000000000
24.308208619000,0.546000000000
24.315896158000,-0.526000000000
24.323583697000,-0.403000000000
24.331271236000,-0.078000000000
24.338958775000,-0.221000000000
24.346646314000,-0.258000000000
24.354333853000,-0.150000000000
24.362021392000,-0.162000000000
24.369708931000,-0.167000000000
24.377396470000,-0.118000000000
24.385084009000,-0.103000000000
24.392771548000,-0.096000000000
24.400459087000,-0.066000000000
24.408146626000,-0.054000000000
24.415834165000,-0.044000000000
24.423521704000,-0.014000000000
24.431209243000,0.012000000000
24.438896782000,0.027000000000
24.446584321000,0.056000000000
24.454271860000,0.086000000000
24.461959399000,0.110000000000
24.469646938000,0.140000000000
24.477334477000,0.172000000000
24.485022016000,0.189000000000
24.492709555000,0.196000000000
24.500397094000,0.201000000000
24.508084633000,0.194000000000
24.515772172000,0.174000000000
24.523459711000,0.157000000000
24.531147250000,0.130000000000
24.538834789000,0.066000000000
24.546522328000,-0.017000000000
24.554209867000,-0.093000000000
24.561897474000,-0.157000000000
24.569585013000,-0.209000000000
24.577272552000,-0.233000000000
24.584960091000,-0.236000000000
24.592647630000,-0.233000000000
24.600335169000,-0.233000000000
24.608022708000,-0.224000000000
24.615710247000,-0.216000000000
24.623397786000,-0.211000000000
24.631085325000,-0.196000000000
24.638772864000,-0.179000000000
24.646460403000,-0.174000000000
24.654147942000,-0.164000000000
24.661835481000,-0.145000000000
24.669523020000,-0.142000000000
24.677210559000,-0.150000000000
24.684898098000,-0.142000000000
24.692585637000,-0.132000000000
24.700273176000,-0.128000000000
24.707960715000,-0.125000000000
24.715648254000,-0.128000000000
24.723335793000,-0.128000000000
24.731023332000,-0.125000000000
24.738710871000,-0.128000000000
24.746398410000,-0.123000000000
24.754085949000,-0.118000000000
24.761773488000,-0.123000000000
24.769461027000,-0.118000000000
24.777148566000,-0.103000000000
24.784836105000,-0.105000000000
24.792523644000,-0.113000000000
24.800211183000,-0.113000000000
24.807898722000,-0.113000000000
24.815586261000,-0.118000000000
24.823273800000,-0.120000000000
24.830961339000,-0.115000000000
24.838648878000,-0.093000000000
24.846336417000,-0.078000000000
24.854023956000,-0.088000000000
24.861711495000,-0.086000000000
24.869399034000,-0.071000000000
24.877086573000,-0.076000000000
24.884774112000,-0.088000000000
24.892461651000,-0.093000000000
24.900149190000,-0.091000000000
24.907836729000,-0.091000000000
24.915524268000,-0.088000000000
24.923211807000,-0.083000000000
24.930899346000,-0.081000000000
24.938586885000,-0.091000000000
24.946274424000,-0.120000000000
24.953961963000,-0.187000000000
24.961649502000,-0.265000000000
24.969337041000,-0.076000000000
24.977024580000,0.632000000000
24.984712119000,1.528000000000
24.992399658000,1.888000000000
25.000087197000,1.078000000000
25.007774736000,-0.273000000000
25.015462275000,-0.580000000000
25.023149814000,-0.142000000000
25.030837353000,-0.147000000000
25.038524892000,-0.275000000000
25.046212431000,-0.164000000000
25.053899970000,-0.132000000000
25.061587509000,-0.177000000000
25.069275048000,-0.145000000000
25.076962587000,-0.113000000000
25.084650126000,-0.103000000000
25.092337665000,-0.076000000000
25.100025204000,-0.049000000000
25.107712743000,-0.027000000000
25.115400282000,-0.017000000000
25.123087889000,-0.009000000000
25.130775428000,0.017000000000
25.138462967000,0.051000000000
25.146150506000,0.088000000000
25.153838045000,0.128000000000
25.161525584000,0.157000000000
25.169213123000,0.169000000000
25.176900662000,0.182000000000
25.184588201000,0.214000000000
25.192275740000,0.226000000000
25.199963279000,0.206000000000
25.207650818000,0.192000000000
25.215338357000,0.182000000000
25.223025896000,0.145000000000
25.230713435000,0.091000000000
25.238400974000,0.009000000000
25.246088513000,-0.086000000000
25.253776052000,-0.150000000000
25.261463591000,-0.194000000000
25.269151130000,-0.233000000000
25.276838669000,-0.248000000000
25.284526208000,-0.253000000000
25.292213747000,-0.246000000000
25.299901286000,-0.228000000000
25.307588825000,-0.216000000000
25.315276364000,-0.214000000000
25.322963903000,-0.209000000000
25.330651442000,-0.189000000000
25.338338981000,-0.179000000000
25.346026520000,-0.182000000000
25.353714059000,-0.167000000000
25.361401598000,-0.147000000000
25.369089137000,-0.142000000000
25.376776676000,-0.145000000000
25.384464215000,-0.145000000000
25.392151754000,-0.137000000000
25.399839293000,-0.132000000000
25.407526832000,-0.137000000000
25.415214371000,-0.130000000000
25.422901910000,-0.120000000000
25.430589449000,-0.128000000000
25.438276988000,-0.135000000000
25.445964527000,-0.128000000000
25.453652066000,-0.130000000000
25.461339605000,-0.125000000000
25.469027144000,-0.120000000000
25.476714683000,-0.125000000000
25.484402222000,-0.123000000000
25.492089761000,-0.118000000000
25.499777300000,-0.120000000000
25.507464839000,-0.130000000000
25.515152378000,-0.137000000000
25.522839917000,-0.123000000000
25.530527456000,-0.105000000000
25.538214995000,-0.103000000000
25.545902534000,-0.105000000000
25.553590073000,-0.093000000000
25.561277612000,-0.078000000000
25.568965151000,-0.081000000000
25.576652690000,-0.105000000000
25.584340229000,-0.115000000000
25.592027768000,-0.108000000000
25.599715307000,-0.108000000000
25.607402846000,-0.110000000000
25.615090385000,-0.103000000000
25.622777924000,-0.096000000000
25.630465463000,-0.108000000000
25.638153002000,-0.135000000000
25.645840541000,-0.204000000000
25.653528080000,-0.288000000000
25.661215619000,-0.113000000000
25.668903158000,0.566000000000
25.676590697000,1.449000000000
25.684278304000,1.875000000000
25.691965843000,1.191000000000
25.699653382000,-0.172000000000
25.707340921000,-0.617000000000
25.715028460000,-0.199000000000
25.722715999000,-0.157000000000
25.730403538000,-0.302000000000
25.738091077000,-0.201000000000
25.745778616000,-0.155000000000
25.753466155000,-0.194000000000
25.761153694000,-0.164000000000
25.768841233000,-0.128000000000
25.776528772000,-0.128000000000
25.784216311000,-0.108000000000
25.791903850000,-0.078000000000
25.799591389000,-0.064000000000
25.807278928000,-0.051000000000
25.814966467000,-0.024000000000
25.822654006000,0.007000000000
25.830341545000,0.024000000000
25.838029084000,0.041000000000
25.845716623000,0.076000000000
25.853404162000,0.110000000000
25.861091701000,0.132000000000
25.868779240000,0.150000000000
25.876466779000,0.169000000000
25.884154318000,0.179000000000
25.891841857000,0.177000000000
25.899529396000,0.160000000000
25.907216935000,0.135000000000
25.914904474000,0.103000000000
25.922592013000,0.059000000000
25.930279552000,-0.004000000000
25.937967091000,-0.086000000000
25.945654630000,-0.157000000000
25.953342169000,-0.204000000000
25.961029708000,-0.233000000000
25.968717247000,-0.248000000000
25.976404786000,-0.251000000000
25.984092325000,-0.248000000000
25.991779864000,-0.243000000000
25.999467403000,-0.233000000000
26.007154942000,-0.224000000000
26.014842481000,-0.206000000000
26.022530020000,-0.192000000000
26.030217559000,-0.189000000000
26.037905098000,-0.182000000000
26.045592637000,-0.167000000000
26.053280176000,-0.155000000000
26.060967715000,-0.150000000000
26.068655254000,-0.145000000000
26.076342793000,-0.150000000000
26.084030332000,-0.145000000000
26.091717871000,-0.132000000000
26.099405410000,-0.135000000000
26.107092949000,-0.135000000000
26.114780488000,-0.135000000000
26.122468027000,-0.145000000000
26.130155566000,-0.137000000000
26.137843105000,-0.130000000000
26.145530644000,-0.140000000000
26.153218183000,-0.135000000000
26.160905722000,-0.128000000000
26.168593261000,-0.135000000000
26.176280800000,-0.135000000000
26.183968339000,-0.125000000000
26.191655878000,-0.118000000000
26.199343417000,-0.118000000000
26.207030956000,-0.125000000000
26.214718495000,-0.123000000000
26.222406034000,-0.115000000000
26.230093573000,-0.120000000000
26.237781112000,-0.128000000000
26.245468719000,-0.125000000000
26.253156328000,-0.110000000000
26.260843937000,-0.096000000000
26.268531546000,-0.098000000000
26.276219155000,-0.096000000000
26.283906764000,-0.081000000000
26.291594373000,-0.086000000000
26.299281982000,-0.113000000000
26.306969591000,-0.120000000000
26.314657200000,-0.108000000000
26.322344809000,-0.103000000000
26.330032418000,-0.103000000000
26.337720027000,-0.093000000000
26.345407636000,-0.096000000000
26.353095245000,-0.118000000000
26.360782854000,-0.182000000000
26.368470463000,-0.283000000000
26.376158072000,-0.184000000000
26.383845681000,0.396000000000
26.391533290000,1.297000000000
26.399220899000,1.910000000000
26.406908508000,1.459000000000
26.414596117000,0.071000000000
26.422283726000,-0.640000000000
26.429971335000,-0.273000000000
26.437658944000,-0.113000000000
26.445346553000,-0.297000000000
26.453034162000,-0.243000000000
26.460721771000,-0.150000000000
26.468409380000,-0.192000000000
26.476096989000,-0.187000000000
26.483784598000,-0.132000000000
26.491472207000,-0.123000000000
26.499159816000,-0.115000000000
26.506847425000,-0.088000000000
26.514535034000,-0.071000000000
26.522222643000,-0.054000000000
26.529910252000,-0.029000000000
26.537597861000,-0.012000000000
26.545285470000,0.004000000000
26.552973079000,0.036000000000
26.560660688000,0.071000000000
26.568348297000,0.096000000000
26.576035906000,0.120000000000
26.583723515000,0.145000000000
26.591411124000,0.164000000000
26.599098733000,0.174000000000
26.606786342000,0.174000000000
26.614473951000,0.160000000000
26.622161560000,0.137000000000
26.629849169000,0.118000000000
26.637536778000,0.083000000000
26.645224387000,0.019000000000
26.652911996000,-0.059000000000
26.660599605000,-0.132000000000
26.668287214000,-0.189000000000
26.675974823000,-0.224000000000
26.683662432000,-0.243000000000
26.691350041000,-0.248000000000
26.699037650000,-0.246000000000
26.706725259000,-0.236000000000
26.714412868000,-0.221000000000
26.722100477000,-0.214000000000
26.729788086000,-0.211000000000
26.737475695000,-0.199000000000
26.745163304000,-0.182000000000
26.752850913000,-0.172000000000
26.760538522000,-0.167000000000
26.768226131000,-0.162000000000
26.775913740000,-0.157000000000
26.783601349000,-0.147000000000
26.791288958000,-0.140000000000
26.798976567000,-0.140000000000
26.806664225000,-0.137000000000
26.814352113000,-0.137000000000
26.822040001000,-0.137000000000
26.829727889000,-0.135000000000
26.837415777000,-0.130000000000
26.845103665000,-0.130000000000
26.852791553000,-0.128000000000
26.860479441000,-0.125000000000
26.868167329000,-0.125000000000
26.875855217000,-0.128000000000
26.883543105000,-0.123000000000
26.891230993000,-0.118000000000
26.898918881000,-0.123000000000
26.906606769000,-0.123000000000
26.914294657000,-0.115000000000
26.921982545000,-0.108000000000
26.929670433000,-0.105000000000
26.937358321000,-0.105000000000
26.945046209000,-0.113000000000
26.952734097000,-0.120000000000
26.960421985000,-0.120000000000
26.968109873000,-0.118000000000
26.975797761000,-0.105000000000
26.983485649000,-0.088000000000
26.991173537000,-0.088000000000
26.998861425000,-0.088000000000
27.006549313000,-0.076000000000
27.014237201000,-0.071000000000
27.021925089000,-0.088000000000
27.029612977000,-0.105000000000
27.037300865000,-0.105000000000
27.044988753000,-0.096000000000
27.052676641000,-0.091000000000
27.060364529000,-0.088000000000
27.068052417000,-0.086000000000
27.075740305000,-0.093000000000
27.083428193000,-0.115000000000
27.091116081000,-0.184000000000
27.098803969000,-0.268000000000
27.106491857000,-0.105000000000
27.114179745000,0.551000000000
27.121867633000,1.440000000000
27.129555521000,1.902000000000
27.137243409000,1.235000000000
27.144931297000,-0.142000000000
27.152619185000,-0.612000000000
27.160307073000,-0.189000000000
27.167994961000,-0.125000000000
27.175682849000,-0.300000000000
27.183370737000,-0.221000000000
27.191058625000,-0.152000000000
27.198746513000,-0.194000000000
27.206434401000,-0.167000000000
27.214122289000,-0.120000000000
27.221810177000,-0.120000000000
27.229498065000,-0.108000000000
27.237185953000,-0.078000000000
27.244873841000,-0.064000000000
27.252561729000,-0.051000000000
27.260249617000,-0.022000000000
27.267937505000,0.004000000000
27.275625393000,0.022000000000
27.283313281000,0.041000000000
27.291001169000,0.073000000000
27.298689057000,0.108000000000
27.306376945000,0.140000000000
27.314064833000,0.167000000000
27.321752721000,0.187000000000
27.329440609000,0.194000000000
27.337128497000,0.192000000000
27.344816385000,0.182000000000
27.352504273000,0.167000000000
27.360192161000,0.142000000000
27.367880071000,0.093000000000
27.375567401000,0.019000000000
27.383254731000,-0.059000000000
27.390942061000,-0.130000000000
27.398629391000,-0.187000000000
27.406316721000,-0.224000000000
27.414004051000,-0.243000000000
27.421691381000,-0.246000000000
27.429378711000,-0.243000000000
27.437066041000,-0.233000000000
27.444753371000,-0.224000000000
27.452440701000,-0.214000000000
27.460128031000,-0.204000000000
27.467815361000,-0.192000000000
27.475502691000,-0.182000000000
27.483190021000,-0.174000000000
27.490877351000,-0.164000000000
27.498564681000,-0.157000000000
27.506252011000,-0.157000000000
27.513939341000,-0.152000000000
27.521626671000,-0.147000000000
27.529314001000,-0.145000000000
27.537001331000,-0.140000000000
27.544688661000,-0.135000000000
27.552375991000,-0.132000000000
27.560063321000,-0.132000000000
27.567750651000,-0.132000000000
27.575437981000,-0.132000000000
27.583125311000,-0.128000000000
27.590812641000,-0.120000000000
27.598499971000,-0.118000000000
27.606187301000,-0.123000000000
27.613874631000,-0.120000000000
27.621561961000,-0.115000000000
27.629249291000,-0.115000000000
27.636936621000,-0.115000000000
27.644623951000,-0.110000000000
27.652311281000,-0.108000000000
27.659998611000,-0.108000000000
27.667685941000,-0.105000000000
27.675373271000,-0.108000000000
27.683060601000,-0.118000000000
27.690747931000,-0.118000000000
27.698435261000,-0.103000000000
27.706122591000,-0.088000000000
27.713809921000,-0.093000000000
27.721497251000,-0.093000000000
27.729184581000,-0.071000000000
27.736871911000,-0.061000000000
27.744559241000,-0.078000000000
27.752246571000,-0.103000000000
27.759933901000,-0.103000000000
27.767621231000,-0.091000000000
27.775308561000,-0.083000000000
27.782995891000,-0.088000000000
27.790683221000,-0.088000000000
27.798370551000,-0.086000000000
27.806057881000,-0.103000000000
27.813745211000,-0.162000000000
27.821432541000,-0.251000000000
27.829119871000,-0.192000000000
27.836807201000,0.307000000000
27.844494531000,1.169000000000
27.852181861000,1.851000000000
27.859869191000,1.573000000000
27.867556521000,0.253000000000
27.875243851000,-0.610000000000
27.882931181000,-0.315000000000
27.890618511000,-0.068000000000
27.898305841000,-0.253000000000
27.905993171000,-0.248000000000
27.913680501000,-0.137000000000
27.921367831000,-0.160000000000
27.929055229000,-0.157000000000
27.936742838000,-0.110000000000
27.944430447000,-0.110000000000
27.952118056000,-0.108000000000
27.959805665000,-0.071000000000
27.967493274000,-0.041000000000
27.975180883000,-0.022000000000
27.982868492000,-0.004000000000
27.990556101000,0.009000000000
27.998243710000,0.029000000000
28.005931319000,0.064000000000
28.013618928000,0.100000000000
28.021306537000,0.125000000000
28.028994146000,0.152000000000
28.036681755000,0.184000000000
28.044369364000,0.211000000000
28.052056973000,0.224000000000
28.059744582000,0.228000000000
28.067432191000,0.231000000000
28.075119800000,0.214000000000
28.082807409000,0.177000000000
28.090495018000,0.132000000000
28.098182627000,0.076000000000
28.105870236000,-0.009000000000
28.113557845000,-0.103000000000
28.121245454000,-0.172000000000
28.128933063000,-0.206000000000
28.136620672000,-0.221000000000
28.144308281000,-0.233000000000
28.151995890000,-0.236000000000
28.159683499000,-0.226000000000
28.167371108000,-0.214000000000
28.175058717000,-0.214000000000
28.182746326000,-0.201000000000
28.190433935000,-0.177000000000
28.198121544000,-0.164000000000
28.205809153000,-0.169000000000
28.213496762000,-0.162000000000
28.221184371000,-0.140000000000
28.228871980000,-0.137000000000
28.236559589000,-0.140000000000
28.244247198000,-0.135000000000
28.251934807000,-0.128000000000
28.259622416000,-0.115000000000
28.267310025000,-0.120000000000
28.274997634000,-0.130000000000
28.282685243000,-0.115000000000
28.290372852000,-0.108000000000
28.298060461000,-0.123000000000
28.305748070000,-0.125000000000
28.313435679000,-0.113000000000
28.321123288000,-0.098000000000
28.328810897000,-0.103000000000
28.336498506000,-0.110000000000
28.344186115000,-0.103000000000
28.351873724000,-0.098000000000
28.359561333000,-0.103000000000
28.367248942000,-0.093000000000
28.374936551000,-0.088000000000
28.382624160000,-0.093000000000
28.390311769000,-0.098000000000
28.397999378000,-0.088000000000
28.405686987000,-0.086000000000
28.413374596000,-0.100000000000
28.421062205000,-0.103000000000
28.428749814000,-0.091000000000
28.436437423000,-0.078000000000
28.444125032000,-0.066000000000
28.451812641000,-0.051000000000
28.459500250000,-0.049000000000
28.467187859000,-0.054000000000
28.474875468000,-0.073000000000
28.482563077000,-0.091000000000
28.490250731000,-0.088000000000
28.497938340000,-0.086000000000
28.505625949000,-0.083000000000
28.513313558000,-0.066000000000
28.521001167000,-0.066000000000
28.528688776000,-0.078000000000
28.536376385000,-0.098000000000
28.544063994000,-0.169000000000
28.551751603000,-0.263000000000
28.559439212000,-0.115000000000
28.567126821000,0.558000000000
28.574814430000,1.491000000000
28.582502039000,1.952000000000
28.590189648000,1.245000000000
28.597877257000,-0.142000000000
28.605564866000,-0.595000000000
28.613252475000,-0.172000000000
28.620940084000,-0.120000000000
28.628627693000,-0.278000000000
28.636315302000,-0.182000000000
28.644002911000,-0.125000000000
28.651690520000,-0.177000000000
28.659378129000,-0.142000000000
28.667065738000,-0.096000000000
28.674753347000,-0.098000000000
28.682440956000,-0.064000000000
28.690128565000,-0.024000000000
28.697816174000,-0.032000000000
28.705503783000,-0.029000000000
28.713191392000,0.009000000000
28.720879001000,0.049000000000
28.728566610000,0.071000000000
28.736254219000,0.096000000000
28.743941828000,0.132000000000
28.751629437000,0.162000000000
28.759317046000,0.189000000000
28.767004655000,0.226000000000
28.774692264000,0.246000000000
28.782379873000,0.243000000000
28.790067482000,0.256000000000
28.797755091000,0.256000000000
28.805442700000,0.209000000000
28.813130309000,0.167000000000
28.820817918000,0.137000000000
28.828505527000,0.061000000000
28.836193136000,-0.046000000000
28.843880745000,-0.125000000000
28.851568354000,-0.174000000000
28.859255963000,-0.214000000000
28.866943572000,-0.228000000000
28.874631181000,-0.228000000000
28.882318790000,-0.226000000000
28.890006399000,-0.224000000000
28.897694008000,-0.238000000000
28.905381617000,-0.224000000000
28.913069226000,-0.174000000000
28.920756835000,-0.164000000000
28.928444444000,-0.182000000000
28.936132053000,-0.160000000000
28.943819662000,-0.140000000000
28.951507271000,-0.150000000000
28.959194880000,-0.142000000000
28.966882489000,-0.130000000000
28.974570098000,-0.118000000000
28.982257707000,-0.105000000000
28.989945316000,-0.115000000000
28.997632925000,-0.115000000000
29.005320534000,-0.115000000000
29.013008143000,-0.128000000000
29.020695752000,-0.103000000000
29.028383361000,-0.088000000000
29.036070970000,-0.113000000000
29.043758579000,-0.118000000000
29.051446233000,-0.096000000000
29.059133842000,-0.100000000000
29.066821451000,-0.123000000000
29.074509060000,-0.108000000000
29.082196669000,-0.088000000000
29.089884278000,-0.103000000000
29.097571887000,-0.105000000000
29.105259496000,-0.098000000000
29.112947105000,-0.100000000000
29.120634714000,-0.105000000000
29.128322323000,-0.108000000000
29.136009932000,-0.096000000000
29.143697541000,-0.081000000000
29.151385150000,-0.056000000000
29.159072759000,-0.054000000000
29.166760368000,-0.078000000000
29.174447977000,-0.081000000000
29.182135586000,-0.083000000000
29.189823195000,-0.100000000000
29.197510804000,-0.096000000000
29.205198413000,-0.093000000000
29.212886022000,-0.088000000000
29.220573631000,-0.073000000000
29.228261240000,-0.076000000000
29.235948849000,-0.098000000000
29.243636458000,-0.147000000000
29.251324067000,-0.246000000000
29.259011676000,-0.253000000000
29.266699285000,0.174000000000
29.274386894000,1.061000000000
29.282074503000,1.831000000000
29.289762112000,1.735000000000
29.297449721000,0.524000000000
29.305137330000,-0.556000000000
29.312824939000,-0.420000000000
29.320512548000,-0.093000000000
29.328200157000,-0.241000000000
