time,LSB
0.000000000000,0.053000000000
0.007686216000,0.090000000000
0.015372432000,0.122000000000
0.023058648000,0.151000000000
0.030744864000,0.171000000000
0.038431080000,0.178000000000
0.046117296000,0.178000000000
0.053803512000,0.166000000000
0.061489728000,0.149000000000
0.069175944000,0.127000000000
0.076862160000,0.088000000000
0.084548376000,0.029000000000
0.092234592000,-0.048000000000
0.099920808000,-0.137000000000
0.107607024000,-0.222000000000
0.115293240000,-0.296000000000
0.122979456000,-0.352000000000
0.130665672000,-0.382000000000
0.138351888000,-0.396000000000
0.146038104000,-0.396000000000
0.153724320000,-0.391000000000
0.161410536000,-0.377000000000
0.169096752000,-0.364000000000
0.176782968000,-0.352000000000
0.184469184000,-0.338000000000
0.192155400000,-0.325000000000
0.199841616000,-0.318000000000
0.207527832000,-0.311000000000
0.215214048000,-0.306000000000
0.222900264000,-0.303000000000
0.230586480000,-0.298000000000
0.238272696000,-0.296000000000
0.245958912000,-0.293000000000
0.253645128000,-0.291000000000
0.261331344000,-0.289000000000
0.269017560000,-0.291000000000
0.276703776000,-0.289000000000
0.284390002000,-0.284000000000
0.292075939000,-0.281000000000
0.299761876000,-0.279000000000
0.307447813000,-0.276000000000
0.315133750000,-0.271000000000
0.322819687000,-0.271000000000
0.330505624000,-0.267000000000
0.338191561000,-0.259000000000
0.345877498000,-0.254000000000
0.353563435000,-0.254000000000
0.361249372000,-0.257000000000
0.368935309000,-0.252000000000
0.376621246000,-0.235000000000
0.384307183000,-0.205000000000
0.391993120000,-0.186000000000
0.399679057000,-0.183000000000
0.407364994000,-0.183000000000
0.415050931000,-0.183000000000
0.422736868000,-0.208000000000
0.430422805000,-0.240000000000
0.438108742000,-0.240000000000
0.445794679000,-0.227000000000
0.453480616000,-0.225000000000
0.461166553000,-0.222000000000
0.468852490000,-0.215000000000
0.476538427000,-0.210000000000
0.484224364000,-0.213000000000
0.491910301000,-0.232000000000
0.499596238000,-0.286000000000
0.507282175000,-0.360000000000
0.514968112000,-0.237000000000
0.522654049000,0.338000000000
0.530339986000,1.222000000000
0.538025923000,1.883000000000
0.545711860000,1.484000000000
0.553397797000,-0.019000000000
0.561083734000,-0.854000000000
0.568769671000,-0.396000000000
0.576455608000,-0.137000000000
0.584141545000,-0.352000000000
0.591827482000,-0.318000000000
0.599513419000,-0.208000000000
0.607199356000,-0.254000000000
0.614885293000,-0.249000000000
0.622571230000,-0.191000000000
0.630257167000,-0.181000000000
0.637943104000,-0.173000000000
0.645629041000,-0.137000000000
0.653314978000,-0.112000000000
0.661000915000,-0.093000000000
0.668686852000,-0.058000000000
0.676372789000,-0.026000000000
0.684058726000,0.004000000000
0.691744663000,0.041000000000
0.699430600000,0.078000000000
0.707116537000,0.112000000000
0.714802474000,0.144000000000
0.722488411000,0.169000000000
0.730174348000,0.183000000000
0.737860285000,0.188000000000
0.745546222000,0.181000000000
0.753232159000,0.166000000000
0.760918096000,0.149000000000
0.768604033000,0.120000000000
0.776289970000,0.075000000000
0.783975907000,0.004000000000
0.791661844000,-0.080000000000
0.799347781000,-0.166000000000
0.807033718000,-0.247000000000
0.814719655000,-0.313000000000
0.822405592000,-0.357000000000
0.830091529000,-0.379000000000
0.837777466000,-0.387000000000
0.845463428000,-0.382000000000
0.853149713000,-0.372000000000
0.860835998000,-0.360000000000
0.868522283000,-0.347000000000
0.876208568000,-0.338000000000
0.883894853000,-0.328000000000
0.891581138000,-0.318000000000
0.899267423000,-0.311000000000
0.906953708000,-0.308000000000
0.914639993000,-0.303000000000
0.922326278000,-0.298000000000
0.930012563000,-0.296000000000
0.937698848000,-0.293000000000
0.945385133000,-0.291000000000
0.953071418000,-0.289000000000
0.960757703000,-0.289000000000
0.968443988000,-0.284000000000
0.976130273000,-0.281000000000
0.983816558000,-0.279000000000
0.991502843000,-0.276000000000
0.999189128000,-0.274000000000
1.006875413000,-0.274000000000
1.014561698000,-0.269000000000
1.022247983000,-0.264000000000
1.029934268000,-0.259000000000
1.037620553000,-0.254000000000
1.045306838000,-0.249000000000
1.052993123000,-0.249000000000
1.060679408000,-0.252000000000
1.068365693000,-0.244000000000
1.076051978000,-0.227000000000
1.083738263000,-0.203000000000
1.091424548000,-0.186000000000
1.099110833000,-0.181000000000
1.106797118000,-0.178000000000
1.114483403000,-0.181000000000
1.122169688000,-0.203000000000
1.129855973000,-0.230000000000
1.137542258000,-0.232000000000
1.145228543000,-0.227000000000
1.152914828000,-0.225000000000
1.160601113000,-0.218000000000
1.168287398000,-0.210000000000
1.175973683000,-0.208000000000
1.183659968000,-0.205000000000
1.191346253000,-0.222000000000
1.199032538000,-0.276000000000
1.206718823000,-0.352000000000
1.214405108000,-0.247000000000
1.222091393000,0.306000000000
1.229777678000,1.183000000000
1.237463963000,1.866000000000
1.245150248000,1.528000000000
1.252836533000,0.063000000000
1.260522818000,-0.837000000000
1.268209103000,-0.421000000000
1.275895388000,-0.124000000000
1.283581673000,-0.330000000000
1.291267958000,-0.311000000000
1.298954243000,-0.195000000000
1.306640528000,-0.235000000000
1.314326813000,-0.235000000000
1.322013098000,-0.178000000000
1.329699383000,-0.169000000000
1.337385668000,-0.161000000000
1.345071953000,-0.124000000000
1.352758238000,-0.095000000000
1.360444523000,-0.071000000000
1.368130808000,-0.041000000000
1.375817093000,-0.012000000000
1.383503378000,0.017000000000
1.391189663000,0.053000000000
1.398875948000,0.088000000000
1.406562293000,0.124000000000
1.414248300000,0.154000000000
1.421934307000,0.176000000000
1.429620314000,0.191000000000
1.437306321000,0.193000000000
1.444992328000,0.186000000000
1.452678335000,0.173000000000
1.460364342000,0.156000000000
1.468050349000,0.129000000000
1.475736356000,0.088000000000
1.483422363000,0.024000000000
1.491108370000,-0.056000000000
1.498794377000,-0.139000000000
1.506480384000,-0.220000000000
1.514166391000,-0.291000000000
1.521852398000,-0.338000000000
1.529538405000,-0.362000000000
1.537224412000,-0.374000000000
1.544910419000,-0.372000000000
1.552596426000,-0.360000000000
1.560282433000,-0.345000000000
1.567968440000,-0.335000000000
1.575654447000,-0.320000000000
1.583340454000,-0.311000000000
1.591026461000,-0.308000000000
1.598712468000,-0.303000000000
1.606398475000,-0.296000000000
1.614084482000,-0.291000000000
1.621770489000,-0.289000000000
1.629456496000,-0.289000000000
1.637142503000,-0.289000000000
1.644828510000,-0.284000000000
1.652514517000,-0.279000000000
1.660200524000,-0.271000000000
1.667886531000,-0.276000000000
1.675572538000,-0.284000000000
1.683258545000,-0.279000000000
1.690944552000,-0.267000000000
1.698630559000,-0.264000000000
1.706316566000,-0.264000000000
1.714002573000,-0.252000000000
1.721688580000,-0.244000000000
1.729374587000,-0.247000000000
1.737060594000,-0.252000000000
1.744746601000,-0.249000000000
1.752432608000,-0.247000000000
1.760118615000,-0.230000000000
1.767804622000,-0.200000000000
1.775490629000,-0.178000000000
1.783176636000,-0.169000000000
1.790862643000,-0.169000000000
1.798548650000,-0.173000000000
1.806234657000,-0.200000000000
1.813920664000,-0.232000000000
1.821606671000,-0.235000000000
1.829292678000,-0.222000000000
1.836978685000,-0.215000000000
1.844664692000,-0.213000000000
1.852350699000,-0.208000000000
1.860036706000,-0.200000000000
1.867722713000,-0.195000000000
1.875408720000,-0.213000000000
1.883094727000,-0.257000000000
1.890780734000,-0.330000000000
1.898466741000,-0.286000000000
1.906152748000,0.169000000000
1.913838755000,1.021000000000
1.921524762000,1.768000000000
1.929210769000,1.614000000000
1.936896776000,0.279000000000
1.944582783000,-0.786000000000
1.952268790000,-0.511000000000
1.959954797000,-0.142000000000
1.967640810000,-0.308000000000
1.975326956000,-0.308000000000
1.983013102000,-0.183000000000
1.990699248000,-0.215000000000
1.998385394000,-0.222000000000
2.006071540000,-0.156000000000
2.013757686000,-0.149000000000
2.021443832000,-0.149000000000
2.029129978000,-0.105000000000
2.036816124000,-0.080000000000
2.044502270000,-0.075000000000
2.052188416000,-0.036000000000
2.059874562000,0.012000000000
2.067560708000,0.036000000000
2.075246854000,0.063000000000
2.082933000000,0.100000000000
2.090619146000,0.134000000000
2.098305292000,0.161000000000
2.105991438000,0.188000000000
2.113677584000,0.203000000000
2.121363730000,0.195000000000
2.129049876000,0.188000000000
2.136736022000,0.178000000000
2.144422168000,0.154000000000
2.152108314000,0.124000000000
2.159794460000,0.090000000000
2.167480606000,0.031000000000
2.175166752000,-0.048000000000
2.182852898000,-0.132000000000
2.190539044000,-0.210000000000
2.198225190000,-0.279000000000
2.205911336000,-0.323000000000
2.213597482000,-0.350000000000
2.221283628000,-0.362000000000
2.228969774000,-0.355000000000
2.236655920000,-0.340000000000
2.244342066000,-0.335000000000
2.252028212000,-0.325000000000
2.259714358000,-0.311000000000
2.267400504000,-0.301000000000
2.275086650000,-0.293000000000
2.282772796000,-0.289000000000
2.290458942000,-0.289000000000
2.298145088000,-0.279000000000
2.305831234000,-0.274000000000
2.313517380000,-0.271000000000
2.321203526000,-0.271000000000
2.328889672000,-0.269000000000
2.336575818000,-0.269000000000
2.344261964000,-0.264000000000
2.351948110000,-0.264000000000
2.359634256000,-0.264000000000
2.367320402000,-0.259000000000
2.375006548000,-0.252000000000
2.382692694000,-0.254000000000
2.390378840000,-0.259000000000
2.398064986000,-0.254000000000
2.405751132000,-0.244000000000
2.413437278000,-0.244000000000
2.421123424000,-0.249000000000
2.428809570000,-0.244000000000
2.436495716000,-0.225000000000
2.444181862000,-0.195000000000
2.451868008000,-0.178000000000
2.459554154000,-0.178000000000
2.467240300000,-0.173000000000
2.474926446000,-0.173000000000
2.482612592000,-0.205000000000
2.490298738000,-0.235000000000
2.497984884000,-0.227000000000
2.505671030000,-0.218000000000
2.513357176000,-0.220000000000
2.521043322000,-0.213000000000
2.528729497000,-0.203000000000
2.536415782000,-0.205000000000
2.544102067000,-0.208000000000
2.551788352000,-0.220000000000
2.559474637000,-0.267000000000
2.567160922000,-0.335000000000
2.574847207000,-0.215000000000
2.582533492000,0.377000000000
2.590219777000,1.246000000000
2.597906062000,1.793000000000
2.605592347000,1.300000000000
2.613278632000,-0.127000000000
2.620964917000,-0.832000000000
2.628651202000,-0.377000000000
2.636337487000,-0.164000000000
2.644023772000,-0.338000000000
2.651710057000,-0.269000000000
2.659396342000,-0.181000000000
2.667082627000,-0.232000000000
2.674768912000,-0.215000000000
2.682455197000,-0.154000000000
2.690141482000,-0.151000000000
2.697827767000,-0.144000000000
2.705514052000,-0.105000000000
2.713200337000,-0.078000000000
2.720886622000,-0.061000000000
2.728572907000,-0.029000000000
2.736259192000,0.000000000000
2.743945477000,0.026000000000
2.751631762000,0.063000000000
2.759318047000,0.105000000000
2.767004332000,0.132000000000
2.774690617000,0.154000000000
2.782376902000,0.173000000000
2.790063187000,0.183000000000
2.797749472000,0.178000000000
2.805435757000,0.171000000000
2.813122042000,0.154000000000
2.820808327000,0.124000000000
2.828494612000,0.093000000000
2.836180897000,0.056000000000
2.843867182000,-0.007000000000
2.851553467000,-0.090000000000
2.859239752000,-0.169000000000
2.866926037000,-0.240000000000
2.874612322000,-0.303000000000
2.882298607000,-0.340000000000
2.889984892000,-0.360000000000
2.897671177000,-0.364000000000
2.905357462000,-0.357000000000
2.913043747000,-0.340000000000
2.920730032000,-0.330000000000
2.928416317000,-0.325000000000
2.936102602000,-0.315000000000
2.943788887000,-0.303000000000
2.951475172000,-0.296000000000
2.959161457000,-0.291000000000
2.966847742000,-0.286000000000
2.974534027000,-0.286000000000
2.982220312000,-0.284000000000
2.989906597000,-0.279000000000
2.997592882000,-0.276000000000
3.005279167000,-0.274000000000
3.012965452000,-0.271000000000
3.020651737000,-0.274000000000
3.028338022000,-0.274000000000
3.036024307000,-0.276000000000
3.043710592000,-0.274000000000
3.051396877000,-0.269000000000
3.059083162000,-0.264000000000
3.066769447000,-0.264000000000
3.074455732000,-0.259000000000
3.082142017000,-0.257000000000
3.089828358000,-0.252000000000
3.097514225000,-0.249000000000
3.105200092000,-0.254000000000
3.112885959000,-0.254000000000
3.120571826000,-0.240000000000
3.128257693000,-0.213000000000
3.135943560000,-0.191000000000
3.143629427000,-0.188000000000
3.151315294000,-0.186000000000
3.159001161000,-0.186000000000
3.166687028000,-0.208000000000
3.174372895000,-0.240000000000
3.182058762000,-0.244000000000
3.189744629000,-0.235000000000
3.197430496000,-0.232000000000
3.205116363000,-0.227000000000
3.212802230000,-0.220000000000
3.220488097000,-0.220000000000
3.228173964000,-0.220000000000
3.235859831000,-0.222000000000
3.243545698000,-0.257000000000
3.251231565000,-0.330000000000
3.258917432000,-0.325000000000
3.266603299000,0.048000000000
3.274289166000,0.842000000000
3.281975033000,1.648000000000
3.289660900000,1.744000000000
3.297346767000,0.580000000000
3.305032634000,-0.715000000000
3.312718501000,-0.646000000000
3.320404368000,-0.151000000000
3.328090235000,-0.262000000000
3.335776102000,-0.347000000000
3.343461969000,-0.213000000000
3.351147836000,-0.213000000000
3.358833703000,-0.247000000000
3.366519570000,-0.191000000000
3.374205437000,-0.161000000000
3.381891304000,-0.164000000000
3.389577171000,-0.139000000000
3.397263038000,-0.117000000000
3.404948905000,-0.100000000000
3.412634772000,-0.071000000000
3.420320639000,-0.039000000000
3.428006506000,-0.012000000000
3.435692373000,0.022000000000
3.443378240000,0.056000000000
3.451064107000,0.085000000000
3.458749974000,0.115000000000
3.466435841000,0.142000000000
3.474121708000,0.151000000000
3.481807575000,0.151000000000
3.489493442000,0.146000000000
3.497179309000,0.132000000000
3.504865176000,0.110000000000
3.512551043000,0.088000000000
3.520236910000,0.053000000000
3.527922777000,0.000000000000
3.535608644000,-0.071000000000
3.543294511000,-0.149000000000
3.550980378000,-0.227000000000
3.558666245000,-0.296000000000
3.566352112000,-0.345000000000
3.574037979000,-0.377000000000
3.581723846000,-0.389000000000
3.589409713000,-0.389000000000
3.597095580000,-0.382000000000
3.604781447000,-0.372000000000
3.612467314000,-0.362000000000
3.620153181000,-0.347000000000
3.627839048000,-0.335000000000
3.635524915000,-0.328000000000
3.643210782000,-0.320000000000
3.650896701000,-0.315000000000
3.658582986000,-0.313000000000
3.666269271000,-0.311000000000
3.673955556000,-0.306000000000
3.681641841000,-0.306000000000
3.689328126000,-0.308000000000
3.697014411000,-0.306000000000
3.704700696000,-0.301000000000
3.712386981000,-0.303000000000
3.720073266000,-0.306000000000
3.727759551000,-0.303000000000
3.735445836000,-0.298000000000
3.743132121000,-0.296000000000
3.750818406000,-0.293000000000
3.758504691000,-0.289000000000
3.766190976000,-0.284000000000
3.773877261000,-0.279000000000
3.781563546000,-0.276000000000
3.789249831000,-0.274000000000
3.796936116000,-0.276000000000
3.804622401000,-0.269000000000
3.812308686000,-0.247000000000
3.819994971000,-0.222000000000
3.827681256000,-0.210000000000
3.835367541000,-0.208000000000
3.843053826000,-0.203000000000
3.850740111000,-0.205000000000
3.858426396000,-0.235000000000
3.866112681000,-0.259000000000
3.873798966000,-0.257000000000
3.881485251000,-0.244000000000
3.889171536000,-0.242000000000
3.896857821000,-0.240000000000
3.904544106000,-0.235000000000
3.912230391000,-0.230000000000
3.919916676000,-0.230000000000
3.927602961000,-0.244000000000
3.935289246000,-0.286000000000
3.942975531000,-0.355000000000
3.950661816000,-0.276000000000
3.958348101000,0.230000000000
3.966034386000,1.087000000000
3.973720671000,1.790000000000
3.981406956000,1.548000000000
3.989093241000,0.139000000000
3.996779526000,-0.852000000000
4.004465811000,-0.487000000000
4.012152096000,-0.134000000000
4.019838381000,-0.333000000000
4.027524666000,-0.340000000000
4.035210951000,-0.215000000000
4.042897236000,-0.247000000000
4.050583521000,-0.259000000000
4.058269806000,-0.198000000000
4.065956091000,-0.181000000000
4.073642376000,-0.176000000000
4.081328661000,-0.142000000000
4.089014946000,-0.117000000000
4.096701231000,-0.097000000000
4.104387516000,-0.071000000000
4.112073801000,-0.039000000000
4.119760086000,-0.009000000000
4.127446371000,0.022000000000
4.135132656000,0.056000000000
4.142818941000,0.090000000000
4.150505226000,0.120000000000
4.158191511000,0.142000000000
4.165877796000,0.151000000000
4.173564081000,0.154000000000
4.181250366000,0.144000000000
4.188936651000,0.129000000000
4.196622936000,0.112000000000
4.204309221000,0.085000000000
4.211995562000,0.046000000000
4.219681847000,-0.014000000000
4.227368132000,-0.093000000000
4.235054417000,-0.173000000000
4.242740702000,-0.249000000000
4.250426987000,-0.313000000000
4.258113272000,-0.357000000000
4.265799557000,-0.382000000000
4.273485842000,-0.389000000000
4.281172127000,-0.384000000000
4.288858412000,-0.374000000000
4.296544697000,-0.362000000000
4.304230982000,-0.350000000000
4.311917267000,-0.338000000000
4.319603552000,-0.325000000000
4.327289837000,-0.315000000000
4.334976122000,-0.311000000000
4.342662407000,-0.308000000000
4.350348692000,-0.303000000000
4.358034977000,-0.298000000000
4.365721262000,-0.298000000000
4.373407547000,-0.296000000000
4.381093832000,-0.296000000000
4.388780117000,-0.293000000000
4.396466402000,-0.293000000000
4.404152687000,-0.291000000000
4.411838972000,-0.289000000000
4.419525257000,-0.289000000000
4.427211542000,-0.286000000000
4.434897827000,-0.281000000000
4.442584112000,-0.276000000000
4.450270397000,-0.276000000000
4.457956682000,-0.274000000000
4.465642967000,-0.269000000000
4.473329252000,-0.262000000000
4.481015537000,-0.257000000000
4.488701822000,-0.257000000000
4.496388107000,-0.257000000000
4.504074392000,-0.254000000000
4.511760677000,-0.237000000000
4.519446962000,-0.210000000000
4.527133247000,-0.193000000000
4.534819532000,-0.191000000000
4.542505817000,-0.186000000000
4.550192102000,-0.186000000000
4.557878387000,-0.208000000000
4.565564672000,-0.242000000000
4.573250957000,-0.244000000000
4.580937242000,-0.232000000000
4.588623527000,-0.230000000000
4.596309812000,-0.227000000000
4.603996097000,-0.222000000000
4.611682382000,-0.220000000000
4.619368667000,-0.218000000000
4.627054952000,-0.225000000000
4.634741237000,-0.259000000000
4.642427522000,-0.333000000000
4.650113807000,-0.335000000000
4.657800092000,0.019000000000
4.665486377000,0.803000000000
4.673172662000,1.633000000000
4.680858947000,1.793000000000
4.688545232000,0.668000000000
4.696231517000,-0.683000000000
4.703917802000,-0.676000000000
4.711604087000,-0.151000000000
4.719290372000,-0.247000000000
4.726976657000,-0.362000000000
4.734662942000,-0.230000000000
4.742349227000,-0.220000000000
4.750035512000,-0.259000000000
4.757721797000,-0.205000000000
4.765408082000,-0.171000000000
4.773094427000,-0.173000000000
4.780780294000,-0.144000000000
4.788466161000,-0.115000000000
4.796152028000,-0.097000000000
4.803837895000,-0.071000000000
4.811523762000,-0.036000000000
4.819209629000,-0.009000000000
4.826895496000,0.022000000000
4.834581363000,0.056000000000
4.842267230000,0.088000000000
4.849953097000,0.117000000000
4.857638964000,0.144000000000
4.865324831000,0.159000000000
4.873010698000,0.161000000000
4.880696565000,0.156000000000
4.888382432000,0.146000000000
4.896068299000,0.129000000000
4.903754166000,0.105000000000
4.911440033000,0.073000000000
4.919125900000,0.022000000000
4.926811767000,-0.048000000000
4.934497634000,-0.129000000000
4.942183501000,-0.205000000000
4.949869368000,-0.276000000000
4.957555235000,-0.328000000000
4.965241102000,-0.360000000000
4.972926969000,-0.374000000000
4.980612836000,-0.374000000000
4.988298703000,-0.367000000000
4.995984570000,-0.355000000000
5.003670437000,-0.340000000000
5.011356304000,-0.330000000000
5.019042171000,-0.318000000000
5.026728038000,-0.311000000000
5.034413905000,-0.303000000000
5.042099772000,-0.298000000000
5.049785639000,-0.296000000000
5.057471506000,-0.293000000000
5.065157373000,-0.291000000000
5.072843240000,-0.289000000000
5.080529107000,-0.286000000000
5.088214974000,-0.286000000000
5.095900841000,-0.284000000000
5.103586708000,-0.284000000000
5.111272575000,-0.284000000000
5.118958442000,-0.281000000000
5.126644309000,-0.279000000000
5.134330176000,-0.276000000000
5.142016043000,-0.271000000000
5.149701910000,-0.269000000000
5.157387777000,-0.267000000000
5.165073644000,-0.262000000000
5.172759511000,-0.257000000000
5.180445378000,-0.252000000000
5.188131245000,-0.249000000000
5.195817112000,-0.252000000000
5.203502979000,-0.252000000000
5.211188846000,-0.237000000000
5.218874713000,-0.210000000000
5.226560580000,-0.188000000000
5.234246447000,-0.181000000000
5.241932314000,-0.178000000000
5.249618181000,-0.176000000000
5.257304048000,-0.193000000000
5.264989915000,-0.227000000000
5.272675782000,-0.240000000000
5.280361649000,-0.225000000000
5.288047516000,-0.220000000000
5.295733383000,-0.220000000000
5.303419250000,-0.213000000000
5.311105117000,-0.208000000000
5.318790984000,-0.205000000000
5.326476851000,-0.210000000000
5.334162770000,-0.235000000000
5.341849055000,-0.303000000000
5.349535340000,-0.342000000000
5.357221625000,-0.088000000000
5.364907910000,0.614000000000
5.372594195000,1.484000000000
5.380280480000,1.878000000000
5.387966765000,1.036000000000
5.395653050000,-0.453000000000
5.403339335000,-0.781000000000
5.411025620000,-0.225000000000
5.418711905000,-0.191000000000
5.426398190000,-0.364000000000
5.434084475000,-0.257000000000
5.441770760000,-0.205000000000
5.449457045000,-0.257000000000
5.457143330000,-0.220000000000
5.464829615000,-0.171000000000
5.472515900000,-0.173000000000
5.480202185000,-0.151000000000
5.487888470000,-0.117000000000
5.495574755000,-0.097000000000
5.503261040000,-0.073000000000
5.510947325000,-0.039000000000
5.518633610000,-0.009000000000
5.526319895000,0.019000000000
5.534006180000,0.053000000000
5.541692465000,0.088000000000
5.549378750000,0.120000000000
5.557065035000,0.146000000000
5.564751320000,0.164000000000
5.572437605000,0.171000000000
5.580123890000,0.166000000000
5.587810175000,0.156000000000
5.595496460000,0.144000000000
5.603182745000,0.120000000000
5.610869030000,0.085000000000
5.618555315000,0.039000000000
5.626241600000,-0.026000000000
5.633927885000,-0.105000000000
5.641614170000,-0.183000000000
5.649300455000,-0.254000000000
5.656986740000,-0.308000000000
5.664673025000,-0.345000000000
5.672359310000,-0.362000000000
5.680045595000,-0.364000000000
5.687731880000,-0.360000000000
5.695418165000,-0.350000000000
5.703104450000,-0.338000000000
5.710790735000,-0.325000000000
5.718477020000,-0.313000000000
5.726163305000,-0.306000000000
5.733849590000,-0.298000000000
5.741535875000,-0.293000000000
5.749222160000,-0.289000000000
5.756908445000,-0.284000000000
5.764594730000,-0.281000000000
5.772281015000,-0.284000000000
5.779967300000,-0.281000000000
5.787653585000,-0.279000000000
5.795339870000,-0.274000000000
5.803026155000,-0.274000000000
5.810712440000,-0.276000000000
5.818398725000,-0.271000000000
5.826085010000,-0.267000000000
5.833771295000,-0.264000000000
5.841457580000,-0.264000000000
5.849143865000,-0.259000000000
5.856830150000,-0.252000000000
5.864516435000,-0.247000000000
5.872202720000,-0.244000000000
5.879889005000,-0.242000000000
5.887575290000,-0.237000000000
5.895261631000,-0.230000000000
5.902947916000,-0.227000000000
5.910634201000,-0.227000000000
5.918320486000,-0.218000000000
5.926006771000,-0.195000000000
5.933693056000,-0.171000000000
5.941379341000,-0.164000000000
5.949065626000,-0.161000000000
5.956751911000,-0.161000000000
5.964438196000,-0.191000000000
5.972124481000,-0.227000000000
5.979810766000,-0.227000000000
5.987497051000,-0.208000000000
5.995183336000,-0.205000000000
6.002869621000,-0.200000000000
6.010555906000,-0.195000000000
6.018242191000,-0.198000000000
6.025928476000,-0.198000000000
6.033614761000,-0.205000000000
6.041301046000,-0.237000000000
6.048987331000,-0.303000000000
6.056673616000,-0.303000000000
6.064359901000,0.041000000000
6.072046186000,0.818000000000
6.079732471000,1.643000000000
6.087418756000,1.790000000000
6.095105041000,0.685000000000
6.102791326000,-0.641000000000
6.110477611000,-0.651000000000
6.118163896000,-0.164000000000
6.125850181000,-0.252000000000
6.133536466000,-0.335000000000
6.141222751000,-0.198000000000
6.148909036000,-0.195000000000
6.156595321000,-0.235000000000
6.164281606000,-0.183000000000
6.171967891000,-0.151000000000
6.179654176000,-0.151000000000
6.187340461000,-0.122000000000
6.195026746000,-0.093000000000
6.202713031000,-0.073000000000
6.210399316000,-0.041000000000
6.218085601000,-0.007000000000
6.225771886000,0.022000000000
6.233458171000,0.053000000000
6.241144456000,0.085000000000
6.248830741000,0.115000000000
6.256517026000,0.151000000000
6.264203311000,0.173000000000
6.271889596000,0.186000000000
6.279575881000,0.195000000000
6.287262166000,0.188000000000
6.294948451000,0.164000000000
6.302634736000,0.144000000000
6.310321021000,0.132000000000
6.318007306000,0.107000000000
6.325693591000,0.048000000000
6.333379876000,-0.026000000000
6.341066161000,-0.100000000000
6.348752446000,-0.176000000000
6.356438731000,-0.249000000000
6.364125016000,-0.303000000000
6.371811301000,-0.333000000000
6.379497586000,-0.347000000000
6.387183871000,-0.355000000000
6.394870156000,-0.347000000000
6.402556441000,-0.333000000000
6.410242726000,-0.328000000000
6.417929011000,-0.315000000000
6.425615296000,-0.301000000000
6.433301581000,-0.291000000000
6.440987866000,-0.286000000000
6.448674151000,-0.284000000000
6.456360492000,-0.276000000000
6.464046359000,-0.271000000000
6.471732226000,-0.269000000000
6.479418093000,-0.269000000000
6.487103960000,-0.271000000000
6.494789827000,-0.269000000000
6.502475694000,-0.264000000000
6.510161561000,-0.264000000000
6.517847428000,-0.267000000000
6.525533295000,-0.267000000000
6.533219162000,-0.269000000000
6.540905029000,-0.262000000000
6.548590896000,-0.249000000000
6.556276763000,-0.257000000000
6.563962630000,-0.264000000000
6.571648497000,-0.247000000000
6.579334364000,-0.237000000000
6.587020231000,-0.244000000000
6.594706098000,-0.242000000000
6.602391965000,-0.230000000000
6.610077832000,-0.213000000000
6.617763699000,-0.191000000000
6.625449566000,-0.181000000000
6.633135433000,-0.173000000000
6.640821300000,-0.164000000000
6.648507167000,-0.188000000000
6.656193034000,-0.232000000000
6.663878901000,-0.242000000000
6.671564768000,-0.227000000000
6.679250635000,-0.222000000000
6.686936502000,-0.218000000000
6.694622369000,-0.215000000000
6.702308236000,-0.213000000000
6.709994103000,-0.203000000000
6.717679970000,-0.205000000000
6.725365837000,-0.227000000000
6.733051704000,-0.276000000000
6.740737571000,-0.338000000000
6.748423438000,-0.178000000000
6.756109305000,0.467000000000
6.763795172000,1.342000000000
6.771481039000,1.800000000000
6.779166906000,1.158000000000
6.786852773000,-0.267000000000
6.794538640000,-0.808000000000
6.802224507000,-0.323000000000
6.809910374000,-0.183000000000
6.817596241000,-0.333000000000
6.825282108000,-0.237000000000
6.832967975000,-0.176000000000
6.840653842000,-0.232000000000
6.848339709000,-0.203000000000
6.856025576000,-0.146000000000
6.863711443000,-0.142000000000
6.871397310000,-0.129000000000
6.879083177000,-0.093000000000
6.886769044000,-0.073000000000
6.894454911000,-0.051000000000
6.902140778000,-0.017000000000
6.909826645000,0.017000000000
6.917512512000,0.044000000000
6.925198379000,0.073000000000
6.932884246000,0.110000000000
6.940570113000,0.146000000000
6.948255980000,0.173000000000
6.955941847000,0.183000000000
6.963627714000,0.181000000000
6.971313581000,0.176000000000
6.978999448000,0.164000000000
6.986685315000,0.146000000000
6.994371182000,0.122000000000
7.002057049000,0.088000000000
7.009742916000,0.039000000000
7.017428835000,-0.026000000000
7.025115538000,-0.105000000000
7.032802241000,-0.183000000000
7.040488944000,-0.252000000000
7.048175647000,-0.311000000000
7.055862350000,-0.350000000000
7.063549053000,-0.369000000000
7.071235756000,-0.377000000000
7.078922459000,-0.372000000000
7.086609162000,-0.355000000000
7.094295865000,-0.345000000000
7.101982568000,-0.335000000000
7.109669271000,-0.323000000000
7.117355974000,-0.315000000000
7.125042677000,-0.308000000000
7.132729380000,-0.306000000000
7.140416083000,-0.298000000000
7.148102786000,-0.291000000000
7.155789489000,-0.293000000000
7.163476192000,-0.293000000000
7.171162895000,-0.284000000000
7.178849598000,-0.281000000000
7.186536301000,-0.286000000000
7.194223004000,-0.286000000000
7.201909707000,-0.279000000000
7.209596410000,-0.276000000000
7.217283113000,-0.281000000000
7.224969816000,-0.281000000000
7.232656519000,-0.276000000000
7.240343222000,-0.271000000000
7.248029925000,-0.269000000000
7.255716628000,-0.267000000000
7.263403331000,-0.264000000000
7.271090034000,-0.262000000000
7.278776737000,-0.262000000000
7.286463440000,-0.257000000000
7.294150143000,-0.232000000000
7.301836846000,-0.205000000000
7.309523549000,-0.195000000000
7.317210252000,-0.193000000000
7.324896955000,-0.191000000000
7.332583658000,-0.200000000000
7.340270361000,-0.235000000000
7.347957064000,-0.254000000000
7.355643767000,-0.244000000000
7.363330470000,-0.237000000000
7.371017173000,-0.237000000000
7.378703876000,-0.232000000000
7.386390579000,-0.225000000000
7.394077282000,-0.222000000000
7.401763985000,-0.227000000000
7.409450688000,-0.249000000000
7.417137391000,-0.306000000000
7.424824094000,-0.357000000000
7.432510797000,-0.156000000000
7.440197500000,0.524000000000
7.447884203000,1.413000000000
7.455570906000,1.859000000000
7.463257609000,1.114000000000
7.470944312000,-0.374000000000
7.478631015000,-0.820000000000
7.486317718000,-0.289000000000
7.494004421000,-0.198000000000
7.501691124000,-0.369000000000
7.509377827000,-0.274000000000
7.517064530000,-0.213000000000
7.524751233000,-0.264000000000
7.532437936000,-0.232000000000
7.540124639000,-0.183000000000
7.547811342000,-0.181000000000
7.555498045000,-0.164000000000
7.563184748000,-0.127000000000
7.570871451000,-0.110000000000
7.578558218000,-0.085000000000
7.586244085000,-0.053000000000
7.593929952000,-0.022000000000
7.601615819000,0.007000000000
7.609301686000,0.041000000000
7.616987553000,0.078000000000
7.624673420000,0.107000000000
7.632359287000,0.132000000000
7.640045154000,0.149000000000
7.647731021000,0.156000000000
7.655416888000,0.149000000000
7.663102755000,0.137000000000
7.670788622000,0.122000000000
7.678474489000,0.100000000000
7.686160356000,0.068000000000
7.693846223000,0.019000000000
7.701532090000,-0.051000000000
7.709217957000,-0.132000000000
7.716903824000,-0.210000000000
7.724589691000,-0.281000000000
7.732275558000,-0.335000000000
7.739961425000,-0.367000000000
7.747647292000,-0.382000000000
7.755333159000,-0.387000000000
7.763019026000,-0.379000000000
7.770704893000,-0.367000000000
7.778390760000,-0.357000000000
7.786076627000,-0.345000000000
7.793762494000,-0.330000000000
7.801448361000,-0.320000000000
7.809134228000,-0.313000000000
7.816820095000,-0.308000000000
7.824505962000,-0.303000000000
7.832191829000,-0.301000000000
7.839877696000,-0.298000000000
7.847563563000,-0.293000000000
7.855249430000,-0.291000000000
7.862935297000,-0.291000000000
7.870621164000,-0.293000000000
7.878307031000,-0.291000000000
7.885992898000,-0.291000000000
7.893678765000,-0.289000000000
7.901364632000,-0.289000000000
7.909050499000,-0.286000000000
7.916736366000,-0.284000000000
7.924422233000,-0.281000000000
7.932108100000,-0.276000000000
7.939793967000,-0.271000000000
7.947479834000,-0.267000000000
7.955165701000,-0.262000000000
7.962851568000,-0.259000000000
7.970537435000,-0.262000000000
7.978223302000,-0.259000000000
7.985909169000,-0.244000000000
7.993595036000,-0.218000000000
8.001280903000,-0.198000000000
8.008966770000,-0.191000000000
8.016652637000,-0.188000000000
8.024338504000,-0.186000000000
8.032024371000,-0.203000000000
8.039710238000,-0.240000000000
8.047396105000,-0.249000000000
8.055081972000,-0.235000000000
8.062767839000,-0.230000000000
8.070453706000,-0.230000000000
8.078139573000,-0.222000000000
8.085825440000,-0.218000000000
8.093511307000,-0.215000000000
8.101197174000,-0.220000000000
8.108883041000,-0.247000000000
8.116568908000,-0.315000000000
8.124254775000,-0.355000000000
8.131940642000,-0.093000000000
8.139626561000,0.624000000000
8.147312428000,1.501000000000
8.154998295000,1.903000000000
8.162684162000,1.058000000000
8.170370029000,-0.450000000000
8.178055896000,-0.793000000000
8.185741763000,-0.230000000000
8.193427630000,-0.193000000000
8.201113497000,-0.382000000000
8.208799364000,-0.274000000000
8.216485231000,-0.215000000000
8.224171098000,-0.269000000000
8.231856965000,-0.235000000000
8.239542832000,-0.186000000000
8.247228699000,-0.183000000000
8.254914566000,-0.164000000000
8.262600433000,-0.129000000000
8.270286300000,-0.107000000000
8.277972167000,-0.083000000000
8.285658034000,-0.051000000000
8.293343901000,-0.022000000000
8.301029768000,0.009000000000
8.308715635000,0.046000000000
8.316401502000,0.083000000000
8.324087369000,0.115000000000
8.331773236000,0.142000000000
8.339459103000,0.161000000000
8.347144970000,0.166000000000
8.354830837000,0.161000000000
8.362516704000,0.149000000000
8.370202571000,0.134000000000
8.377888438000,0.112000000000
8.385574305000,0.080000000000
8.393260172000,0.031000000000
8.400946039000,-0.041000000000
8.408631906000,-0.124000000000
8.416317773000,-0.203000000000
8.424003640000,-0.276000000000
8.431689507000,-0.335000000000
8.439375374000,-0.367000000000
8.447061241000,-0.382000000000
8.454747108000,-0.384000000000
8.462432975000,-0.379000000000
8.470118842000,-0.367000000000
8.477804709000,-0.355000000000
8.485490576000,-0.342000000000
8.493176443000,-0.330000000000
8.500862310000,-0.318000000000
8.508548177000,-0.311000000000
8.516234044000,-0.306000000000
8.523919911000,-0.301000000000
8.531605778000,-0.298000000000
8.539291645000,-0.296000000000
8.546977512000,-0.293000000000
8.554663379000,-0.291000000000
8.562349246000,-0.291000000000
8.570035113000,-0.289000000000
8.577720980000,-0.289000000000
8.585406847000,-0.286000000000
8.593092714000,-0.284000000000
8.600778581000,-0.281000000000
8.608464448000,-0.279000000000
8.616150315000,-0.276000000000
8.623836182000,-0.274000000000
8.631522049000,-0.269000000000
8.639207916000,-0.267000000000
8.646893783000,-0.262000000000
8.654579650000,-0.257000000000
8.662265517000,-0.254000000000
8.669951384000,-0.254000000000
8.677637251000,-0.254000000000
8.685323118000,-0.244000000000
8.693008985000,-0.222000000000
8.700694904000,-0.195000000000
8.708381189000,-0.186000000000
8.716067474000,-0.186000000000
8.723753759000,-0.181000000000
8.731440044000,-0.188000000000
8.739126329000,-0.222000000000
8.746812614000,-0.244000000000
8.754498899000,-0.237000000000
8.762185184000,-0.227000000000
8.769871469000,-0.225000000000
8.777557754000,-0.220000000000
8.785244039000,-0.215000000000
8.792930324000,-0.213000000000
8.800616609000,-0.213000000000
8.808302894000,-0.230000000000
8.815989179000,-0.281000000000
8.823675464000,-0.360000000000
8.831361749000,-0.262000000000
8.839048034000,0.281000000000
8.846734319000,1.153000000000
8.854420604000,1.851000000000
8.862106889000,1.557000000000
8.869793174000,0.102000000000
8.877479459000,-0.845000000000
8.885165744000,-0.450000000000
8.892852029000,-0.132000000000
8.900538314000,-0.338000000000
8.908224599000,-0.330000000000
8.915910884000,-0.210000000000
8.923597169000,-0.249000000000
8.931283454000,-0.257000000000
8.938969739000,-0.195000000000
8.946656024000,-0.181000000000
8.954342309000,-0.176000000000
8.962028594000,-0.139000000000
8.969714879000,-0.112000000000
8.977401164000,-0.093000000000
8.985087449000,-0.063000000000
8.992773734000,-0.031000000000
9.000460019000,0.000000000000
9.008146304000,0.034000000000
9.015832589000,0.071000000000
9.023518874000,0.102000000000
9.031205159000,0.132000000000
9.038891444000,0.154000000000
9.046577729000,0.169000000000
9.054264014000,0.169000000000
9.061950299000,0.159000000000
9.069636584000,0.144000000000
9.077322869000,0.127000000000
9.085009154000,0.100000000000
9.092695439000,0.058000000000
9.100381724000,-0.002000000000
9.108068009000,-0.080000000000
9.115754294000,-0.164000000000
9.123440579000,-0.242000000000
9.131126864000,-0.308000000000
9.138813149000,-0.350000000000
9.146499434000,-0.372000000000
9.154185719000,-0.379000000000
9.161872004000,-0.377000000000
9.169558289000,-0.369000000000
9.177244574000,-0.357000000000
9.184930859000,-0.342000000000
9.192617144000,-0.330000000000
9.200303429000,-0.320000000000
9.207989714000,-0.313000000000
9.215675999000,-0.306000000000
9.223362284000,-0.303000000000
9.231048569000,-0.298000000000
9.238734854000,-0.296000000000
9.246421139000,-0.293000000000
9.254107424000,-0.293000000000
9.261793765000,-0.291000000000
9.269480050000,-0.286000000000
9.277166335000,-0.286000000000
9.284852620000,-0.286000000000
9.292538905000,-0.284000000000
9.300225190000,-0.281000000000
9.307911475000,-0.279000000000
9.315597760000,-0.276000000000
9.323284045000,-0.271000000000
9.330970330000,-0.271000000000
9.338656615000,-0.267000000000
9.346342900000,-0.262000000000
9.354029185000,-0.259000000000
9.361715470000,-0.257000000000
9.369401755000,-0.252000000000
9.377088040000,-0.252000000000
9.384774325000,-0.254000000000
9.392460610000,-0.244000000000
9.400146895000,-0.222000000000
9.407833180000,-0.195000000000
9.415519465000,-0.183000000000
9.423205750000,-0.183000000000
9.430892035000,-0.178000000000
9.438578320000,-0.186000000000
9.446264605000,-0.220000000000
9.453950890000,-0.244000000000
9.461637175000,-0.232000000000
9.469323460000,-0.220000000000
9.477009745000,-0.222000000000
9.484696030000,-0.218000000000
9.492382315000,-0.213000000000
9.500068600000,-0.208000000000
9.507754885000,-0.208000000000
9.515441170000,-0.222000000000
9.523127455000,-0.269000000000
9.530813740000,-0.347000000000
9.538500025000,-0.276000000000
9.546186310000,0.222000000000
9.553872595000,1.077000000000
9.561558880000,1.810000000000
9.569245165000,1.614000000000
9.576931450000,0.218000000000
9.584617735000,-0.820000000000
9.592304020000,-0.492000000000
9.599990305000,-0.129000000000
9.607676590000,-0.318000000000
9.615362875000,-0.330000000000
9.623049160000,-0.208000000000
9.630735445000,-0.240000000000
9.638421730000,-0.254000000000
9.646108015000,-0.195000000000
9.653794300000,-0.178000000000
9.661480585000,-0.173000000000
9.669166870000,-0.139000000000
9.676853155000,-0.112000000000
9.684539440000,-0.093000000000
9.692225725000,-0.063000000000
9.699912010000,-0.031000000000
9.707598295000,-0.002000000000
9.715284580000,0.029000000000
9.722970865000,0.063000000000
9.730657150000,0.097000000000
9.738343435000,0.129000000000
9.746029720000,0.151000000000
9.753716005000,0.164000000000
9.761402290000,0.166000000000
9.769088575000,0.156000000000
9.776774860000,0.142000000000
9.784461145000,0.124000000000
9.792147430000,0.100000000000
9.799833715000,0.063000000000
9.807520000000,0.002000000000
9.815206285000,-0.073000000000
9.822892626000,-0.154000000000
9.830578493000,-0.227000000000
9.838264360000,-0.291000000000
9.845950227000,-0.338000000000
9.853636094000,-0.367000000000
9.861321961000,-0.379000000000
9.869007828000,-0.374000000000
9.876693695000,-0.367000000000
9.884379562000,-0.357000000000
9.892065429000,-0.345000000000
9.899751296000,-0.333000000000
9.907437163000,-0.323000000000
9.915123030000,-0.315000000000
9.922808897000,-0.308000000000
9.930494764000,-0.303000000000
9.938180631000,-0.298000000000
9.945866498000,-0.296000000000
9.953552365000,-0.293000000000
9.961238232000,-0.291000000000
9.968924099000,-0.289000000000
9.976609966000,-0.286000000000
9.984295833000,-0.286000000000
9.991981700000,-0.286000000000
9.999667567000,-0.284000000000
10.007353434000,-0.281000000000
10.015039301000,-0.279000000000
10.022725168000,-0.276000000000
10.030411035000,-0.271000000000
10.038096902000,-0.269000000000
10.045782769000,-0.264000000000
10.053468636000,-0.259000000000
10.061154503000,-0.257000000000
10.068840370000,-0.252000000000
10.076526237000,-0.244000000000
10.084212104000,-0.242000000000
10.091897971000,-0.240000000000
10.099583838000,-0.240000000000
10.107269705000,-0.240000000000
10.114955572000,-0.232000000000
10.122641439000,-0.210000000000
10.130327306000,-0.186000000000
10.138013173000,-0.173000000000
10.145699040000,-0.171000000000
10.153384907000,-0.169000000000
10.161070774000,-0.176000000000
10.168756641000,-0.208000000000
10.176442508000,-0.232000000000
10.184128375000,-0.225000000000
10.191814242000,-0.213000000000
10.199500109000,-0.215000000000
10.207185976000,-0.210000000000
10.214871843000,-0.203000000000
10.222557710000,-0.203000000000
10.230243577000,-0.203000000000
10.237929444000,-0.215000000000
10.245615311000,-0.262000000000
10.253301178000,-0.340000000000
10.260987045000,-0.276000000000
10.268672912000,0.205000000000
10.276358779000,1.048000000000
10.284044646000,1.785000000000
10.291730513000,1.624000000000
10.299416380000,0.254000000000
10.307102247000,-0.803000000000
10.314788114000,-0.502000000000
10.322473981000,-0.132000000000
10.330159848000,-0.313000000000
10.337845715000,-0.330000000000
10.345531582000,-0.208000000000
10.353217449000,-0.237000000000
10.360903316000,-0.252000000000
10.368589183000,-0.193000000000
10.376275050000,-0.176000000000
10.383960969000,-0.173000000000
10.391647254000,-0.139000000000
10.399333539000,-0.110000000000
10.407019824000,-0.093000000000
10.414706109000,-0.063000000000
10.422392394000,-0.031000000000
10.430078679000,-0.004000000000
10.437764964000,0.026000000000
10.445451249000,0.063000000000
10.453137534000,0.097000000000
10.460823819000,0.122000000000
10.468510104000,0.146000000000
10.476196389000,0.161000000000
10.483882674000,0.161000000000
10.491568959000,0.151000000000
10.499255244000,0.139000000000
10.506941529000,0.122000000000
10.514627814000,0.095000000000
10.522314099000,0.056000000000
10.530000384000,0.004000000000
10.537686669000,-0.061000000000
10.545372954000,-0.139000000000
10.553059239000,-0.218000000000
10.560745524000,-0.281000000000
10.568431809000,-0.328000000000
10.576118094000,-0.352000000000
10.583804379000,-0.362000000000
10.591490664000,-0.360000000000
10.599176949000,-0.352000000000
10.606863234000,-0.345000000000
10.614549519000,-0.338000000000
10.622235804000,-0.325000000000
10.629922089000,-0.313000000000
10.637608374000,-0.306000000000
10.645294659000,-0.298000000000
10.652980944000,-0.293000000000
10.660667229000,-0.289000000000
10.668353514000,-0.286000000000
10.676039799000,-0.281000000000
10.683726084000,-0.279000000000
10.691412369000,-0.279000000000
10.699098654000,-0.279000000000
10.706784939000,-0.276000000000
10.714471224000,-0.274000000000
10.722157509000,-0.276000000000
10.729843794000,-0.271000000000
10.737530079000,-0.267000000000
10.745216364000,-0.269000000000
10.752902649000,-0.267000000000
10.760588934000,-0.254000000000
10.768275219000,-0.249000000000
10.775961504000,-0.249000000000
10.783647789000,-0.244000000000
10.791334074000,-0.240000000000
10.799020359000,-0.242000000000
10.806706644000,-0.237000000000
10.814392929000,-0.230000000000
10.822079214000,-0.227000000000
10.829765499000,-0.225000000000
10.837451784000,-0.215000000000
10.845138069000,-0.193000000000
10.852824354000,-0.171000000000
10.860510639000,-0.166000000000
10.868196924000,-0.169000000000
10.875883209000,-0.161000000000
10.883569494000,-0.176000000000
10.891255779000,-0.213000000000
10.898942064000,-0.225000000000
10.906628349000,-0.205000000000
10.914314634000,-0.200000000000
10.922000919000,-0.210000000000
10.929687204000,-0.203000000000
10.937373489000,-0.191000000000
10.945059830000,-0.191000000000
10.952746115000,-0.195000000000
10.960432400000,-0.215000000000
10.968118685000,-0.276000000000
10.975804970000,-0.333000000000
10.983491255000,-0.137000000000
10.991177540000,0.534000000000
10.998863825000,1.420000000000
11.006550110000,1.876000000000
11.014236395000,1.141000000000
11.021922680000,-0.333000000000
11.029608965000,-0.786000000000
11.037295250000,-0.274000000000
11.044981535000,-0.186000000000
11.052667820000,-0.340000000000
11.060354105000,-0.242000000000
11.068040390000,-0.191000000000
11.075726675000,-0.237000000000
11.083412960000,-0.200000000000
11.091099245000,-0.154000000000
11.098785530000,-0.156000000000
11.106471815000,-0.142000000000
11.114158100000,-0.107000000000
11.121844385000,-0.078000000000
11.129530670000,-0.053000000000
11.137216955000,-0.024000000000
11.144903240000,0.009000000000
11.152589525000,0.039000000000
11.160275810000,0.068000000000
11.167962095000,0.107000000000
11.175648380000,0.142000000000
11.183334665000,0.161000000000
11.191020950000,0.176000000000
11.198707235000,0.188000000000
11.206393520000,0.181000000000
11.214079805000,0.164000000000
11.221766090000,0.142000000000
11.229452375000,0.124000000000
11.237138660000,0.102000000000
11.244824945000,0.053000000000
11.252511230000,-0.007000000000
11.260197515000,-0.078000000000
11.267883800000,-0.161000000000
11.275570085000,-0.237000000000
11.283256370000,-0.296000000000
11.290942655000,-0.335000000000
11.298628940000,-0.360000000000
11.306315225000,-0.367000000000
11.314001510000,-0.355000000000
11.321687795000,-0.342000000000
11.329374080000,-0.340000000000
11.337060365000,-0.330000000000
11.344746650000,-0.315000000000
11.352432935000,-0.306000000000
11.360119220000,-0.298000000000
11.367805505000,-0.296000000000
11.375491790000,-0.293000000000
11.383178075000,-0.286000000000
11.390864360000,-0.274000000000
11.398550645000,-0.274000000000
11.406236930000,-0.274000000000
11.413923215000,-0.271000000000
11.421609500000,-0.271000000000
11.429295785000,-0.269000000000
11.436982070000,-0.267000000000
11.444668355000,-0.267000000000
11.452354640000,-0.269000000000
11.460040925000,-0.264000000000
11.467727210000,-0.259000000000
11.475413495000,-0.254000000000
11.483099780000,-0.252000000000
11.490786065000,-0.254000000000
11.498472350000,-0.254000000000
11.506158695000,-0.244000000000
11.513844562000,-0.240000000000
11.521530429000,-0.244000000000
11.529216296000,-0.242000000000
11.536902163000,-0.225000000000
11.544588030000,-0.200000000000
11.552273897000,-0.178000000000
11.559959764000,-0.171000000000
11.567645631000,-0.173000000000
11.575331498000,-0.173000000000
11.583017365000,-0.191000000000
11.590703232000,-0.227000000000
11.598389099000,-0.240000000000
11.606074966000,-0.225000000000
11.613760833000,-0.222000000000
11.621446700000,-0.225000000000
11.629132567000,-0.218000000000
11.636818434000,-0.210000000000
11.644504301000,-0.208000000000
11.652190168000,-0.210000000000
11.659876035000,-0.232000000000
11.667561902000,-0.289000000000
11.675247769000,-0.347000000000
11.682933636000,-0.171000000000
11.690619503000,0.487000000000
11.698305370000,1.379000000000
11.705991237000,1.873000000000
11.713677104000,1.197000000000
11.721362971000,-0.303000000000
11.729048838000,-0.827000000000
11.736734705000,-0.308000000000
11.744420572000,-0.191000000000
11.752106439000,-0.360000000000
11.759792306000,-0.259000000000
11.767478173000,-0.198000000000
11.775164040000,-0.252000000000
11.782849907000,-0.218000000000
11.790535774000,-0.166000000000
11.798221641000,-0.166000000000
11.805907508000,-0.151000000000
11.813593375000,-0.115000000000
11.821279242000,-0.095000000000
11.828965109000,-0.073000000000
11.836650976000,-0.039000000000
11.844336843000,-0.009000000000
11.852022710000,0.019000000000
11.859708577000,0.053000000000
11.867394444000,0.088000000000
11.875080311000,0.117000000000
11.882766178000,0.144000000000
11.890452045000,0.164000000000
11.898137912000,0.169000000000
11.905823779000,0.161000000000
11.913509646000,0.146000000000
11.921195513000,0.129000000000
11.928881380000,0.110000000000
11.936567247000,0.075000000000
11.944253114000,0.024000000000
11.951938981000,-0.039000000000
11.959624848000,-0.115000000000
11.967310715000,-0.193000000000
11.974996582000,-0.267000000000
11.982682449000,-0.323000000000
11.990368316000,-0.360000000000
11.998054183000,-0.377000000000
12.005740050000,-0.382000000000
12.013425917000,-0.377000000000
12.021111784000,-0.367000000000
12.028797651000,-0.355000000000
12.036483518000,-0.342000000000
12.044169385000,-0.330000000000
12.051855252000,-0.320000000000
12.059541119000,-0.313000000000
12.067227038000,-0.306000000000
12.074913323000,-0.298000000000
12.082599608000,-0.293000000000
12.090285893000,-0.291000000000
12.097972178000,-0.289000000000
12.105658463000,-0.286000000000
12.113344748000,-0.286000000000
12.121031033000,-0.284000000000
12.128717318000,-0.281000000000
12.136403603000,-0.281000000000
12.144089888000,-0.284000000000
12.151776173000,-0.279000000000
12.159462458000,-0.279000000000
12.167148743000,-0.276000000000
12.174835028000,-0.271000000000
12.182521313000,-0.269000000000
12.190207598000,-0.267000000000
12.197893883000,-0.262000000000
12.205580168000,-0.257000000000
12.213266453000,-0.254000000000
12.220952738000,-0.254000000000
12.228639023000,-0.254000000000
12.236325308000,-0.244000000000
12.244011593000,-0.225000000000
12.251697878000,-0.198000000000
12.259384163000,-0.183000000000
12.267070448000,-0.181000000000
12.274756733000,-0.178000000000
12.282443018000,-0.188000000000
12.290129303000,-0.220000000000
12.297815588000,-0.244000000000
12.305501873000,-0.235000000000
12.313188158000,-0.225000000000
12.320874443000,-0.222000000000
12.328560728000,-0.220000000000
12.336247013000,-0.215000000000
12.343933298000,-0.213000000000
12.351619583000,-0.210000000000
12.359305868000,-0.225000000000
12.366992153000,-0.274000000000
12.374678438000,-0.352000000000
12.382364723000,-0.262000000000
12.390051008000,0.271000000000
12.397737293000,1.151000000000
12.405423578000,1.864000000000
12.413109863000,1.587000000000
12.420796148000,0.124000000000
12.428482433000,-0.849000000000
12.436168718000,-0.460000000000
12.443855003000,-0.132000000000
12.451541288000,-0.338000000000
12.459227573000,-0.328000000000
12.466913858000,-0.208000000000
12.474600143000,-0.244000000000
12.482286428000,-0.252000000000
12.489972713000,-0.191000000000
12.497658998000,-0.176000000000
12.505345283000,-0.171000000000
12.513031568000,-0.134000000000
12.520717853000,-0.107000000000
12.528404138000,-0.088000000000
12.536090423000,-0.058000000000
12.543776708000,-0.026000000000
12.551462993000,0.004000000000
12.559149278000,0.036000000000
12.566835563000,0.073000000000
12.574521848000,0.105000000000
12.582208133000,0.134000000000
12.589894418000,0.156000000000
12.597580703000,0.166000000000
12.605266988000,0.166000000000
12.612953273000,0.156000000000
12.620639558000,0.144000000000
12.628325899000,0.124000000000
12.636012184000,0.095000000000
12.643698469000,0.053000000000
12.651384754000,-0.007000000000
12.659071039000,-0.083000000000
12.666757324000,-0.166000000000
12.674443609000,-0.242000000000
12.682129894000,-0.303000000000
12.689816179000,-0.350000000000
12.697502464000,-0.372000000000
12.705188749000,-0.379000000000
12.712875034000,-0.379000000000
12.720561319000,-0.369000000000
12.728247604000,-0.355000000000
12.735933889000,-0.342000000000
12.743620174000,-0.333000000000
12.751306459000,-0.320000000000
12.758992744000,-0.311000000000
12.766679029000,-0.303000000000
12.774365314000,-0.298000000000
12.782051599000,-0.291000000000
12.789737884000,-0.289000000000
12.797424169000,-0.286000000000
12.805110454000,-0.284000000000
12.812796739000,-0.281000000000
12.820483024000,-0.281000000000
12.828169309000,-0.281000000000
12.835855594000,-0.281000000000
12.843541879000,-0.279000000000
12.851228164000,-0.276000000000
12.858914449000,-0.274000000000
12.866600734000,-0.274000000000
12.874287019000,-0.269000000000
12.881973304000,-0.267000000000
12.889659589000,-0.267000000000
12.897345874000,-0.262000000000
12.905032159000,-0.257000000000
12.912718444000,-0.254000000000
12.920404729000,-0.254000000000
12.928091014000,-0.252000000000
12.935777299000,-0.240000000000
12.943463584000,-0.213000000000
12.951149869000,-0.191000000000
12.958836154000,-0.186000000000
12.966522439000,-0.181000000000
12.974208724000,-0.178000000000
12.981895009000,-0.193000000000
12.989581294000,-0.227000000000
12.997267579000,-0.240000000000
13.004953864000,-0.227000000000
13.012640149000,-0.220000000000
13.020326434000,-0.220000000000
13.028012719000,-0.215000000000
13.035699004000,-0.210000000000
13.043385289000,-0.208000000000
13.051071574000,-0.210000000000
13.058757859000,-0.230000000000
13.066444144000,-0.293000000000
13.074130429000,-0.355000000000
13.081816714000,-0.159000000000
13.089502999000,0.507000000000
13.097189284000,1.403000000000
13.104875569000,1.922000000000
13.112561854000,1.254000000000
13.120248139000,-0.281000000000
13.127934424000,-0.832000000000
13.135620709000,-0.296000000000
13.143306994000,-0.164000000000
13.150993279000,-0.364000000000
13.158679564000,-0.284000000000
13.166365849000,-0.203000000000
13.174052134000,-0.254000000000
13.181738419000,-0.235000000000
13.189424760000,-0.181000000000
13.197110627000,-0.176000000000
13.204796494000,-0.161000000000
13.212482361000,-0.124000000000
13.220168228000,-0.102000000000
13.227854095000,-0.080000000000
13.235539962000,-0.048000000000
13.243225829000,-0.017000000000
13.250911696000,0.012000000000
13.258597563000,0.048000000000
13.266283430000,0.085000000000
13.273969297000,0.117000000000
13.281655164000,0.146000000000
13.289341031000,0.166000000000
13.297026898000,0.176000000000
13.304712765000,0.173000000000
13.312398632000,0.161000000000
13.320084499000,0.144000000000
13.327770366000,0.122000000000
13.335456233000,0.093000000000
13.343142100000,0.044000000000
13.350827967000,-0.026000000000
13.358513834000,-0.107000000000
13.366199701000,-0.188000000000
13.373885568000,-0.264000000000
13.381571435000,-0.323000000000
13.389257302000,-0.360000000000
13.396943169000,-0.377000000000
13.404629036000,-0.382000000000
13.412314903000,-0.377000000000
13.420000770000,-0.367000000000
13.427686637000,-0.352000000000
13.435372504000,-0.340000000000
13.443058371000,-0.330000000000
13.450744238000,-0.318000000000
13.458430105000,-0.308000000000
13.466115972000,-0.301000000000
13.473801839000,-0.296000000000
13.481487706000,-0.291000000000
13.489173573000,-0.289000000000
13.496859440000,-0.286000000000
13.504545307000,-0.286000000000
13.512231174000,-0.284000000000
13.519917041000,-0.281000000000
13.527602908000,-0.281000000000
13.535288775000,-0.279000000000
13.542974642000,-0.276000000000
13.550660509000,-0.274000000000
13.558346376000,-0.271000000000
13.566032243000,-0.271000000000
13.573718110000,-0.267000000000
13.581403977000,-0.264000000000
13.589089844000,-0.259000000000
13.596775711000,-0.257000000000
13.604461578000,-0.252000000000
13.612147445000,-0.247000000000
13.619833312000,-0.247000000000
13.627519179000,-0.247000000000
13.635205046000,-0.242000000000
13.642890913000,-0.222000000000
13.650576780000,-0.193000000000
13.658262647000,-0.178000000000
13.665948514000,-0.176000000000
13.673634381000,-0.173000000000
13.681320248000,-0.176000000000
13.689006115000,-0.208000000000
13.696691982000,-0.235000000000
13.704377849000,-0.230000000000
13.712063716000,-0.218000000000
13.719749583000,-0.218000000000
13.727435450000,-0.215000000000
13.735121317000,-0.208000000000
13.742807184000,-0.205000000000
13.750493103000,-0.203000000000
13.758179388000,-0.210000000000
13.765865673000,-0.244000000000
13.773551958000,-0.320000000000
13.781238243000,-0.328000000000
13.788924528000,0.024000000000
13.796610813000,0.810000000000
13.804297098000,1.665000000000
13.811983383000,1.849000000000
13.819669668000,0.722000000000
13.827355953000,-0.658000000000
13.835042238000,-0.678000000000
13.842728523000,-0.161000000000
13.850414808000,-0.249000000000
13.858101093000,-0.362000000000
13.865787378000,-0.232000000000
13.873473663000,-0.220000000000
13.881159948000,-0.259000000000
13.888846233000,-0.210000000000
13.896532518000,-0.178000000000
13.904218803000,-0.178000000000
13.911905088000,-0.149000000000
13.919591373000,-0.117000000000
13.927277658000,-0.097000000000
13.934963943000,-0.071000000000
13.942650228000,-0.036000000000
13.950336513000,-0.007000000000
13.958022798000,0.024000000000
13.965709083000,0.061000000000
13.973395368000,0.095000000000
13.981081653000,0.127000000000
13.988767938000,0.154000000000
13.996454223000,0.171000000000
14.004140508000,0.176000000000
14.011826793000,0.169000000000
14.019513078000,0.156000000000
14.027199363000,0.139000000000
14.034885648000,0.117000000000
14.042571933000,0.080000000000
14.050258218000,0.024000000000
14.057944503000,-0.048000000000
14.065630788000,-0.129000000000
14.073317073000,-0.208000000000
14.081003358000,-0.279000000000
14.088689643000,-0.330000000000
14.096375928000,-0.360000000000
14.104062213000,-0.374000000000
14.111748498000,-0.374000000000
14.119434783000,-0.367000000000
14.127121068000,-0.355000000000
14.134807353000,-0.342000000000
14.142493638000,-0.330000000000
14.150179923000,-0.318000000000
14.157866208000,-0.308000000000
14.165552493000,-0.301000000000
14.173238778000,-0.293000000000
14.180925063000,-0.289000000000
14.188611348000,-0.286000000000
14.196297633000,-0.284000000000
14.203983918000,-0.281000000000
14.211670203000,-0.279000000000
14.219356488000,-0.276000000000
14.227042773000,-0.276000000000
14.234729058000,-0.274000000000
14.242415343000,-0.274000000000
14.250101628000,-0.271000000000
14.257787913000,-0.267000000000
14.265474198000,-0.267000000000
14.273160483000,-0.264000000000
14.280846768000,-0.259000000000
14.288533053000,-0.254000000000
14.296219338000,-0.252000000000
14.303905623000,-0.249000000000
14.311591964000,-0.242000000000
14.319278249000,-0.237000000000
14.326964534000,-0.237000000000
14.334650819000,-0.237000000000
14.342337104000,-0.237000000000
14.350023389000,-0.225000000000
14.357709674000,-0.195000000000
14.365395959000,-0.176000000000
14.373082244000,-0.171000000000
14.380768529000,-0.169000000000
14.388454814000,-0.166000000000
14.396141099000,-0.191000000000
14.403827384000,-0.227000000000
14.411513669000,-0.232000000000
14.419199954000,-0.215000000000
14.426886239000,-0.213000000000
14.434572524000,-0.210000000000
14.442258809000,-0.208000000000
14.449945094000,-0.203000000000
14.457631379000,-0.198000000000
14.465317664000,-0.195000000000
14.473003949000,-0.218000000000
14.480690234000,-0.279000000000
14.488376519000,-0.342000000000
14.496062804000,-0.183000000000
14.503749089000,0.436000000000
14.511435374000,1.325000000000
14.519121659000,1.905000000000
14.526807944000,1.352000000000
14.534494229000,-0.161000000000
14.542180514000,-0.825000000000
14.549866799000,-0.328000000000
14.557553084000,-0.146000000000
14.565239369000,-0.345000000000
14.572925654000,-0.281000000000
14.580611939000,-0.191000000000
14.588298224000,-0.235000000000
14.595984509000,-0.220000000000
14.603670794000,-0.169000000000
14.611357079000,-0.164000000000
14.619043364000,-0.149000000000
14.626729649000,-0.112000000000
14.634415934000,-0.093000000000
14.642102219000,-0.071000000000
14.649788504000,-0.036000000000
14.657474789000,-0.002000000000
14.665161074000,0.026000000000
14.672847359000,0.058000000000
14.680533644000,0.093000000000
14.688219929000,0.132000000000
14.695906214000,0.166000000000
14.703592499000,0.186000000000
14.711278784000,0.188000000000
14.718965069000,0.188000000000
14.726651354000,0.183000000000
14.734337639000,0.166000000000
14.742023924000,0.139000000000
14.749710209000,0.112000000000
14.757396494000,0.068000000000
14.765082779000,0.000000000000
14.772769064000,-0.078000000000
14.780455349000,-0.151000000000
14.788141634000,-0.227000000000
14.795827919000,-0.301000000000
14.803514204000,-0.342000000000
14.811200489000,-0.355000000000
14.818886774000,-0.360000000000
14.826573059000,-0.357000000000
14.834259344000,-0.347000000000
14.841945629000,-0.342000000000
14.849631914000,-0.330000000000
14.857318199000,-0.313000000000
14.865004484000,-0.303000000000
14.872690829000,-0.293000000000
14.880376696000,-0.281000000000
14.888062563000,-0.276000000000
14.895748430000,-0.276000000000
14.903434297000,-0.271000000000
14.911120164000,-0.269000000000
14.918806031000,-0.269000000000
14.926491898000,-0.267000000000
14.934177765000,-0.264000000000
14.941863632000,-0.267000000000
14.949549499000,-0.271000000000
14.957235366000,-0.269000000000
14.964921233000,-0.262000000000
14.972607100000,-0.252000000000
14.980292967000,-0.249000000000
14.987978834000,-0.252000000000
14.995664701000,-0.252000000000
15.003350568000,-0.244000000000
15.011036435000,-0.237000000000
15.018722302000,-0.232000000000
15.026408169000,-0.230000000000
15.034094036000,-0.225000000000
15.041779903000,-0.225000000000
15.049465770000,-0.225000000000
15.057151637000,-0.218000000000
15.064837504000,-0.195000000000
15.072523371000,-0.173000000000
15.080209238000,-0.164000000000
15.087895105000,-0.154000000000
15.095580972000,-0.146000000000
15.103266839000,-0.156000000000
15.110952706000,-0.191000000000
15.118638573000,-0.210000000000
15.126324440000,-0.203000000000
15.134010307000,-0.193000000000
15.141696174000,-0.193000000000
15.149382041000,-0.191000000000
15.157067908000,-0.181000000000
15.164753775000,-0.176000000000
15.172439642000,-0.178000000000
15.180125509000,-0.188000000000
15.187811376000,-0.215000000000
15.195497243000,-0.291000000000
15.203183110000,-0.296000000000
15.210868977000,0.100000000000
15.218554844000,0.940000000000
15.226240711000,1.729000000000
15.233926578000,1.726000000000
15.241612445000,0.524000000000
15.249298312000,-0.690000000000
15.256984179000,-0.580000000000
15.264670046000,-0.134000000000
15.272355913000,-0.247000000000
15.280041780000,-0.301000000000
15.287727647000,-0.181000000000
15.295413514000,-0.193000000000
15.303099381000,-0.210000000000
15.310785248000,-0.151000000000
15.318471115000,-0.129000000000
15.326156982000,-0.122000000000
15.333842849000,-0.085000000000
15.341528716000,-0.058000000000
15.349214583000,-0.044000000000
15.356900450000,-0.022000000000
15.364586317000,0.014000000000
15.372272184000,0.046000000000
15.379958051000,0.078000000000
15.387643918000,0.117000000000
15.395329785000,0.159000000000
15.403015652000,0.191000000000
15.410701519000,0.210000000000
15.418387386000,0.220000000000
15.426073253000,0.225000000000
15.433759172000,0.210000000000
15.441445457000,0.186000000000
15.449131742000,0.166000000000
15.456818027000,0.144000000000
15.464504312000,0.107000000000
15.472190597000,0.051000000000
15.479876882000,-0.017000000000
15.487563167000,-0.100000000000
15.495249452000,-0.193000000000
15.502935737000,-0.259000000000
15.510622022000,-0.303000000000
15.518308307000,-0.340000000000
15.525994592000,-0.357000000000
15.533680877000,-0.357000000000
15.541367162000,-0.350000000000
15.549053447000,-0.338000000000
15.556739732000,-0.325000000000
15.564426017000,-0.313000000000
15.572112302000,-0.301000000000
15.579798587000,-0.291000000000
15.587484872000,-0.281000000000
15.595171157000,-0.269000000000
15.602857442000,-0.264000000000
15.610543727000,-0.264000000000
15.618230012000,-0.257000000000
15.625916297000,-0.252000000000
15.633602582000,-0.252000000000
15.641288867000,-0.252000000000
15.648975152000,-0.252000000000
15.656661437000,-0.247000000000
15.664347722000,-0.240000000000
15.672034007000,-0.232000000000
15.679720292000,-0.232000000000
15.687406577000,-0.232000000000
15.695092862000,-0.230000000000
15.702779147000,-0.232000000000
15.710465432000,-0.232000000000
15.718151717000,-0.222000000000
15.725838002000,-0.220000000000
15.733524287000,-0.220000000000
15.741210572000,-0.215000000000
15.748896857000,-0.215000000000
15.756583142000,-0.208000000000
15.764269427000,-0.186000000000
15.771955712000,-0.164000000000
15.779641997000,-0.154000000000
15.787328282000,-0.149000000000
15.795014567000,-0.149000000000
15.802700852000,-0.166000000000
15.810387137000,-0.200000000000
15.818073422000,-0.218000000000
15.825759707000,-0.210000000000
15.833445992000,-0.200000000000
15.841132277000,-0.198000000000
15.848818562000,-0.193000000000
15.856504847000,-0.193000000000
15.864191132000,-0.188000000000
15.871877417000,-0.183000000000
15.879563702000,-0.200000000000
15.887249987000,-0.244000000000
15.894936272000,-0.315000000000
15.902622557000,-0.247000000000
15.910308842000,0.274000000000
15.917995127000,1.151000000000
15.925681412000,1.817000000000
15.933367697000,1.513000000000
15.941053982000,0.120000000000
15.948740267000,-0.813000000000
15.956426552000,-0.458000000000
15.964112837000,-0.144000000000
15.971799122000,-0.313000000000
15.979485407000,-0.284000000000
15.987171692000,-0.173000000000
15.994858033000,-0.218000000000
16.002544318000,-0.220000000000
16.010230603000,-0.159000000000
16.017916888000,-0.146000000000
16.025603173000,-0.144000000000
16.033289458000,-0.112000000000
16.040975743000,-0.083000000000
16.048662028000,-0.061000000000
16.056348313000,-0.031000000000
16.064034598000,0.000000000000
16.071720883000,0.029000000000
16.079407168000,0.061000000000
16.087093453000,0.100000000000
16.094779738000,0.134000000000
16.102466023000,0.161000000000
16.110152308000,0.183000000000
16.117838593000,0.193000000000
16.125524878000,0.188000000000
16.133211163000,0.173000000000
16.140897448000,0.156000000000
16.148583733000,0.132000000000
16.156270018000,0.100000000000
16.163956303000,0.056000000000
16.171642588000,-0.009000000000
16.179328873000,-0.090000000000
16.187015158000,-0.173000000000
16.194701443000,-0.247000000000
16.202387728000,-0.308000000000
16.210074013000,-0.350000000000
16.217760298000,-0.372000000000
16.225446583000,-0.382000000000
16.233132868000,-0.379000000000
16.240819153000,-0.367000000000
16.248505438000,-0.357000000000
16.256191723000,-0.345000000000
16.263878008000,-0.333000000000
16.271564293000,-0.323000000000
16.279250578000,-0.313000000000
16.286936863000,-0.303000000000
16.294623148000,-0.301000000000
16.302309433000,-0.296000000000
16.309995718000,-0.291000000000
16.317682003000,-0.286000000000
16.325368288000,-0.281000000000
16.333054573000,-0.279000000000
16.340740858000,-0.279000000000
16.348427143000,-0.276000000000
16.356113428000,-0.276000000000
16.363799713000,-0.276000000000
16.371485998000,-0.274000000000
16.379172283000,-0.271000000000
16.386858568000,-0.271000000000
16.394544853000,-0.267000000000
16.402231138000,-0.264000000000
16.409917423000,-0.264000000000
16.417603708000,-0.264000000000
16.425289993000,-0.257000000000
16.432976278000,-0.249000000000
16.440662563000,-0.247000000000
16.448348848000,-0.247000000000
16.456035133000,-0.247000000000
16.463721418000,-0.242000000000
16.471407703000,-0.222000000000
16.479093988000,-0.198000000000
16.486780273000,-0.183000000000
16.494466558000,-0.181000000000
16.502152843000,-0.176000000000
16.509839128000,-0.181000000000
16.517525413000,-0.210000000000
16.525211698000,-0.237000000000
16.532897983000,-0.232000000000
16.540584268000,-0.222000000000
16.548270553000,-0.222000000000
16.555956894000,-0.218000000000
16.563642761000,-0.210000000000
16.571328628000,-0.210000000000
16.579014495000,-0.208000000000
16.586700362000,-0.215000000000
16.594386229000,-0.252000000000
16.602072096000,-0.333000000000
16.609757963000,-0.330000000000
16.617443830000,0.048000000000
16.625129697000,0.854000000000
16.632815564000,1.702000000000
16.640501431000,1.849000000000
16.648187298000,0.678000000000
16.655873165000,-0.690000000000
16.663559032000,-0.666000000000
16.671244899000,-0.151000000000
16.678930766000,-0.259000000000
16.686616633000,-0.367000000000
16.694302500000,-0.232000000000
16.701988367000,-0.225000000000
16.709674234000,-0.264000000000
16.717360101000,-0.210000000000
16.725045968000,-0.176000000000
16.732731835000,-0.178000000000
16.740417702000,-0.149000000000
16.748103569000,-0.115000000000
16.755789436000,-0.095000000000
16.763475303000,-0.071000000000
16.771161170000,-0.039000000000
16.778847037000,-0.007000000000
16.786532904000,0.026000000000
16.794218771000,0.063000000000
16.801904638000,0.100000000000
16.809590505000,0.132000000000
16.817276372000,0.159000000000
16.824962239000,0.176000000000
16.832648106000,0.183000000000
16.840333973000,0.178000000000
16.848019840000,0.164000000000
16.855705707000,0.144000000000
16.863391574000,0.120000000000
16.871077441000,0.080000000000
16.878763308000,0.022000000000
16.886449175000,-0.056000000000
16.894135042000,-0.139000000000
16.901820909000,-0.220000000000
16.909506776000,-0.293000000000
16.917192643000,-0.345000000000
16.924878510000,-0.374000000000
16.932564377000,-0.384000000000
16.940250244000,-0.384000000000
16.947936111000,-0.379000000000
16.955621978000,-0.364000000000
16.963307845000,-0.352000000000
16.970993712000,-0.340000000000
16.978679579000,-0.325000000000
16.986365446000,-0.313000000000
16.994051313000,-0.303000000000
17.001737180000,-0.296000000000
17.009423047000,-0.293000000000
17.017108914000,-0.291000000000
17.024794781000,-0.286000000000
17.032480648000,-0.284000000000
17.040166515000,-0.281000000000
17.047852382000,-0.279000000000
17.055538249000,-0.279000000000
17.063224116000,-0.276000000000
17.070909983000,-0.274000000000
17.078595850000,-0.274000000000
17.086281717000,-0.269000000000
17.093967584000,-0.267000000000
17.101653451000,-0.267000000000
17.109339318000,-0.264000000000
17.117025237000,-0.259000000000
17.124711522000,-0.259000000000
17.132397807000,-0.259000000000
17.140084092000,-0.254000000000
17.147770377000,-0.249000000000
17.155456662000,-0.247000000000
17.163142947000,-0.242000000000
17.170829232000,-0.240000000000
17.178515517000,-0.242000000000
17.186201802000,-0.240000000000
17.193888087000,-0.220000000000
17.201574372000,-0.193000000000
17.209260657000,-0.176000000000
17.216946942000,-0.173000000000
17.224633227000,-0.169000000000
17.232319512000,-0.169000000000
17.240005797000,-0.195000000000
17.247692082000,-0.225000000000
17.255378367000,-0.225000000000
17.263064652000,-0.215000000000
17.270750937000,-0.213000000000
17.278437222000,-0.208000000000
17.286123507000,-0.203000000000
17.293809792000,-0.200000000000
17.301496077000,-0.198000000000
17.309182362000,-0.203000000000
17.316868647000,-0.230000000000
17.324554932000,-0.301000000000
17.332241217000,-0.335000000000
17.339927502000,-0.063000000000
17.347613787000,0.658000000000
17.355300072000,1.543000000000
17.362986357000,1.942000000000
17.370672642000,1.077000000000
17.378358927000,-0.438000000000
17.386045212000,-0.771000000000
17.393731497000,-0.215000000000
17.401417782000,-0.186000000000
17.409104067000,-0.364000000000
17.416790352000,-0.257000000000
17.424476637000,-0.208000000000
17.432162922000,-0.259000000000
17.439849207000,-0.220000000000
17.447535492000,-0.171000000000
17.455221777000,-0.171000000000
17.462908062000,-0.149000000000
17.470594347000,-0.112000000000
17.478280632000,-0.093000000000
17.485966917000,-0.071000000000
17.493653202000,-0.034000000000
17.501339487000,-0.002000000000
17.509025772000,0.029000000000
17.516712057000,0.066000000000
17.524398342000,0.102000000000
17.532084627000,0.137000000000
17.539770912000,0.166000000000
17.547457197000,0.188000000000
17.555143482000,0.195000000000
17.562829767000,0.193000000000
17.570516052000,0.183000000000
17.578202337000,0.169000000000
17.585888622000,0.146000000000
17.593574907000,0.115000000000
17.601261192000,0.061000000000
17.608947477000,-0.012000000000
17.616633762000,-0.095000000000
17.624320047000,-0.181000000000
17.632006332000,-0.254000000000
17.639692617000,-0.313000000000
17.647378902000,-0.350000000000
17.655065187000,-0.367000000000
17.662751472000,-0.369000000000
17.670437757000,-0.364000000000
17.678124098000,-0.355000000000
17.685810383000,-0.342000000000
17.693496668000,-0.330000000000
17.701182953000,-0.320000000000
17.708869238000,-0.308000000000
17.716555523000,-0.296000000000
17.724241808000,-0.291000000000
17.731928093000,-0.286000000000
17.739614378000,-0.281000000000
17.747300663000,-0.279000000000
17.754986948000,-0.276000000000
17.762673233000,-0.274000000000
17.770359518000,-0.271000000000
17.778045803000,-0.269000000000
17.785732088000,-0.269000000000
17.793418373000,-0.267000000000
17.801104658000,-0.267000000000
17.808790943000,-0.262000000000
17.816477228000,-0.259000000000
17.824163513000,-0.257000000000
17.831849798000,-0.254000000000
17.839536083000,-0.249000000000
17.847222368000,-0.247000000000
17.854908653000,-0.242000000000
17.862594938000,-0.237000000000
17.870281223000,-0.232000000000
17.877967508000,-0.227000000000
17.885653793000,-0.225000000000
17.893340078000,-0.225000000000
17.901026363000,-0.225000000000
17.908712648000,-0.218000000000
17.916398933000,-0.198000000000
17.924085218000,-0.173000000000
17.931771503000,-0.164000000000
17.939457788000,-0.161000000000
17.947144073000,-0.156000000000
17.954830358000,-0.161000000000
17.962516643000,-0.193000000000
17.970202928000,-0.220000000000
17.977889213000,-0.213000000000
17.985575498000,-0.200000000000
17.993261783000,-0.200000000000
18.000948068000,-0.198000000000
18.008634353000,-0.193000000000
18.016320638000,-0.191000000000
18.024006923000,-0.188000000000
18.031693208000,-0.195000000000
18.039379493000,-0.227000000000
18.047065778000,-0.301000000000
18.054752063000,-0.325000000000
18.062438348000,-0.019000000000
18.070124633000,0.734000000000
18.077810918000,1.609000000000
18.085497203000,1.913000000000
18.093183488000,0.935000000000
18.100869773000,-0.526000000000
18.108556058000,-0.727000000000
18.116242343000,-0.186000000000
18.123928628000,-0.210000000000
18.131614913000,-0.360000000000
18.139301198000,-0.240000000000
18.146987483000,-0.205000000000
18.154673768000,-0.252000000000
18.162360053000,-0.210000000000
18.170046338000,-0.169000000000
18.177732623000,-0.169000000000
18.185418908000,-0.144000000000
18.193105193000,-0.110000000000
18.200791478000,-0.090000000000
18.208477763000,-0.066000000000
18.216164048000,-0.034000000000
18.223850333000,-0.002000000000
18.231536618000,0.026000000000
18.239222963000,0.066000000000
18.246908970000,0.100000000000
18.254594977000,0.132000000000
18.262280984000,0.159000000000
18.269966991000,0.181000000000
18.277652998000,0.188000000000
18.285339005000,0.186000000000
18.293025012000,0.173000000000
18.300711019000,0.156000000000
18.308397026000,0.134000000000
18.316083033000,0.097000000000
18.323769040000,0.041000000000
18.331455047000,-0.034000000000
18.339141054000,-0.117000000000
18.346827061000,-0.203000000000
18.354513068000,-0.279000000000
18.362199075000,-0.335000000000
18.369885082000,-0.369000000000
18.377571089000,-0.382000000000
18.385257096000,-0.387000000000
18.392943103000,-0.384000000000
18.400629110000,-0.374000000000
18.408315117000,-0.357000000000
18.416001124000,-0.347000000000
18.423687131000,-0.338000000000
18.431373138000,-0.330000000000
18.439059145000,-0.320000000000
18.446745152000,-0.311000000000
18.454431159000,-0.306000000000
18.462117166000,-0.303000000000
18.469803173000,-0.301000000000
18.477489180000,-0.298000000000
18.485175187000,-0.296000000000
18.492861194000,-0.296000000000
18.500547201000,-0.293000000000
18.508233208000,-0.293000000000
18.515919215000,-0.298000000000
18.523605222000,-0.298000000000
18.531291229000,-0.291000000000
18.538977236000,-0.286000000000
18.546663243000,-0.284000000000
18.554349250000,-0.279000000000
18.562035257000,-0.274000000000
18.569721264000,-0.271000000000
18.577407271000,-0.271000000000
18.585093278000,-0.269000000000
18.592779285000,-0.262000000000
18.600465292000,-0.259000000000
18.608151299000,-0.264000000000
18.615837306000,-0.262000000000
18.623523313000,-0.247000000000
18.631209320000,-0.222000000000
18.638895327000,-0.203000000000
18.646581334000,-0.193000000000
18.654267341000,-0.188000000000
18.661953348000,-0.181000000000
18.669639355000,-0.200000000000
18.677325362000,-0.240000000000
18.685011369000,-0.249000000000
18.692697376000,-0.237000000000
18.700383383000,-0.237000000000
18.708069390000,-0.232000000000
18.715755397000,-0.218000000000
18.723441404000,-0.215000000000
18.731127411000,-0.218000000000
18.738813418000,-0.215000000000
18.746499425000,-0.232000000000
18.754185432000,-0.281000000000
18.761871439000,-0.357000000000
18.769557446000,-0.289000000000
18.777243453000,0.203000000000
18.784929460000,1.063000000000
18.792615467000,1.805000000000
18.800301480000,1.641000000000
18.807987626000,0.264000000000
18.815673772000,-0.820000000000
18.823359918000,-0.534000000000
18.831046064000,-0.154000000000
18.838732210000,-0.323000000000
18.846418356000,-0.340000000000
18.854104502000,-0.218000000000
18.861790648000,-0.249000000000
18.869476794000,-0.269000000000
18.877162940000,-0.208000000000
18.884849086000,-0.183000000000
18.892535232000,-0.178000000000
18.900221378000,-0.146000000000
18.907907524000,-0.112000000000
18.915593670000,-0.093000000000
18.923279816000,-0.066000000000
18.930965962000,-0.029000000000
18.938652108000,0.002000000000
18.946338254000,0.029000000000
18.954024400000,0.068000000000
18.961710546000,0.110000000000
18.969396692000,0.144000000000
18.977082838000,0.166000000000
18.984768984000,0.178000000000
18.992455130000,0.188000000000
19.000141276000,0.183000000000
19.007827422000,0.169000000000
19.015513568000,0.146000000000
19.023199714000,0.115000000000
19.030885860000,0.073000000000
19.038572006000,0.009000000000
19.046258152000,-0.075000000000
19.053944298000,-0.159000000000
19.061630444000,-0.242000000000
19.069316590000,-0.313000000000
19.077002736000,-0.355000000000
19.084688882000,-0.379000000000
19.092375028000,-0.399000000000
19.100061174000,-0.404000000000
19.107747320000,-0.387000000000
19.115433466000,-0.367000000000
19.123119612000,-0.362000000000
19.130805758000,-0.355000000000
19.138491904000,-0.338000000000
19.146178050000,-0.323000000000
19.153864196000,-0.315000000000
19.161550342000,-0.306000000000
19.169236488000,-0.301000000000
19.176922634000,-0.301000000000
19.184608780000,-0.293000000000
19.192294926000,-0.284000000000
19.199981072000,-0.289000000000
19.207667218000,-0.289000000000
19.215353364000,-0.284000000000
19.223039510000,-0.284000000000
19.230725656000,-0.286000000000
19.238411802000,-0.279000000000
19.246097948000,-0.269000000000
19.253784094000,-0.274000000000
19.261470240000,-0.279000000000
19.269156386000,-0.271000000000
19.276842532000,-0.264000000000
19.284528678000,-0.259000000000
19.292214824000,-0.259000000000
19.299900970000,-0.259000000000
19.307587116000,-0.252000000000
19.315273262000,-0.244000000000
19.322959408000,-0.242000000000
19.330645554000,-0.232000000000
19.338331700000,-0.208000000000
19.346017846000,-0.188000000000
19.353703992000,-0.183000000000
19.361390167000,-0.181000000000
19.369076452000,-0.176000000000
19.376762737000,-0.191000000000
19.384449022000,-0.225000000000
19.392135307000,-0.235000000000
19.399821592000,-0.222000000000
19.407507877000,-0.227000000000
19.415194162000,-0.225000000000
19.422880447000,-0.213000000000
19.430566732000,-0.210000000000
19.438253017000,-0.213000000000
19.445939302000,-0.210000000000
19.453625587000,-0.225000000000
19.461311872000,-0.267000000000
19.468998157000,-0.338000000000
19.476684442000,-0.281000000000
19.484370727000,0.225000000000
19.492057012000,1.112000000000
19.499743297000,1.817000000000
19.507429582000,1.570000000000
19.515115867000,0.181000000000
19.522802152000,-0.820000000000
19.530488437000,-0.497000000000
19.538174722000,-0.156000000000
19.545861007000,-0.328000000000
19.553547292000,-0.308000000000
19.561233577000,-0.191000000000
19.568919862000,-0.232000000000
19.576606147000,-0.237000000000
19.584292432000,-0.171000000000
19.591978717000,-0.159000000000
19.599665002000,-0.154000000000
19.607351287000,-0.120000000000
19.615037572000,-0.093000000000
19.622723857000,-0.071000000000
19.630410142000,-0.039000000000
19.638096427000,-0.004000000000
19.645782712000,0.026000000000
19.653468997000,0.061000000000
19.661155282000,0.095000000000
19.668841567000,0.129000000000
19.676527852000,0.161000000000
19.684214137000,0.186000000000
19.691900422000,0.203000000000
19.699586707000,0.203000000000
19.707272992000,0.191000000000
19.714959277000,0.171000000000
19.722645562000,0.149000000000
19.730331847000,0.120000000000
19.738018132000,0.073000000000
19.745704417000,0.007000000000
19.753390702000,-0.073000000000
19.761076987000,-0.159000000000
19.768763272000,-0.240000000000
19.776449557000,-0.308000000000
19.784135842000,-0.352000000000
19.791822127000,-0.374000000000
19.799508412000,-0.384000000000
19.807194697000,-0.387000000000
19.814880982000,-0.377000000000
19.822567267000,-0.364000000000
19.830253552000,-0.352000000000
19.837939837000,-0.340000000000
19.845626122000,-0.325000000000
19.853312407000,-0.315000000000
19.860998692000,-0.308000000000
19.868684977000,-0.298000000000
19.876371262000,-0.291000000000
19.884057547000,-0.286000000000
19.891743832000,-0.284000000000
19.899430117000,-0.281000000000
19.907116402000,-0.279000000000
19.914802687000,-0.276000000000
19.922489028000,-0.274000000000
19.930175244000,-0.274000000000
19.937861460000,-0.274000000000
19.945547676000,-0.274000000000
19.953233892000,-0.274000000000
19.960920108000,-0.271000000000
19.968606324000,-0.269000000000
19.976292540000,-0.269000000000
19.983978756000,-0.267000000000
19.991664972000,-0.264000000000
19.999351188000,-0.259000000000
20.007037404000,-0.257000000000
20.014723620000,-0.252000000000
20.022409836000,-0.244000000000
20.030096052000,-0.244000000000
20.037782268000,-0.244000000000
20.045468484000,-0.235000000000
20.053154700000,-0.210000000000
20.060840916000,-0.183000000000
20.068527132000,-0.173000000000
20.076213348000,-0.173000000000
20.083899564000,-0.169000000000
20.091585780000,-0.181000000000
20.099271996000,-0.215000000000
20.106958212000,-0.232000000000
20.114644428000,-0.222000000000
20.122330644000,-0.213000000000
20.130016860000,-0.210000000000
20.137703076000,-0.205000000000
20.145389292000,-0.203000000000
20.153075508000,-0.200000000000
20.160761724000,-0.198000000000
20.168447940000,-0.213000000000
20.176134156000,-0.259000000000
20.183820372000,-0.335000000000
20.191506588000,-0.276000000000
20.199192804000,0.210000000000
20.206879020000,1.072000000000
20.214565236000,1.846000000000
20.222251452000,1.736000000000
20.229937668000,0.355000000000
20.237623884000,-0.803000000000
20.245310100000,-0.531000000000
20.252996316000,-0.117000000000
20.260682532000,-0.301000000000
20.268368748000,-0.342000000000
20.276054964000,-0.208000000000
20.283741180000,-0.232000000000
20.291427396000,-0.254000000000
20.299113612000,-0.191000000000
20.306799828000,-0.171000000000
20.314486044000,-0.169000000000
20.322172260000,-0.134000000000
20.329858476000,-0.105000000000
20.337544692000,-0.085000000000
20.345230908000,-0.053000000000
20.352917124000,-0.019000000000
20.360603340000,0.009000000000
20.368289556000,0.044000000000
20.375975772000,0.080000000000
20.383661988000,0.117000000000
20.391348204000,0.151000000000
20.399034420000,0.181000000000
20.406720636000,0.195000000000
20.414406852000,0.200000000000
20.422093068000,0.195000000000
20.429779284000,0.183000000000
20.437465500000,0.164000000000
20.445151716000,0.137000000000
20.452837932000,0.097000000000
20.460524148000,0.031000000000
20.468210364000,-0.051000000000
20.475896580000,-0.137000000000
20.483582806000,-0.218000000000
20.491268743000,-0.289000000000
20.498954680000,-0.335000000000
20.506640617000,-0.362000000000
20.514326554000,-0.374000000000
20.522012491000,-0.372000000000
20.529698428000,-0.362000000000
20.537384365000,-0.352000000000
20.545070302000,-0.340000000000
20.552756239000,-0.325000000000
20.560442176000,-0.313000000000
20.568128113000,-0.303000000000
20.575814050000,-0.291000000000
20.583499987000,-0.284000000000
20.591185924000,-0.279000000000
20.598871861000,-0.274000000000
20.606557798000,-0.271000000000
20.614243735000,-0.269000000000
20.621929672000,-0.267000000000
20.629615609000,-0.264000000000
20.637301546000,-0.262000000000
20.644987483000,-0.262000000000
20.652673420000,-0.259000000000
20.660359357000,-0.257000000000
20.668045294000,-0.254000000000
20.675731231000,-0.252000000000
20.683417168000,-0.249000000000
20.691103105000,-0.247000000000
20.698789042000,-0.244000000000
20.706474979000,-0.240000000000
20.714160916000,-0.237000000000
20.721846853000,-0.232000000000
20.729532790000,-0.227000000000
20.737218727000,-0.222000000000
20.744904664000,-0.220000000000
20.752590601000,-0.222000000000
20.760276538000,-0.218000000000
20.767962475000,-0.203000000000
20.775648412000,-0.176000000000
20.783334349000,-0.156000000000
20.791020286000,-0.151000000000
20.798706223000,-0.149000000000
20.806392160000,-0.146000000000
20.814078097000,-0.164000000000
20.821764034000,-0.200000000000
20.829449971000,-0.208000000000
20.837135908000,-0.195000000000
20.844821845000,-0.191000000000
20.852507782000,-0.188000000000
20.860193719000,-0.183000000000
20.867879656000,-0.181000000000
20.875565593000,-0.178000000000
20.883251530000,-0.181000000000
20.890937467000,-0.195000000000
20.898623404000,-0.249000000000
20.906309341000,-0.325000000000
20.913995278000,-0.218000000000
20.921681215000,0.340000000000
20.929367152000,1.222000000000
20.937053089000,1.913000000000
20.944739026000,1.602000000000
20.952424963000,0.132000000000
20.960110900000,-0.818000000000
20.967796837000,-0.423000000000
20.975482774000,-0.110000000000
20.983168711000,-0.318000000000
20.990854648000,-0.308000000000
20.998540585000,-0.191000000000
21.006226522000,-0.230000000000
21.013912459000,-0.237000000000
21.021598396000,-0.176000000000
21.029284333000,-0.161000000000
21.036970270000,-0.154000000000
21.044656232000,-0.117000000000
21.052342517000,-0.090000000000
21.060028802000,-0.071000000000
21.067715087000,-0.041000000000
21.075401372000,-0.007000000000
21.083087657000,0.024000000000
21.090773942000,0.056000000000
21.098460227000,0.090000000000
21.106146512000,0.127000000000
21.113832797000,0.161000000000
21.121519082000,0.188000000000
21.129205367000,0.205000000000
21.136891652000,0.208000000000
21.144577937000,0.203000000000
21.152264222000,0.188000000000
21.159950507000,0.171000000000
21.167636792000,0.144000000000
21.175323077000,0.100000000000
21.183009362000,0.034000000000
21.190695647000,-0.046000000000
21.198381932000,-0.134000000000
21.206068217000,-0.218000000000
21.213754502000,-0.284000000000
21.221440787000,-0.330000000000
21.229127072000,-0.355000000000
21.236813357000,-0.364000000000
21.244499642000,-0.364000000000
21.252185927000,-0.355000000000
21.259872212000,-0.342000000000
21.267558497000,-0.330000000000
21.275244782000,-0.318000000000
21.282931067000,-0.306000000000
21.290617352000,-0.293000000000
21.298303637000,-0.286000000000
21.305989922000,-0.281000000000
21.313676207000,-0.274000000000
21.321362492000,-0.271000000000
21.329048777000,-0.269000000000
21.336735062000,-0.267000000000
21.344421347000,-0.267000000000
21.352107632000,-0.264000000000
21.359793917000,-0.262000000000
21.367480202000,-0.259000000000
21.375166487000,-0.259000000000
21.382852772000,-0.257000000000
21.390539057000,-0.254000000000
21.398225342000,-0.252000000000
21.405911627000,-0.249000000000
21.413597912000,-0.244000000000
21.421284197000,-0.242000000000
21.428970482000,-0.240000000000
21.436656767000,-0.237000000000
21.444343052000,-0.232000000000
21.452029337000,-0.230000000000
21.459715622000,-0.227000000000
21.467401907000,-0.227000000000
21.475088192000,-0.230000000000
21.482774477000,-0.225000000000
21.490460762000,-0.205000000000
21.498147047000,-0.178000000000
21.505833332000,-0.164000000000
21.513519617000,-0.161000000000
21.521205902000,-0.156000000000
21.528892187000,-0.159000000000
21.536578472000,-0.188000000000
21.544264757000,-0.215000000000
21.551951042000,-0.213000000000
21.559637327000,-0.200000000000
21.567323612000,-0.200000000000
21.575009897000,-0.198000000000
21.582696182000,-0.193000000000
21.590382467000,-0.191000000000
21.598068752000,-0.191000000000
21.605755097000,-0.193000000000
21.613441382000,-0.218000000000
21.621127667000,-0.284000000000
21.628813952000,-0.335000000000
21.636500237000,-0.122000000000
21.644186522000,0.556000000000
21.651872807000,1.447000000000
21.659559092000,1.944000000000
21.667245377000,1.249000000000
21.674931662000,-0.281000000000
21.682617947000,-0.810000000000
21.690304232000,-0.281000000000
21.697990517000,-0.164000000000
21.705676802000,-0.357000000000
21.713363087000,-0.274000000000
21.721049372000,-0.200000000000
21.728735657000,-0.252000000000
21.736421942000,-0.227000000000
21.744108227000,-0.176000000000
21.751794512000,-0.171000000000
21.759480797000,-0.154000000000
21.767167082000,-0.120000000000
21.774853367000,-0.095000000000
21.782539652000,-0.071000000000
21.790225937000,-0.036000000000
21.797912222000,-0.007000000000
21.805598507000,0.024000000000
21.813284792000,0.061000000000
21.820971077000,0.093000000000
21.828657362000,0.124000000000
21.836343647000,0.161000000000
21.844029932000,0.188000000000
21.851716217000,0.200000000000
21.859402502000,0.198000000000
21.867088787000,0.191000000000
21.874775072000,0.178000000000
21.882461357000,0.159000000000
21.890147642000,0.127000000000
21.897833927000,0.078000000000
21.905520212000,0.014000000000
21.913206497000,-0.068000000000
21.920892782000,-0.164000000000
21.928579067000,-0.244000000000
21.936265352000,-0.303000000000
21.943951637000,-0.345000000000
21.951637922000,-0.367000000000
21.959324207000,-0.369000000000
21.967010492000,-0.369000000000
21.974696777000,-0.372000000000
21.982383062000,-0.357000000000
21.990069347000,-0.335000000000
21.997755632000,-0.315000000000
22.005441917000,-0.308000000000
22.013128202000,-0.303000000000
22.020814487000,-0.296000000000
22.028500772000,-0.291000000000
22.036187057000,-0.286000000000
22.043873342000,-0.281000000000
22.051559627000,-0.279000000000
22.059245912000,-0.276000000000
22.066932197000,-0.276000000000
22.074618482000,-0.274000000000
22.082304767000,-0.269000000000
22.089991052000,-0.267000000000
22.097677337000,-0.262000000000
22.105363622000,-0.264000000000
22.113049907000,-0.267000000000
22.120736192000,-0.262000000000
22.128422477000,-0.254000000000
22.136108762000,-0.254000000000
22.143795047000,-0.249000000000
22.151481332000,-0.244000000000
22.159167617000,-0.242000000000
22.166853958000,-0.237000000000
22.174539825000,-0.235000000000
22.182225692000,-0.237000000000
22.189911559000,-0.235000000000
22.197597426000,-0.220000000000
22.205283293000,-0.195000000000
22.212969160000,-0.181000000000
22.220655027000,-0.173000000000
22.228340894000,-0.164000000000
22.236026761000,-0.161000000000
22.243712628000,-0.181000000000
22.251398495000,-0.218000000000
22.259084362000,-0.230000000000
22.266770229000,-0.218000000000
22.274456096000,-0.208000000000
22.282141963000,-0.208000000000
22.289827830000,-0.205000000000
22.297513697000,-0.203000000000
22.305199564000,-0.195000000000
22.312885431000,-0.193000000000
22.320571298000,-0.208000000000
22.328257165000,-0.257000000000
22.335943032000,-0.335000000000
22.343628899000,-0.244000000000
22.351314766000,0.306000000000
22.359000633000,1.195000000000
22.366686500000,1.864000000000
22.374372367000,1.518000000000
22.382058234000,0.083000000000
22.389744101000,-0.813000000000
22.397429968000,-0.433000000000
22.405115835000,-0.146000000000
22.412801702000,-0.323000000000
22.420487569000,-0.293000000000
22.428173436000,-0.193000000000
22.435859303000,-0.235000000000
22.443545170000,-0.227000000000
22.451231037000,-0.169000000000
22.458916904000,-0.161000000000
22.466602771000,-0.151000000000
22.474288638000,-0.120000000000
22.481974505000,-0.097000000000
22.489660372000,-0.073000000000
22.497346239000,-0.041000000000
22.505032106000,-0.009000000000
22.512717973000,0.026000000000
22.520403840000,0.061000000000
22.528089707000,0.095000000000
22.535775574000,0.129000000000
22.543461441000,0.164000000000
22.551147308000,0.188000000000
22.558833175000,0.203000000000
22.566519042000,0.208000000000
22.574204909000,0.200000000000
22.581890776000,0.181000000000
22.589576643000,0.156000000000
22.597262510000,0.129000000000
22.604948377000,0.085000000000
22.612634244000,0.022000000000
22.620320111000,-0.056000000000
22.628005978000,-0.137000000000
22.635691845000,-0.220000000000
22.643377712000,-0.296000000000
22.651063579000,-0.345000000000
22.658749446000,-0.364000000000
22.666435313000,-0.377000000000
22.674121180000,-0.384000000000
22.681807047000,-0.379000000000
22.689492914000,-0.364000000000
22.697178781000,-0.347000000000
22.704864648000,-0.330000000000
22.712550515000,-0.315000000000
22.720236382000,-0.306000000000
22.727922301000,-0.301000000000
22.735608586000,-0.303000000000
22.743294871000,-0.298000000000
22.750981156000,-0.281000000000
22.758667441000,-0.276000000000
22.766353726000,-0.281000000000
22.774040011000,-0.274000000000
22.781726296000,-0.267000000000
22.789412581000,-0.271000000000
22.797098866000,-0.281000000000
22.804785151000,-0.281000000000
22.812471436000,-0.274000000000
22.820157721000,-0.274000000000
22.827844006000,-0.274000000000
22.835530291000,-0.264000000000
22.843216576000,-0.262000000000
22.850902861000,-0.262000000000
22.858589146000,-0.259000000000
22.866275431000,-0.254000000000
22.873961716000,-0.249000000000
22.881648001000,-0.247000000000
22.889334286000,-0.244000000000
22.897020571000,-0.240000000000
22.904706856000,-0.222000000000
22.912393141000,-0.195000000000
22.920079426000,-0.181000000000
22.927765711000,-0.181000000000
22.935451996000,-0.176000000000
22.943138281000,-0.178000000000
22.950824566000,-0.213000000000
22.958510851000,-0.242000000000
22.966197136000,-0.235000000000
22.973883421000,-0.220000000000
22.981569706000,-0.225000000000
22.989255991000,-0.222000000000
22.996942276000,-0.215000000000
23.004628561000,-0.213000000000
23.012314846000,-0.210000000000
23.020001131000,-0.218000000000
23.027687416000,-0.247000000000
23.035373701000,-0.315000000000
23.043059986000,-0.345000000000
23.050746271000,-0.029000000000
23.058432556000,0.759000000000
23.066118841000,1.626000000000
23.073805126000,1.844000000000
23.081491411000,0.791000000000
23.089177696000,-0.612000000000
23.096863981000,-0.717000000000
23.104550266000,-0.203000000000
23.112236551000,-0.259000000000
23.119922836000,-0.362000000000
23.127609121000,-0.227000000000
23.135295406000,-0.215000000000
23.142981691000,-0.262000000000
23.150667976000,-0.210000000000
23.158354261000,-0.171000000000
23.166040546000,-0.173000000000
23.173726831000,-0.144000000000
23.181413116000,-0.112000000000
23.189099401000,-0.095000000000
23.196785686000,-0.068000000000
23.204471971000,-0.034000000000
23.212158256000,-0.002000000000
23.219844541000,0.029000000000
23.227530826000,0.066000000000
23.235217111000,0.102000000000
23.242903396000,0.137000000000
23.250589681000,0.164000000000
23.258275966000,0.181000000000
23.265962251000,0.191000000000
23.273648536000,0.183000000000
23.281334821000,0.169000000000
23.289021162000,0.151000000000
23.296707029000,0.127000000000
23.304392896000,0.090000000000
23.312078763000,0.036000000000
23.319764630000,-0.039000000000
23.327450497000,-0.124000000000
23.335136364000,-0.210000000000
23.342822231000,-0.289000000000
23.350508098000,-0.342000000000
23.358193965000,-0.374000000000
23.365879832000,-0.389000000000
23.373565699000,-0.396000000000
23.381251566000,-0.389000000000
23.388937433000,-0.374000000000
23.396623300000,-0.364000000000
23.404309167000,-0.352000000000
23.411995034000,-0.340000000000
23.419680901000,-0.330000000000
23.427366768000,-0.320000000000
23.435052635000,-0.313000000000
23.442738502000,-0.306000000000
23.450424369000,-0.301000000000
23.458110236000,-0.298000000000
23.465796103000,-0.296000000000
23.473481970000,-0.293000000000
23.481167837000,-0.293000000000
23.488853704000,-0.293000000000
23.496539571000,-0.291000000000
23.504225438000,-0.289000000000
23.511911305000,-0.289000000000
23.519597172000,-0.286000000000
23.527283039000,-0.284000000000
23.534968906000,-0.284000000000
23.542654773000,-0.281000000000
23.550340640000,-0.276000000000
23.558026507000,-0.274000000000
23.565712374000,-0.269000000000
23.573398241000,-0.262000000000
23.581084108000,-0.264000000000
23.588769975000,-0.267000000000
23.596455842000,-0.262000000000
23.604141709000,-0.244000000000
23.611827576000,-0.218000000000
23.619513443000,-0.200000000000
23.627199310000,-0.195000000000
23.634885177000,-0.191000000000
23.642571044000,-0.193000000000
23.650256911000,-0.220000000000
23.657942778000,-0.249000000000
23.665628645000,-0.249000000000
23.673314512000,-0.237000000000
23.681000379000,-0.232000000000
23.688686246000,-0.230000000000
23.696372113000,-0.227000000000
23.704057980000,-0.222000000000
23.711743847000,-0.220000000000
23.719429714000,-0.225000000000
23.727115581000,-0.254000000000
23.734801448000,-0.325000000000
23.742487315000,-0.347000000000
23.750173182000,-0.036000000000
23.757859049000,0.727000000000
23.765544916000,1.606000000000
23.773230783000,1.905000000000
23.780916650000,0.894000000000
23.788602517000,-0.580000000000
23.796288384000,-0.749000000000
23.803974251000,-0.203000000000
23.811660118000,-0.240000000000
23.819345985000,-0.387000000000
23.827031852000,-0.262000000000
23.834717719000,-0.232000000000
23.842403586000,-0.281000000000
23.850089505000,-0.235000000000
23.857775790000,-0.191000000000
23.865462075000,-0.193000000000
23.873148360000,-0.169000000000
23.880834645000,-0.134000000000
23.888520930000,-0.115000000000
23.896207215000,-0.090000000000
23.903893500000,-0.056000000000
23.911579785000,-0.026000000000
23.919266070000,0.007000000000
23.926952355000,0.046000000000
23.934638640000,0.083000000000
23.942324925000,0.117000000000
23.950011210000,0.146000000000
23.957697495000,0.169000000000
23.965383780000,0.176000000000
23.973070065000,0.173000000000
23.980756350000,0.164000000000
23.988442635000,0.149000000000
23.996128920000,0.124000000000
24.003815205000,0.085000000000
24.011501490000,0.031000000000
24.019187775000,-0.041000000000
24.026874060000,-0.129000000000
24.034560345000,-0.213000000000
24.042246630000,-0.286000000000
24.049932915000,-0.342000000000
24.057619200000,-0.377000000000
24.065305485000,-0.391000000000
24.072991770000,-0.394000000000
24.080678055000,-0.387000000000
24.088364340000,-0.377000000000
24.096050625000,-0.364000000000
24.103736910000,-0.352000000000
24.111423195000,-0.340000000000
24.119109480000,-0.325000000000
24.126795765000,-0.315000000000
24.134482050000,-0.311000000000
24.142168335000,-0.306000000000
24.149854620000,-0.301000000000
24.157540905000,-0.301000000000
24.165227190000,-0.298000000000
24.172913475000,-0.296000000000
24.180599760000,-0.293000000000
24.188286045000,-0.291000000000
24.195972330000,-0.291000000000
24.203658615000,-0.291000000000
24.211344900000,-0.289000000000
24.219031185000,-0.284000000000
24.226717470000,-0.281000000000
24.234403755000,-0.279000000000
24.242090040000,-0.276000000000
24.249776325000,-0.271000000000
24.257462610000,-0.267000000000
24.265148895000,-0.262000000000
24.272835180000,-0.257000000000
24.280521465000,-0.257000000000
24.288207750000,-0.259000000000
24.295894035000,-0.254000000000
24.303580320000,-0.232000000000
24.311266605000,-0.203000000000
24.318952890000,-0.191000000000
24.326639175000,-0.191000000000
24.334325460000,-0.186000000000
24.342011745000,-0.188000000000
24.349698030000,-0.220000000000
24.357384315000,-0.244000000000
24.365070600000,-0.237000000000
24.372756885000,-0.227000000000
24.380443170000,-0.225000000000
24.388129455000,-0.220000000000
24.395815740000,-0.215000000000
24.403502025000,-0.215000000000
24.411188366000,-0.210000000000
24.418874651000,-0.218000000000
24.426560936000,-0.252000000000
24.434247221000,-0.330000000000
24.441933506000,-0.338000000000
24.449619791000,0.019000000000
24.457306076000,0.808000000000
24.464992361000,1.665000000000
24.472678646000,1.871000000000
24.480364931000,0.769000000000
24.488051216000,-0.636000000000
24.495737501000,-0.698000000000
24.503423786000,-0.176000000000
24.511110071000,-0.254000000000
24.518796356000,-0.377000000000
24.526482641000,-0.249000000000
24.534168926000,-0.232000000000
24.541855211000,-0.271000000000
24.549541496000,-0.220000000000
24.557227781000,-0.186000000000
24.564914066000,-0.186000000000
24.572600351000,-0.156000000000
24.580286636000,-0.122000000000
24.587972921000,-0.102000000000
24.595659206000,-0.075000000000
24.603345491000,-0.039000000000
24.611031776000,-0.009000000000
24.618718061000,0.024000000000
24.626404346000,0.063000000000
24.634090631000,0.102000000000
24.641776916000,0.137000000000
24.649463201000,0.166000000000
24.657149486000,0.191000000000
24.664835771000,0.200000000000
24.672522056000,0.193000000000
24.680208341000,0.181000000000
24.687894626000,0.166000000000
24.695580911000,0.144000000000
24.703267196000,0.107000000000
24.710953481000,0.051000000000
24.718639766000,-0.029000000000
24.726326051000,-0.117000000000
24.734012336000,-0.198000000000
24.741698621000,-0.269000000000
24.749384906000,-0.325000000000
24.757071191000,-0.357000000000
24.764757476000,-0.372000000000
24.772443761000,-0.374000000000
24.780130046000,-0.369000000000
24.787816331000,-0.357000000000
24.795502616000,-0.345000000000
24.803188901000,-0.330000000000
24.810875186000,-0.318000000000
24.818561471000,-0.308000000000
24.826247756000,-0.296000000000
24.833934041000,-0.286000000000
24.841620326000,-0.281000000000
24.849306611000,-0.281000000000
24.856992896000,-0.276000000000
24.864679181000,-0.274000000000
24.872365466000,-0.274000000000
24.880051751000,-0.274000000000
24.887738036000,-0.274000000000
24.895424321000,-0.274000000000
24.903110606000,-0.269000000000
24.910796891000,-0.259000000000
24.918483176000,-0.257000000000
24.926169461000,-0.252000000000
24.933855746000,-0.252000000000
24.941542031000,-0.254000000000
24.949228316000,-0.252000000000
24.956914601000,-0.244000000000
24.964600886000,-0.244000000000
24.972287231000,-0.244000000000
24.979973516000,-0.237000000000
24.987659801000,-0.227000000000
24.995346086000,-0.213000000000
25.003032371000,-0.186000000000
25.010718656000,-0.169000000000
25.018404941000,-0.166000000000
25.026091226000,-0.169000000000
25.033777511000,-0.178000000000
25.041463796000,-0.203000000000
25.049150081000,-0.225000000000
25.056836366000,-0.222000000000
25.064522651000,-0.205000000000
25.072208936000,-0.203000000000
25.079895221000,-0.208000000000
25.087581506000,-0.205000000000
25.095267791000,-0.195000000000
25.102954076000,-0.193000000000
25.110640361000,-0.203000000000
25.118326646000,-0.230000000000
25.126012931000,-0.291000000000
25.133699216000,-0.318000000000
25.141385501000,-0.024000000000
25.149071786000,0.742000000000
25.156758071000,1.628000000000
25.164444356000,1.908000000000
25.172130641000,0.913000000000
25.179816926000,-0.524000000000
25.187503211000,-0.715000000000
25.195189496000,-0.193000000000
25.202875781000,-0.213000000000
25.210562066000,-0.345000000000
25.218248351000,-0.232000000000
25.225934636000,-0.200000000000
25.233620921000,-0.240000000000
25.241307206000,-0.198000000000
25.248993491000,-0.154000000000
25.256679776000,-0.146000000000
25.264366061000,-0.127000000000
25.272052346000,-0.095000000000
25.279738631000,-0.071000000000
25.287424916000,-0.044000000000
25.295111201000,-0.012000000000
25.302797486000,0.019000000000
25.310483771000,0.053000000000
25.318170056000,0.090000000000
25.325856341000,0.134000000000
25.333542626000,0.173000000000
25.341228911000,0.200000000000
25.348915196000,0.225000000000
25.356601481000,0.232000000000
25.364287766000,0.222000000000
25.371974051000,0.210000000000
25.379660336000,0.198000000000
25.387346621000,0.178000000000
25.395032906000,0.142000000000
25.402719191000,0.078000000000
25.410405476000,-0.009000000000
25.418091761000,-0.100000000000
25.425778046000,-0.178000000000
25.433464331000,-0.254000000000
25.441150616000,-0.320000000000
25.448836901000,-0.355000000000
25.456523186000,-0.360000000000
25.464209471000,-0.364000000000
25.471895756000,-0.372000000000
25.479582041000,-0.362000000000
25.487268326000,-0.345000000000
25.494954611000,-0.328000000000
25.502640896000,-0.315000000000
25.510327181000,-0.306000000000
25.518013466000,-0.296000000000
25.525699751000,-0.289000000000
25.533386092000,-0.286000000000
25.541071959000,-0.286000000000
25.548757826000,-0.281000000000
25.556443693000,-0.274000000000
25.564129560000,-0.274000000000
25.571815427000,-0.271000000000
25.579501294000,-0.264000000000
25.587187161000,-0.259000000000
25.594873028000,-0.264000000000
25.602558895000,-0.267000000000
25.610244762000,-0.264000000000
25.617930629000,-0.269000000000
25.625616496000,-0.269000000000
25.633302363000,-0.257000000000
25.640988230000,-0.247000000000
25.648674097000,-0.247000000000
25.656359964000,-0.252000000000
25.664045831000,-0.252000000000
25.671731698000,-0.240000000000
25.679417565000,-0.210000000000
25.687103432000,-0.188000000000
25.694789299000,-0.178000000000
25.702475166000,-0.178000000000
25.710161033000,-0.183000000000
25.717846900000,-0.200000000000
25.725532767000,-0.230000000000
25.733218634000,-0.247000000000
25.740904501000,-0.230000000000
25.748590368000,-0.218000000000
25.756276235000,-0.222000000000
25.763962102000,-0.220000000000
25.771647969000,-0.210000000000
25.779333836000,-0.205000000000
25.787019703000,-0.208000000000
25.794705570000,-0.225000000000
25.802391437000,-0.267000000000
25.810077304000,-0.338000000000
25.817763171000,-0.242000000000
25.825449038000,0.330000000000
25.833134905000,1.234000000000
25.840820772000,1.861000000000
25.848506639000,1.445000000000
25.856192506000,-0.002000000000
25.863878373000,-0.835000000000
25.871564240000,-0.428000000000
25.879250107000,-0.166000000000
25.886935974000,-0.338000000000
25.894621841000,-0.289000000000
25.902307708000,-0.193000000000
25.909993575000,-0.237000000000
25.917679442000,-0.230000000000
25.925365309000,-0.176000000000
25.933051176000,-0.166000000000
25.940737043000,-0.151000000000
25.948422910000,-0.120000000000
25.956108777000,-0.100000000000
25.963794644000,-0.078000000000
25.971480511000,-0.044000000000
25.979166378000,-0.007000000000
25.986852245000,0.024000000000
25.994538112000,0.061000000000
26.002223979000,0.100000000000
26.009909846000,0.137000000000
26.017595713000,0.166000000000
26.025281580000,0.188000000000
26.032967447000,0.203000000000
26.040653314000,0.200000000000
26.048339181000,0.186000000000
26.056025048000,0.166000000000
26.063710915000,0.146000000000
26.071396782000,0.112000000000
26.079082649000,0.056000000000
26.086768516000,-0.014000000000
26.094454435000,-0.097000000000
26.102140720000,-0.186000000000
26.109827005000,-0.271000000000
26.117513290000,-0.340000000000
26.125199575000,-0.382000000000
26.132885860000,-0.401000000000
26.140572145000,-0.411000000000
26.148258430000,-0.406000000000
26.155944715000,-0.399000000000
26.163631000000,-0.387000000000
26.171317285000,-0.372000000000
26.179003570000,-0.360000000000
26.186689855000,-0.350000000000
26.194376140000,-0.338000000000
26.202062425000,-0.328000000000
26.209748710000,-0.320000000000
26.217434995000,-0.315000000000
26.225121280000,-0.311000000000
26.232807565000,-0.311000000000
26.240493850000,-0.306000000000
26.248180135000,-0.303000000000
26.255866420000,-0.303000000000
26.263552705000,-0.301000000000
26.271238990000,-0.301000000000
26.278925275000,-0.303000000000
26.286611560000,-0.301000000000
26.294297845000,-0.298000000000
26.301984130000,-0.293000000000
26.309670415000,-0.293000000000
26.317356700000,-0.293000000000
26.325042985000,-0.289000000000
26.332729270000,-0.284000000000
26.340415555000,-0.284000000000
26.348101840000,-0.286000000000
26.355788125000,-0.281000000000
26.363474410000,-0.264000000000
26.371160695000,-0.240000000000
26.378846980000,-0.222000000000
26.386533265000,-0.215000000000
26.394219550000,-0.213000000000
26.401905835000,-0.218000000000
26.409592120000,-0.247000000000
26.417278405000,-0.274000000000
26.424964690000,-0.269000000000
26.432650975000,-0.257000000000
26.440337260000,-0.254000000000
26.448023545000,-0.249000000000
26.455709830000,-0.244000000000
26.463396115000,-0.242000000000
26.471082400000,-0.237000000000
26.478768685000,-0.242000000000
26.486454970000,-0.274000000000
26.494141255000,-0.350000000000
26.501827540000,-0.374000000000
26.509513825000,-0.056000000000
26.517200110000,0.729000000000
26.524886395000,1.631000000000
26.532572680000,1.922000000000
26.540258965000,0.896000000000
26.547945250000,-0.592000000000
26.555631535000,-0.771000000000
26.563317820000,-0.222000000000
26.571004105000,-0.257000000000
26.578690390000,-0.406000000000
26.586376675000,-0.281000000000
26.594062960000,-0.249000000000
26.601749245000,-0.296000000000
26.609435530000,-0.249000000000
26.617121815000,-0.210000000000
26.624808100000,-0.210000000000
26.632494385000,-0.186000000000
26.640180670000,-0.149000000000
26.647866955000,-0.129000000000
26.655553296000,-0.105000000000
26.663239581000,-0.068000000000
26.670925866000,-0.034000000000
26.678612151000,0.000000000000
26.686298436000,0.036000000000
26.693984721000,0.075000000000
26.701671006000,0.115000000000
26.709357291000,0.144000000000
26.717043576000,0.166000000000
26.724729861000,0.176000000000
26.732416146000,0.173000000000
26.740102431000,0.164000000000
26.747788716000,0.149000000000
26.755475001000,0.127000000000
26.763161286000,0.090000000000
26.770847571000,0.029000000000
26.778533856000,-0.048000000000
26.786220141000,-0.139000000000
26.793906426000,-0.227000000000
26.801592711000,-0.301000000000
26.809278996000,-0.355000000000
26.816965281000,-0.389000000000
26.824651566000,-0.404000000000
26.832337851000,-0.404000000000
26.840024136000,-0.399000000000
26.847710421000,-0.389000000000
26.855396706000,-0.374000000000
26.863082991000,-0.362000000000
26.870769276000,-0.350000000000
26.878455561000,-0.338000000000
26.886141846000,-0.325000000000
26.893828131000,-0.318000000000
26.901514416000,-0.311000000000
26.909200701000,-0.306000000000
26.916886986000,-0.303000000000
26.924573271000,-0.301000000000
26.932259556000,-0.298000000000
26.939945841000,-0.296000000000
26.947632126000,-0.293000000000
26.955318411000,-0.291000000000
26.963004696000,-0.289000000000
26.970690981000,-0.289000000000
26.978377266000,-0.286000000000
26.986063551000,-0.281000000000
26.993749836000,-0.279000000000
27.001436121000,-0.276000000000
27.009122406000,-0.271000000000
27.016808691000,-0.269000000000
27.024494976000,-0.267000000000
27.032181261000,-0.264000000000
27.039867546000,-0.262000000000
27.047553831000,-0.262000000000
27.055240116000,-0.259000000000
27.062926401000,-0.240000000000
27.070612686000,-0.210000000000
27.078298971000,-0.195000000000
27.085985256000,-0.191000000000
27.093671541000,-0.186000000000
27.101357826000,-0.186000000000
27.109044111000,-0.213000000000
27.116730396000,-0.244000000000
27.124416681000,-0.242000000000
27.132102966000,-0.227000000000
27.139789251000,-0.227000000000
27.147475536000,-0.225000000000
27.155161821000,-0.218000000000
27.162848106000,-0.215000000000
27.170534391000,-0.213000000000
27.178220676000,-0.213000000000
27.185906961000,-0.235000000000
27.193593246000,-0.296000000000
27.201279531000,-0.364000000000
27.208965816000,-0.203000000000
27.216652157000,0.428000000000
27.224338442000,1.335000000000
27.232024727000,1.952000000000
27.239711012000,1.450000000000
27.247397297000,-0.085000000000
27.255083582000,-0.845000000000
27.262769867000,-0.369000000000
27.270456152000,-0.149000000000
27.278142437000,-0.362000000000
27.285828722000,-0.315000000000
27.293515007000,-0.215000000000
27.301201292000,-0.262000000000
27.308887577000,-0.252000000000
27.316573862000,-0.193000000000
27.324260147000,-0.183000000000
27.331946432000,-0.176000000000
27.339632717000,-0.139000000000
27.347319002000,-0.112000000000
27.355005287000,-0.093000000000
27.362691572000,-0.061000000000
27.370377857000,-0.026000000000
27.378064142000,0.007000000000
27.385750427000,0.046000000000
27.393436712000,0.085000000000
27.401122997000,0.124000000000
27.408809282000,0.156000000000
27.416495567000,0.183000000000
27.424181852000,0.200000000000
27.431868137000,0.203000000000
27.439554422000,0.195000000000
27.447240707000,0.183000000000
27.454926992000,0.164000000000
27.462613277000,0.134000000000
27.470299562000,0.085000000000
27.477985847000,0.012000000000
27.485672132000,-0.073000000000
27.493358417000,-0.164000000000
27.501044702000,-0.247000000000
27.508730987000,-0.313000000000
27.516417272000,-0.357000000000
27.524103557000,-0.379000000000
27.531789842000,-0.387000000000
27.539476127000,-0.387000000000
27.547162412000,-0.377000000000
27.554848697000,-0.364000000000
27.562534982000,-0.350000000000
27.570221267000,-0.340000000000
27.577907552000,-0.328000000000
27.585593837000,-0.313000000000
27.593280122000,-0.306000000000
27.600966407000,-0.301000000000
27.608652692000,-0.296000000000
27.616338977000,-0.291000000000
27.624025262000,-0.289000000000
27.631711547000,-0.286000000000
27.639397832000,-0.284000000000
27.647084117000,-0.281000000000
27.654770402000,-0.279000000000
27.662456687000,-0.279000000000
27.670142972000,-0.276000000000
27.677829257000,-0.276000000000
27.685515542000,-0.271000000000
27.693201827000,-0.267000000000
27.700888112000,-0.267000000000
27.708574397000,-0.267000000000
27.716260682000,-0.262000000000
27.723946967000,-0.254000000000
27.731633252000,-0.252000000000
27.739319537000,-0.244000000000
27.747005822000,-0.240000000000
27.754692107000,-0.244000000000
27.762378392000,-0.244000000000
27.770064677000,-0.235000000000
27.777751018000,-0.213000000000
27.785436885000,-0.186000000000
27.793122752000,-0.173000000000
27.800808619000,-0.176000000000
27.808494486000,-0.171000000000
27.816180353000,-0.171000000000
27.823866220000,-0.200000000000
27.831552087000,-0.232000000000
27.839237954000,-0.227000000000
27.846923821000,-0.215000000000
27.854609688000,-0.213000000000
27.862295555000,-0.210000000000
27.869981422000,-0.205000000000
27.877667289000,-0.203000000000
27.885353156000,-0.195000000000
27.893039023000,-0.195000000000
27.900724890000,-0.218000000000
27.908410757000,-0.289000000000
27.916096624000,-0.342000000000
27.923782491000,-0.139000000000
27.931468358000,0.529000000000
27.939154225000,1.430000000000
27.946840092000,1.971000000000
27.954525959000,1.337000000000
27.962211826000,-0.203000000000
27.969897693000,-0.810000000000
27.977583560000,-0.303000000000
27.985269427000,-0.159000000000
27.992955294000,-0.355000000000
28.000641161000,-0.279000000000
28.008327028000,-0.193000000000
28.016012895000,-0.240000000000
28.023698762000,-0.230000000000
28.031384629000,-0.183000000000
28.039070496000,-0.173000000000
28.046756363000,-0.159000000000
28.054442230000,-0.122000000000
28.062128097000,-0.097000000000
28.069813964000,-0.075000000000
28.077499831000,-0.039000000000
28.085185698000,-0.002000000000
28.092871565000,0.029000000000
28.100557432000,0.071000000000
28.108243299000,0.115000000000
28.115929166000,0.146000000000
28.123615033000,0.173000000000
28.131300900000,0.198000000000
28.138986767000,0.215000000000
28.146672634000,0.222000000000
28.154358501000,0.218000000000
28.162044368000,0.208000000000
28.169730235000,0.188000000000
28.177416102000,0.154000000000
28.185101969000,0.102000000000
28.192787836000,0.026000000000
28.200473703000,-0.066000000000
28.208159570000,-0.159000000000
28.215845437000,-0.240000000000
28.223531304000,-0.303000000000
28.231217171000,-0.342000000000
28.238903038000,-0.364000000000
28.246588905000,-0.369000000000
28.254274772000,-0.367000000000
28.261960639000,-0.364000000000
28.269646506000,-0.357000000000
28.277332373000,-0.338000000000
28.285018240000,-0.323000000000
28.292704107000,-0.311000000000
28.300389974000,-0.298000000000
28.308075841000,-0.296000000000
28.315761708000,-0.293000000000
28.323447575000,-0.279000000000
28.331133442000,-0.271000000000
28.338819365000,-0.274000000000
28.346505650000,-0.271000000000
28.354191935000,-0.267000000000
28.361878220000,-0.271000000000
28.369564505000,-0.271000000000
28.377250790000,-0.259000000000
28.384937075000,-0.257000000000
28.392623360000,-0.262000000000
28.400309645000,-0.262000000000
28.407995930000,-0.257000000000
28.415682215000,-0.262000000000
28.423368500000,-0.257000000000
28.431054785000,-0.242000000000
28.438741070000,-0.240000000000
28.446427355000,-0.244000000000
28.454113640000,-0.235000000000
28.461799925000,-0.227000000000
28.469486210000,-0.232000000000
28.477172495000,-0.230000000000
28.484858780000,-0.208000000000
28.492545065000,-0.181000000000
28.500231350000,-0.166000000000
28.507917635000,-0.159000000000
28.515603920000,-0.156000000000
28.523290205000,-0.171000000000
28.530976490000,-0.208000000000
28.538662775000,-0.227000000000
28.546349060000,-0.215000000000
28.554035345000,-0.205000000000
28.561721630000,-0.205000000000
28.569407915000,-0.203000000000
28.577094200000,-0.195000000000
28.584780485000,-0.188000000000
28.592466770000,-0.191000000000
28.600153055000,-0.200000000000
28.607839340000,-0.222000000000
28.615525625000,-0.286000000000
28.623211910000,-0.328000000000
28.630898195000,-0.051000000000
28.638584480000,0.720000000000
28.646270765000,1.606000000000
28.653957050000,1.898000000000
28.661643335000,0.950000000000
28.669329620000,-0.487000000000
28.677015905000,-0.722000000000
28.684702190000,-0.203000000000
28.692388475000,-0.205000000000
28.700074760000,-0.335000000000
28.707761045000,-0.218000000000
28.715447330000,-0.191000000000
28.723133615000,-0.225000000000
28.730819900000,-0.176000000000
28.738506185000,-0.144000000000
28.746192470000,-0.144000000000
28.753878755000,-0.117000000000
28.761565040000,-0.083000000000
28.769251325000,-0.053000000000
28.776937610000,-0.031000000000
28.784623895000,-0.007000000000
28.792310180000,0.031000000000
28.799996465000,0.071000000000
28.807682750000,0.105000000000
28.815369035000,0.151000000000
28.823055320000,0.198000000000
28.830741605000,0.225000000000
28.838427890000,0.242000000000
28.846114175000,0.252000000000
28.853800460000,0.249000000000
28.861486745000,0.232000000000
28.869173030000,0.208000000000
28.876859315000,0.188000000000
28.884545600000,0.154000000000
28.892231885000,0.093000000000
28.899918226000,0.012000000000
28.907604093000,-0.078000000000
28.915289960000,-0.173000000000
28.922975827000,-0.252000000000
28.930661694000,-0.308000000000
28.938347561000,-0.345000000000
28.946033428000,-0.362000000000
28.953719295000,-0.369000000000
28.961405162000,-0.367000000000
28.969091029000,-0.357000000000
28.976776896000,-0.345000000000
28.984462763000,-0.333000000000
28.992148630000,-0.320000000000
28.999834497000,-0.311000000000
29.007520364000,-0.301000000000
29.015206231000,-0.289000000000
29.022892098000,-0.281000000000
29.030577965000,-0.279000000000
29.038263832000,-0.274000000000
29.045949699000,-0.271000000000
29.053635566000,-0.269000000000
29.061321433000,-0.264000000000
29.069007300000,-0.262000000000
29.076693167000,-0.262000000000
29.084379034000,-0.267000000000
29.092064901000,-0.269000000000
29.099750768000,-0.262000000000
29.107436635000,-0.254000000000
29.115122502000,-0.262000000000
29.122808369000,-0.262000000000
29.130494236000,-0.254000000000
29.138180103000,-0.252000000000
29.145865970000,-0.249000000000
29.153551837000,-0.244000000000
29.161237704000,-0.242000000000
29.168923571000,-0.240000000000
29.176609438000,-0.237000000000
29.184295305000,-0.227000000000
29.191981172000,-0.200000000000
29.199667039000,-0.176000000000
29.207352906000,-0.173000000000
29.215038773000,-0.171000000000
29.222724640000,-0.173000000000
29.230410507000,-0.198000000000
29.238096374000,-0.227000000000
29.245782241000,-0.232000000000
29.253468108000,-0.222000000000
29.261153975000,-0.218000000000
29.268839842000,-0.215000000000
29.276525709000,-0.210000000000
29.284211576000,-0.208000000000
29.291897443000,-0.203000000000
29.299583310000,-0.208000000000
