time,LSB
0.000000000000,1.962000000000
0.007687121000,1.043000000000
0.015374242000,-0.420000000000
0.023061363000,-0.580000000000
0.030748484000,-0.054000000000
0.038435605000,-0.135000000000
0.046122726000,-0.278000000000
0.053809847000,-0.147000000000
0.061496968000,-0.130000000000
0.069184089000,-0.182000000000
0.076871210000,-0.132000000000
0.084558331000,-0.098000000000
0.092245452000,-0.105000000000
0.099932573000,-0.086000000000
0.107619694000,-0.056000000000
0.115306815000,-0.041000000000
0.122993936000,-0.024000000000
0.130681057000,0.000000000000
0.138368178000,0.022000000000
0.146055299000,0.044000000000
0.153742420000,0.071000000000
0.161429541000,0.100000000000
0.169116662000,0.130000000000
0.176803783000,0.164000000000
0.184490904000,0.201000000000
0.192178025000,0.238000000000
0.199865146000,0.270000000000
0.207552267000,0.297000000000
0.215239388000,0.315000000000
0.222926509000,0.322000000000
0.230613630000,0.320000000000
0.238300751000,0.307000000000
0.245987872000,0.288000000000
0.253674993000,0.251000000000
0.261362114000,0.189000000000
0.269049235000,0.103000000000
0.276736356000,0.002000000000
0.284423477000,-0.091000000000
0.292110598000,-0.172000000000
0.299797719000,-0.231000000000
0.307484840000,-0.270000000000
0.315171961000,-0.290000000000
0.322859082000,-0.297000000000
0.330546203000,-0.297000000000
0.338233324000,-0.288000000000
0.345920509000,-0.278000000000
0.353607421000,-0.265000000000
0.361294333000,-0.256000000000
0.368981245000,-0.243000000000
0.376668157000,-0.231000000000
0.384355069000,-0.224000000000
0.392041981000,-0.214000000000
0.399728893000,-0.204000000000
0.407415805000,-0.199000000000
0.415102717000,-0.194000000000
0.422789629000,-0.189000000000
0.430476541000,-0.187000000000
0.438163453000,-0.184000000000
0.445850365000,-0.179000000000
0.453537277000,-0.177000000000
0.461224189000,-0.177000000000
0.468911101000,-0.174000000000
0.476598013000,-0.172000000000
0.484284925000,-0.169000000000
0.491971837000,-0.167000000000
0.499658749000,-0.162000000000
0.507345661000,-0.157000000000
0.515032573000,-0.155000000000
0.522719485000,-0.152000000000
0.530406397000,-0.147000000000
0.538093309000,-0.145000000000
0.545780221000,-0.142000000000
0.553467133000,-0.137000000000
0.561154045000,-0.132000000000
0.568840957000,-0.130000000000
0.576527869000,-0.125000000000
0.584214781000,-0.123000000000
0.591901693000,-0.118000000000
0.599588605000,-0.115000000000
0.607275517000,-0.113000000000
0.614962429000,-0.110000000000
0.622649341000,-0.108000000000
0.630336253000,-0.103000000000
0.638023165000,-0.100000000000
0.645710077000,-0.098000000000
0.653396989000,-0.096000000000
0.661083901000,-0.091000000000
0.668770813000,-0.088000000000
0.676457725000,-0.088000000000
0.684144637000,-0.088000000000
0.691831549000,-0.086000000000
0.699518461000,-0.078000000000
0.707205373000,-0.061000000000
0.714892285000,-0.036000000000
0.722579197000,-0.032000000000
0.730266109000,-0.041000000000
0.737953021000,-0.044000000000
0.745639933000,-0.049000000000
0.753326845000,-0.078000000000
0.761013757000,-0.100000000000
0.768700669000,-0.093000000000
0.776387581000,-0.083000000000
0.784074493000,-0.086000000000
0.791761405000,-0.083000000000
0.799448317000,-0.078000000000
0.807135229000,-0.078000000000
0.814822141000,-0.076000000000
0.822509053000,-0.078000000000
0.830195965000,-0.098000000000
0.837882877000,-0.150000000000
0.845569789000,-0.179000000000
0.853256701000,-0.004000000000
0.860943613000,0.526000000000
0.868630525000,1.294000000000
0.876317437000,1.920000000000
0.884004349000,1.528000000000
0.891691261000,0.056000000000
0.899378173000,-0.679000000000
0.907065149000,-0.214000000000
0.914752061000,-0.046000000000
0.922438973000,-0.263000000000
0.930125885000,-0.199000000000
0.937812797000,-0.113000000000
0.945499709000,-0.169000000000
0.953186621000,-0.157000000000
0.960873533000,-0.103000000000
0.968560445000,-0.100000000000
0.976247357000,-0.096000000000
0.983934269000,-0.064000000000
0.991621181000,-0.049000000000
0.999308093000,-0.036000000000
1.006995005000,-0.012000000000
1.014681917000,0.009000000000
1.022368829000,0.029000000000
1.030055741000,0.051000000000
1.037742653000,0.081000000000
1.045429565000,0.110000000000
1.053116477000,0.140000000000
1.060803389000,0.174000000000
1.068490301000,0.209000000000
1.076177213000,0.243000000000
1.083864125000,0.270000000000
1.091551037000,0.290000000000
1.099237949000,0.300000000000
1.106924861000,0.302000000000
1.114611773000,0.295000000000
1.122298685000,0.280000000000
1.129985597000,0.253000000000
1.137672509000,0.206000000000
1.145359421000,0.137000000000
1.153046333000,0.046000000000
1.160733245000,-0.044000000000
1.168420157000,-0.128000000000
1.176107069000,-0.196000000000
1.183793981000,-0.243000000000
1.191480893000,-0.273000000000
1.199167805000,-0.285000000000
1.206854717000,-0.288000000000
1.214541629000,-0.280000000000
1.222228541000,-0.273000000000
1.229915453000,-0.260000000000
1.237602365000,-0.248000000000
1.245289277000,-0.236000000000
1.252976189000,-0.226000000000
1.260663101000,-0.214000000000
1.268350013000,-0.206000000000
1.276036925000,-0.201000000000
1.283723837000,-0.194000000000
1.291410749000,-0.189000000000
1.299097661000,-0.187000000000
1.306784573000,-0.184000000000
1.314471485000,-0.179000000000
1.322158397000,-0.177000000000
1.329845309000,-0.174000000000
1.337532221000,-0.172000000000
1.345219133000,-0.169000000000
1.352906045000,-0.169000000000
1.360592957000,-0.167000000000
1.368279869000,-0.162000000000
1.375966781000,-0.160000000000
1.383653693000,-0.155000000000
1.391340605000,-0.152000000000
1.399027517000,-0.150000000000
1.406714429000,-0.147000000000
1.414401341000,-0.142000000000
1.422088253000,-0.137000000000
1.429775165000,-0.135000000000
1.437462077000,-0.130000000000
1.445148989000,-0.128000000000
1.452835901000,-0.123000000000
1.460522813000,-0.120000000000
1.468209785000,-0.118000000000
1.475896906000,-0.113000000000
1.483584027000,-0.110000000000
1.491271148000,-0.108000000000
1.498958269000,-0.103000000000
1.506645390000,-0.100000000000
1.514332511000,-0.100000000000
1.522019632000,-0.096000000000
1.529706753000,-0.093000000000
1.537393874000,-0.091000000000
1.545080995000,-0.088000000000
1.552768116000,-0.086000000000
1.560455237000,-0.083000000000
1.568142358000,-0.081000000000
1.575829479000,-0.081000000000
1.583516600000,-0.078000000000
1.591203721000,-0.068000000000
1.598890842000,-0.051000000000
1.606577963000,-0.032000000000
1.614265084000,-0.029000000000
1.621952205000,-0.039000000000
1.629639326000,-0.039000000000
1.637326447000,-0.049000000000
1.645013568000,-0.078000000000
1.652700689000,-0.096000000000
1.660387810000,-0.086000000000
1.668074931000,-0.078000000000
1.675762052000,-0.078000000000
1.683449173000,-0.076000000000
1.691136294000,-0.073000000000
1.698823415000,-0.071000000000
1.706510536000,-0.068000000000
1.714197657000,-0.076000000000
1.721884778000,-0.100000000000
1.729571899000,-0.152000000000
1.737259020000,-0.160000000000
1.744946141000,0.081000000000
1.752633262000,0.674000000000
1.760320383000,1.459000000000
1.768007504000,1.959000000000
1.775694625000,1.280000000000
1.783381746000,-0.219000000000
1.791068867000,-0.632000000000
1.798755988000,-0.108000000000
1.806443109000,-0.088000000000
1.814130230000,-0.270000000000
1.821817351000,-0.162000000000
1.829504472000,-0.113000000000
1.837191593000,-0.169000000000
1.844878714000,-0.135000000000
1.852565835000,-0.093000000000
1.860252956000,-0.098000000000
1.867940077000,-0.083000000000
1.875627198000,-0.054000000000
1.883314319000,-0.036000000000
1.891001440000,-0.022000000000
1.898688561000,0.000000000000
1.906375682000,0.024000000000
1.914062803000,0.046000000000
1.921749924000,0.071000000000
1.929437045000,0.098000000000
1.937124166000,0.128000000000
1.944811287000,0.162000000000
1.952498408000,0.196000000000
1.960185529000,0.233000000000
1.967872650000,0.265000000000
1.975559771000,0.292000000000
1.983246892000,0.312000000000
1.990934013000,0.322000000000
1.998621134000,0.322000000000
2.006308255000,0.312000000000
2.013995376000,0.295000000000
2.021682497000,0.263000000000
2.029369682000,0.211000000000
2.037056803000,0.132000000000
2.044743924000,0.039000000000
2.052431045000,-0.054000000000
2.060118166000,-0.140000000000
2.067805287000,-0.206000000000
2.075492408000,-0.251000000000
2.083179529000,-0.278000000000
2.090866650000,-0.290000000000
2.098553771000,-0.288000000000
2.106240892000,-0.280000000000
2.113928013000,-0.273000000000
2.121615134000,-0.263000000000
2.129302255000,-0.251000000000
2.136989376000,-0.238000000000
2.144676497000,-0.224000000000
2.152363618000,-0.216000000000
2.160050739000,-0.206000000000
2.167737860000,-0.194000000000
2.175424981000,-0.187000000000
2.183112102000,-0.187000000000
2.190799223000,-0.184000000000
2.198486344000,-0.179000000000
2.206173465000,-0.177000000000
2.213860586000,-0.174000000000
2.221547707000,-0.169000000000
2.229234828000,-0.167000000000
2.236921949000,-0.169000000000
2.244609070000,-0.169000000000
2.252296191000,-0.164000000000
2.259983312000,-0.160000000000
2.267670433000,-0.160000000000
2.275357554000,-0.157000000000
2.283044675000,-0.152000000000
2.290731796000,-0.147000000000
2.298418917000,-0.147000000000
2.306106038000,-0.142000000000
2.313793159000,-0.137000000000
2.321480280000,-0.132000000000
2.329167401000,-0.132000000000
2.336854522000,-0.130000000000
2.344541643000,-0.125000000000
2.352228764000,-0.118000000000
2.359915885000,-0.113000000000
2.367603006000,-0.110000000000
2.375290127000,-0.105000000000
2.382977248000,-0.105000000000
2.390664369000,-0.105000000000
2.398351490000,-0.100000000000
2.406038611000,-0.093000000000
2.413725732000,-0.088000000000
2.421412853000,-0.091000000000
2.429099974000,-0.093000000000
2.436787095000,-0.083000000000
2.444474216000,-0.066000000000
2.452161337000,-0.046000000000
2.459848458000,-0.034000000000
2.467535579000,-0.036000000000
2.475222700000,-0.041000000000
2.482909821000,-0.046000000000
2.490596942000,-0.068000000000
2.498284063000,-0.093000000000
2.505971184000,-0.096000000000
2.513658305000,-0.086000000000
2.521345426000,-0.078000000000
2.529032547000,-0.078000000000
2.536719668000,-0.076000000000
2.544406789000,-0.071000000000
2.552093910000,-0.076000000000
2.559781031000,-0.078000000000
2.567468152000,-0.088000000000
2.575155273000,-0.132000000000
2.582842394000,-0.182000000000
2.590529583000,-0.054000000000
2.598216356000,0.438000000000
2.605903129000,1.208000000000
2.613589902000,1.907000000000
2.621276675000,1.708000000000
2.628963448000,0.278000000000
2.636650221000,-0.694000000000
2.644336994000,-0.305000000000
2.652023767000,-0.019000000000
2.659710540000,-0.241000000000
2.667397313000,-0.211000000000
2.675084086000,-0.098000000000
2.682770859000,-0.150000000000
2.690457632000,-0.152000000000
2.698144405000,-0.093000000000
2.705831178000,-0.086000000000
2.713517951000,-0.081000000000
2.721204724000,-0.051000000000
2.728891497000,-0.034000000000
2.736578270000,-0.017000000000
2.744265043000,0.007000000000
2.751951816000,0.029000000000
2.759638589000,0.051000000000
2.767325362000,0.081000000000
2.775012135000,0.108000000000
2.782698908000,0.137000000000
2.790385681000,0.177000000000
2.798072454000,0.221000000000
2.805759227000,0.256000000000
2.813446000000,0.290000000000
2.821132773000,0.332000000000
2.828819546000,0.359000000000
2.836506319000,0.366000000000
2.844193092000,0.366000000000
2.851879865000,0.359000000000
2.859566638000,0.342000000000
2.867253411000,0.317000000000
2.874940184000,0.268000000000
2.882626957000,0.179000000000
2.890313730000,0.076000000000
2.898000503000,-0.019000000000
2.905687276000,-0.118000000000
2.913374049000,-0.211000000000
2.921060822000,-0.268000000000
2.928747595000,-0.290000000000
2.936434368000,-0.297000000000
2.944121141000,-0.300000000000
2.951807914000,-0.297000000000
2.959494687000,-0.290000000000
2.967181460000,-0.280000000000
2.974868233000,-0.265000000000
2.982555006000,-0.248000000000
2.990241779000,-0.231000000000
2.997928552000,-0.221000000000
3.005615325000,-0.214000000000
3.013302098000,-0.201000000000
3.020988871000,-0.192000000000
3.028675644000,-0.189000000000
3.036362417000,-0.189000000000
3.044049190000,-0.184000000000
3.051735963000,-0.179000000000
3.059422736000,-0.177000000000
3.067109509000,-0.172000000000
3.074796282000,-0.167000000000
3.082483055000,-0.167000000000
3.090169828000,-0.167000000000
3.097856601000,-0.160000000000
3.105543374000,-0.157000000000
3.113230147000,-0.160000000000
3.120916920000,-0.157000000000
3.128603693000,-0.150000000000
3.136290466000,-0.152000000000
3.143977239000,-0.152000000000
3.151664049000,-0.145000000000
3.159351101000,-0.137000000000
3.167038153000,-0.130000000000
3.174725205000,-0.128000000000
3.182412257000,-0.125000000000
3.190099309000,-0.118000000000
3.197786361000,-0.113000000000
3.205473413000,-0.115000000000
3.213160465000,-0.113000000000
3.220847517000,-0.105000000000
3.228534569000,-0.103000000000
3.236221621000,-0.103000000000
3.243908673000,-0.100000000000
3.251595725000,-0.093000000000
3.259282777000,-0.081000000000
3.266969829000,-0.059000000000
3.274656881000,-0.036000000000
3.282343933000,-0.039000000000
3.290030985000,-0.046000000000
3.297718037000,-0.044000000000
3.305405089000,-0.064000000000
3.313092141000,-0.096000000000
3.320779193000,-0.103000000000
3.328466245000,-0.091000000000
3.336153297000,-0.086000000000
3.343840349000,-0.086000000000
3.351527401000,-0.083000000000
3.359214453000,-0.081000000000
3.366901505000,-0.078000000000
3.374588557000,-0.076000000000
3.382275609000,-0.086000000000
3.389962661000,-0.118000000000
3.397649713000,-0.174000000000
3.405336765000,-0.140000000000
3.413023817000,0.224000000000
3.420710869000,0.945000000000
3.428397921000,1.742000000000
3.436084973000,1.952000000000
3.443772025000,0.832000000000
3.451459077000,-0.551000000000
3.459146129000,-0.519000000000
3.466833181000,-0.024000000000
3.474520233000,-0.167000000000
3.482207285000,-0.253000000000
3.489894337000,-0.110000000000
3.497581389000,-0.128000000000
3.505268441000,-0.167000000000
3.512955493000,-0.108000000000
3.520642545000,-0.083000000000
3.528329597000,-0.088000000000
3.536016649000,-0.064000000000
3.543703701000,-0.036000000000
3.551390753000,-0.024000000000
3.559077805000,-0.004000000000
3.566764857000,0.019000000000
3.574451909000,0.041000000000
3.582138961000,0.068000000000
3.589826013000,0.096000000000
3.597513065000,0.125000000000
3.605200117000,0.162000000000
3.612887169000,0.199000000000
3.620574221000,0.236000000000
3.628261273000,0.275000000000
3.635948325000,0.310000000000
3.643635377000,0.337000000000
3.651322429000,0.356000000000
3.659009481000,0.361000000000
3.666696533000,0.356000000000
3.674383585000,0.342000000000
3.682070637000,0.315000000000
3.689757689000,0.268000000000
3.697444741000,0.192000000000
3.705131793000,0.091000000000
3.712818859000,-0.014000000000
3.720505980000,-0.115000000000
3.728193101000,-0.196000000000
3.735880222000,-0.256000000000
3.743567343000,-0.290000000000
3.751254464000,-0.305000000000
3.758941585000,-0.310000000000
3.766628706000,-0.307000000000
3.774315827000,-0.297000000000
3.782002948000,-0.285000000000
3.789690069000,-0.273000000000
3.797377190000,-0.260000000000
3.805064311000,-0.248000000000
3.812751432000,-0.236000000000
3.820438553000,-0.226000000000
3.828125674000,-0.214000000000
3.835812795000,-0.204000000000
3.843499916000,-0.196000000000
3.851187037000,-0.192000000000
3.858874158000,-0.184000000000
3.866561279000,-0.182000000000
3.874248400000,-0.179000000000
3.881935521000,-0.174000000000
3.889622642000,-0.172000000000
3.897309763000,-0.169000000000
3.904996884000,-0.167000000000
3.912684005000,-0.164000000000
3.920371126000,-0.162000000000
3.928058247000,-0.160000000000
3.935745368000,-0.157000000000
3.943432489000,-0.157000000000
3.951119610000,-0.152000000000
3.958806731000,-0.147000000000
3.966493852000,-0.145000000000
3.974180973000,-0.140000000000
3.981868094000,-0.135000000000
3.989555215000,-0.132000000000
3.997242336000,-0.128000000000
4.004929457000,-0.125000000000
4.012616578000,-0.120000000000
4.020303699000,-0.118000000000
4.027990820000,-0.113000000000
4.035677941000,-0.110000000000
4.043365062000,-0.108000000000
4.051052183000,-0.103000000000
4.058739304000,-0.103000000000
4.066426425000,-0.100000000000
4.074113546000,-0.096000000000
4.081800667000,-0.096000000000
4.089487788000,-0.096000000000
4.097174909000,-0.088000000000
4.104862030000,-0.071000000000
4.112549151000,-0.049000000000
4.120236272000,-0.039000000000
4.127923393000,-0.049000000000
4.135610514000,-0.054000000000
4.143297635000,-0.051000000000
4.150984756000,-0.071000000000
4.158671877000,-0.100000000000
4.166358998000,-0.100000000000
4.174046119000,-0.093000000000
4.181733240000,-0.091000000000
4.189420361000,-0.088000000000
4.197107482000,-0.083000000000
4.204794603000,-0.083000000000
4.212481724000,-0.081000000000
4.220168845000,-0.078000000000
4.227855966000,-0.093000000000
4.235543087000,-0.140000000000
4.243230208000,-0.184000000000
4.250917329000,-0.056000000000
4.258604450000,0.423000000000
4.266291571000,1.174000000000
4.273978756000,1.888000000000
4.281665877000,1.757000000000
4.289352998000,0.356000000000
4.297040119000,-0.681000000000
4.304727240000,-0.322000000000
4.312414361000,-0.009000000000
4.320101482000,-0.238000000000
4.327788603000,-0.231000000000
4.335475724000,-0.110000000000
4.343162845000,-0.157000000000
4.350849966000,-0.167000000000
4.358537087000,-0.103000000000
4.366224208000,-0.096000000000
4.373911329000,-0.093000000000
4.381598450000,-0.061000000000
4.389285571000,-0.041000000000
4.396972692000,-0.029000000000
4.404659813000,-0.004000000000
4.412346934000,0.019000000000
4.420034055000,0.039000000000
4.427721176000,0.066000000000
4.435408297000,0.096000000000
4.443095418000,0.125000000000
4.450782539000,0.157000000000
4.458469660000,0.194000000000
4.466156781000,0.231000000000
4.473843902000,0.268000000000
4.481531023000,0.302000000000
4.489218144000,0.327000000000
4.496905265000,0.342000000000
4.504592386000,0.344000000000
4.512279507000,0.337000000000
4.519966628000,0.322000000000
4.527653749000,0.295000000000
4.535340870000,0.248000000000
4.543027991000,0.172000000000
4.550715112000,0.076000000000
4.558402233000,-0.024000000000
4.566089354000,-0.115000000000
4.573776475000,-0.189000000000
4.581463596000,-0.241000000000
4.589150717000,-0.273000000000
4.596837838000,-0.288000000000
4.604524959000,-0.290000000000
4.612212080000,-0.285000000000
4.619899201000,-0.275000000000
4.627586322000,-0.265000000000
4.635273443000,-0.256000000000
4.642960564000,-0.243000000000
4.650647685000,-0.228000000000
4.658334806000,-0.219000000000
4.666021927000,-0.209000000000
4.673709048000,-0.199000000000
4.681396169000,-0.192000000000
4.689083290000,-0.187000000000
4.696770411000,-0.184000000000
4.704457532000,-0.179000000000
4.712144653000,-0.177000000000
4.719831774000,-0.172000000000
4.727518895000,-0.169000000000
4.735206016000,-0.167000000000
4.742893137000,-0.164000000000
4.750580258000,-0.162000000000
4.758267379000,-0.160000000000
4.765954500000,-0.157000000000
4.773641621000,-0.155000000000
4.781328742000,-0.150000000000
4.789015863000,-0.150000000000
4.796702984000,-0.147000000000
4.804390105000,-0.142000000000
4.812077226000,-0.140000000000
4.819764347000,-0.135000000000
4.827451468000,-0.130000000000
4.835138653000,-0.128000000000
4.842825705000,-0.125000000000
4.850512757000,-0.120000000000
4.858199809000,-0.115000000000
4.865886861000,-0.113000000000
4.873573913000,-0.110000000000
4.881260965000,-0.105000000000
4.888948017000,-0.103000000000
4.896635069000,-0.103000000000
4.904322121000,-0.098000000000
4.912009173000,-0.093000000000
4.919696225000,-0.091000000000
4.927383277000,-0.091000000000
4.935070329000,-0.088000000000
4.942757381000,-0.086000000000
4.950444433000,-0.086000000000
4.958131485000,-0.083000000000
4.965818537000,-0.081000000000
4.973505589000,-0.083000000000
4.981192641000,-0.078000000000
4.988879693000,-0.064000000000
4.996566745000,-0.041000000000
5.004253797000,-0.029000000000
5.011940849000,-0.034000000000
5.019627901000,-0.041000000000
5.027314953000,-0.044000000000
5.035002005000,-0.059000000000
5.042689057000,-0.088000000000
5.050376109000,-0.096000000000
5.058063161000,-0.083000000000
5.065750213000,-0.081000000000
5.073437265000,-0.081000000000
5.081124317000,-0.078000000000
5.088811369000,-0.076000000000
5.096498421000,-0.076000000000
5.104185473000,-0.073000000000
5.111872525000,-0.086000000000
5.119559577000,-0.123000000000
5.127246629000,-0.172000000000
5.134933681000,-0.093000000000
5.142620733000,0.317000000000
5.150307785000,1.021000000000
5.157994837000,1.760000000000
5.165681889000,1.821000000000
5.173368941000,0.590000000000
5.181055993000,-0.610000000000
5.188743045000,-0.413000000000
5.196430097000,-0.014000000000
5.204117149000,-0.206000000000
5.211804201000,-0.251000000000
5.219491253000,-0.120000000000
5.227178305000,-0.150000000000
5.234865357000,-0.177000000000
5.242552409000,-0.118000000000
5.250239461000,-0.100000000000
5.257926513000,-0.105000000000
5.265613565000,-0.078000000000
5.273300617000,-0.054000000000
5.280987669000,-0.041000000000
5.288674721000,-0.022000000000
5.296361773000,0.000000000000
5.304048825000,0.019000000000
5.311735877000,0.044000000000
5.319422929000,0.068000000000
5.327109981000,0.096000000000
5.334797033000,0.123000000000
5.342484085000,0.155000000000
5.350171137000,0.192000000000
5.357858189000,0.224000000000
5.365545241000,0.253000000000
5.373232293000,0.275000000000
5.380919345000,0.290000000000
5.388606397000,0.295000000000
5.396293467000,0.290000000000
5.403980658000,0.278000000000
5.411667849000,0.258000000000
5.419355040000,0.221000000000
5.427042231000,0.160000000000
5.434729422000,0.076000000000
5.442416613000,-0.014000000000
5.450103804000,-0.103000000000
5.457790995000,-0.177000000000
5.465478186000,-0.233000000000
5.473165377000,-0.270000000000
5.480852568000,-0.288000000000
5.488539759000,-0.292000000000
5.496226950000,-0.290000000000
5.503914141000,-0.280000000000
5.511601332000,-0.270000000000
5.519288523000,-0.258000000000
5.526975714000,-0.248000000000
5.534662905000,-0.236000000000
5.542350096000,-0.226000000000
5.550037287000,-0.216000000000
5.557724478000,-0.209000000000
5.565411669000,-0.201000000000
5.573098860000,-0.196000000000
5.580786051000,-0.194000000000
5.588473242000,-0.189000000000
5.596160433000,-0.187000000000
5.603847624000,-0.187000000000
5.611534815000,-0.184000000000
5.619222006000,-0.179000000000
5.626909197000,-0.177000000000
5.634596388000,-0.177000000000
5.642283579000,-0.174000000000
5.649970770000,-0.172000000000
5.657657961000,-0.169000000000
5.665345152000,-0.167000000000
5.673032343000,-0.162000000000
5.680719534000,-0.157000000000
5.688406725000,-0.152000000000
5.696093916000,-0.150000000000
5.703781107000,-0.147000000000
5.711468298000,-0.142000000000
5.719155489000,-0.137000000000
5.726842680000,-0.135000000000
5.734529871000,-0.130000000000
5.742217062000,-0.128000000000
5.749904253000,-0.123000000000
5.757591444000,-0.120000000000
5.765278635000,-0.118000000000
5.772965826000,-0.113000000000
5.780653017000,-0.110000000000
5.788340208000,-0.108000000000
5.796027399000,-0.105000000000
5.803714590000,-0.100000000000
5.811401781000,-0.100000000000
5.819088972000,-0.098000000000
5.826776163000,-0.093000000000
5.834463354000,-0.091000000000
5.842150545000,-0.091000000000
5.849837736000,-0.086000000000
5.857524927000,-0.086000000000
5.865212118000,-0.088000000000
5.872899309000,-0.083000000000
5.880586500000,-0.073000000000
5.888273691000,-0.054000000000
5.895960882000,-0.034000000000
5.903648073000,-0.034000000000
5.911335264000,-0.041000000000
5.919022455000,-0.044000000000
5.926709646000,-0.056000000000
5.934396837000,-0.086000000000
5.942084028000,-0.100000000000
5.949771219000,-0.091000000000
5.957458451000,-0.086000000000
5.965145224000,-0.086000000000
5.972831997000,-0.083000000000
5.980518770000,-0.081000000000
5.988205543000,-0.078000000000
5.995892316000,-0.078000000000
6.003579089000,-0.083000000000
6.011265862000,-0.110000000000
6.018952635000,-0.164000000000
6.026639408000,-0.160000000000
6.034326181000,0.115000000000
6.042012954000,0.736000000000
6.049699727000,1.518000000000
6.057386500000,1.930000000000
6.065073273000,1.107000000000
6.072760046000,-0.342000000000
6.080446819000,-0.590000000000
6.088133592000,-0.078000000000
6.095820365000,-0.120000000000
6.103507138000,-0.273000000000
6.111193911000,-0.152000000000
6.118880684000,-0.125000000000
6.126567457000,-0.177000000000
6.134254230000,-0.135000000000
6.141941003000,-0.098000000000
6.149627776000,-0.103000000000
6.157314549000,-0.086000000000
6.165001322000,-0.056000000000
6.172688095000,-0.044000000000
6.180374868000,-0.027000000000
6.188061641000,0.000000000000
6.195748414000,0.019000000000
6.203435187000,0.039000000000
6.211121960000,0.064000000000
6.218808733000,0.091000000000
6.226495506000,0.120000000000
6.234182279000,0.152000000000
6.241869052000,0.184000000000
6.249555825000,0.219000000000
6.257242598000,0.251000000000
6.264929371000,0.278000000000
6.272616144000,0.295000000000
6.280302917000,0.302000000000
6.287989690000,0.302000000000
6.295676463000,0.292000000000
6.303363236000,0.275000000000
6.311050009000,0.243000000000
6.318736782000,0.192000000000
6.326423555000,0.115000000000
6.334110328000,0.024000000000
6.341797101000,-0.068000000000
6.349483874000,-0.147000000000
6.357170647000,-0.211000000000
6.364857420000,-0.253000000000
6.372544193000,-0.278000000000
6.380230966000,-0.288000000000
6.387917739000,-0.288000000000
6.395604512000,-0.280000000000
6.403291285000,-0.270000000000
6.410978058000,-0.258000000000
6.418664831000,-0.248000000000
6.426351604000,-0.236000000000
6.434038377000,-0.226000000000
6.441725150000,-0.216000000000
6.449411923000,-0.206000000000
6.457098696000,-0.196000000000
6.464785469000,-0.194000000000
6.472472242000,-0.192000000000
6.480159015000,-0.187000000000
6.487845788000,-0.182000000000
6.495532561000,-0.179000000000
6.503219334000,-0.177000000000
6.510906107000,-0.177000000000
6.518592917000,-0.174000000000
6.526280108000,-0.169000000000
6.533967299000,-0.169000000000
6.541654490000,-0.167000000000
6.549341681000,-0.162000000000
6.557028872000,-0.157000000000
6.564716063000,-0.155000000000
6.572403254000,-0.157000000000
6.580090445000,-0.152000000000
6.587777636000,-0.145000000000
6.595464827000,-0.142000000000
6.603152018000,-0.142000000000
6.610839209000,-0.135000000000
6.618526400000,-0.128000000000
6.626213591000,-0.125000000000
6.633900782000,-0.125000000000
6.641587973000,-0.120000000000
6.649275164000,-0.118000000000
6.656962355000,-0.115000000000
6.664649546000,-0.113000000000
6.672336737000,-0.108000000000
6.680023928000,-0.103000000000
6.687711119000,-0.100000000000
6.695398310000,-0.098000000000
6.703085501000,-0.096000000000
6.710772692000,-0.091000000000
6.718459883000,-0.088000000000
6.726147074000,-0.091000000000
6.733834265000,-0.086000000000
6.741521456000,-0.083000000000
6.749208647000,-0.088000000000
6.756895838000,-0.086000000000
6.764583029000,-0.071000000000
6.772270220000,-0.049000000000
6.779957411000,-0.034000000000
6.787644602000,-0.036000000000
6.795331793000,-0.041000000000
6.803018984000,-0.041000000000
6.810706175000,-0.059000000000
6.818393366000,-0.091000000000
6.826080557000,-0.098000000000
6.833767748000,-0.083000000000
6.841454939000,-0.078000000000
6.849142130000,-0.081000000000
6.856829321000,-0.078000000000
6.864516512000,-0.078000000000
6.872203703000,-0.076000000000
6.879890894000,-0.073000000000
6.887578085000,-0.086000000000
6.895265276000,-0.125000000000
6.902952467000,-0.174000000000
6.910639658000,-0.093000000000
6.918326849000,0.329000000000
6.926014040000,1.058000000000
6.933701231000,1.804000000000
6.941388422000,1.826000000000
6.949075613000,0.541000000000
6.956762804000,-0.640000000000
6.964449995000,-0.401000000000
6.972137186000,-0.009000000000
6.979824377000,-0.214000000000
6.987511568000,-0.246000000000
6.995198759000,-0.110000000000
7.002885950000,-0.142000000000
7.010573141000,-0.164000000000
7.018260332000,-0.108000000000
7.025947523000,-0.093000000000
7.033634714000,-0.093000000000
7.041321905000,-0.066000000000
7.049009096000,-0.039000000000
7.056696287000,-0.032000000000
7.064383478000,-0.012000000000
7.072070669000,0.014000000000
7.079757901000,0.034000000000
7.087444883000,0.054000000000
7.095131865000,0.086000000000
7.102818847000,0.118000000000
7.110505829000,0.147000000000
7.118192811000,0.179000000000
7.125879793000,0.221000000000
7.133566775000,0.260000000000
7.141253757000,0.290000000000
7.148940739000,0.315000000000
7.156627721000,0.334000000000
7.164314703000,0.342000000000
7.172001685000,0.334000000000
7.179688667000,0.320000000000
7.187375649000,0.297000000000
7.195062631000,0.256000000000
7.202749613000,0.182000000000
7.210436595000,0.086000000000
7.218123577000,-0.014000000000
7.225810559000,-0.108000000000
7.233497541000,-0.184000000000
7.241184523000,-0.243000000000
7.248871505000,-0.285000000000
7.256558487000,-0.302000000000
7.264245469000,-0.305000000000
7.271932451000,-0.302000000000
7.279619433000,-0.297000000000
7.287306415000,-0.285000000000
7.294993397000,-0.270000000000
7.302680379000,-0.258000000000
7.310367361000,-0.246000000000
7.318054343000,-0.233000000000
7.325741325000,-0.216000000000
7.333428307000,-0.209000000000
7.341115289000,-0.206000000000
7.348802271000,-0.201000000000
7.356489253000,-0.199000000000
7.364176235000,-0.196000000000
7.371863217000,-0.189000000000
7.379550199000,-0.187000000000
7.387237181000,-0.184000000000
7.394924163000,-0.177000000000
7.402611145000,-0.174000000000
7.410298127000,-0.172000000000
7.417985109000,-0.164000000000
7.425672091000,-0.162000000000
7.433359073000,-0.167000000000
7.441046055000,-0.169000000000
7.448733037000,-0.162000000000
7.456420019000,-0.155000000000
7.464107001000,-0.155000000000
7.471793983000,-0.150000000000
7.479480965000,-0.142000000000
7.487167947000,-0.137000000000
7.494854929000,-0.135000000000
7.502541911000,-0.130000000000
7.510228893000,-0.125000000000
7.517915875000,-0.123000000000
7.525602857000,-0.123000000000
7.533289839000,-0.115000000000
7.540976821000,-0.113000000000
7.548663803000,-0.113000000000
7.556350785000,-0.108000000000
7.564037767000,-0.100000000000
7.571724749000,-0.100000000000
7.579411731000,-0.096000000000
7.587098713000,-0.091000000000
7.594785695000,-0.093000000000
7.602472677000,-0.096000000000
7.610159659000,-0.091000000000
7.617846641000,-0.076000000000
7.625533623000,-0.051000000000
7.633220605000,-0.034000000000
7.640907624000,-0.036000000000
7.648594606000,-0.041000000000
7.656281588000,-0.046000000000
7.663968570000,-0.071000000000
7.671655552000,-0.100000000000
7.679342534000,-0.105000000000
7.687029516000,-0.096000000000
7.694716498000,-0.088000000000
7.702403480000,-0.088000000000
7.710090462000,-0.083000000000
7.717777444000,-0.078000000000
7.725464426000,-0.076000000000
7.733151408000,-0.078000000000
7.740838390000,-0.100000000000
7.748525372000,-0.150000000000
7.756212354000,-0.184000000000
7.763899336000,-0.019000000000
7.771586318000,0.529000000000
7.779273300000,1.331000000000
7.786960282000,1.979000000000
7.794647264000,1.602000000000
7.802334246000,0.083000000000
7.810021228000,-0.718000000000
7.817708210000,-0.233000000000
7.825395192000,-0.036000000000
7.833082174000,-0.265000000000
7.840769156000,-0.194000000000
7.848456138000,-0.098000000000
7.856143120000,-0.162000000000
7.863830102000,-0.147000000000
7.871517084000,-0.088000000000
7.879204066000,-0.091000000000
7.886891048000,-0.086000000000
7.894578030000,-0.051000000000
7.902265012000,-0.032000000000
7.909951994000,-0.019000000000
7.917638976000,0.004000000000
7.925325958000,0.029000000000
7.933012940000,0.049000000000
7.940699922000,0.076000000000
7.948386904000,0.105000000000
7.956073886000,0.135000000000
7.963760868000,0.172000000000
7.971447850000,0.211000000000
7.979134832000,0.251000000000
7.986821814000,0.290000000000
7.994508796000,0.322000000000
8.002195778000,0.344000000000
8.009882760000,0.359000000000
8.017569742000,0.359000000000
8.025256724000,0.349000000000
8.032943706000,0.332000000000
8.040630688000,0.297000000000
8.048317670000,0.241000000000
8.056004652000,0.152000000000
8.063691634000,0.044000000000
8.071378616000,-0.061000000000
8.079065598000,-0.157000000000
8.086752580000,-0.231000000000
8.094439562000,-0.283000000000
8.102126544000,-0.315000000000
8.109813526000,-0.324000000000
8.117500508000,-0.324000000000
8.125187490000,-0.320000000000
8.132874472000,-0.307000000000
8.140561454000,-0.295000000000
8.148248436000,-0.283000000000
8.155935418000,-0.270000000000
8.163622400000,-0.256000000000
8.171309382000,-0.243000000000
8.178996364000,-0.233000000000
8.186683346000,-0.224000000000
8.194370328000,-0.219000000000
8.202057351000,-0.214000000000
8.209744194000,-0.206000000000
8.217431037000,-0.204000000000
8.225117880000,-0.199000000000
8.232804723000,-0.194000000000
8.240491566000,-0.192000000000
8.248178409000,-0.189000000000
8.255865252000,-0.189000000000
8.263552095000,-0.187000000000
8.271238938000,-0.182000000000
8.278925781000,-0.179000000000
8.286612624000,-0.177000000000
8.294299467000,-0.174000000000
8.301986310000,-0.172000000000
8.309673153000,-0.169000000000
8.317359996000,-0.164000000000
8.325046839000,-0.160000000000
8.332733682000,-0.155000000000
8.340420525000,-0.150000000000
8.348107368000,-0.147000000000
8.355794211000,-0.145000000000
8.363481054000,-0.140000000000
8.371167897000,-0.132000000000
8.378854740000,-0.130000000000
8.386541583000,-0.128000000000
8.394228426000,-0.125000000000
8.401915269000,-0.120000000000
8.409602112000,-0.115000000000
8.417288955000,-0.115000000000
8.424975798000,-0.113000000000
8.432662641000,-0.105000000000
8.440349484000,-0.103000000000
8.448036327000,-0.105000000000
8.455723170000,-0.103000000000
8.463410013000,-0.093000000000
8.471096856000,-0.076000000000
8.478783699000,-0.054000000000
8.486470542000,-0.046000000000
8.494157385000,-0.056000000000
8.501844228000,-0.056000000000
8.509531071000,-0.059000000000
8.517217914000,-0.086000000000
8.524904757000,-0.110000000000
8.532591600000,-0.108000000000
8.540278443000,-0.098000000000
8.547965286000,-0.098000000000
8.555652129000,-0.096000000000
8.563338972000,-0.091000000000
8.571025815000,-0.091000000000
8.578712658000,-0.088000000000
8.586399501000,-0.091000000000
8.594086344000,-0.110000000000
8.601773187000,-0.167000000000
8.609460030000,-0.194000000000
8.617146873000,0.009000000000
8.624833716000,0.585000000000
8.632520559000,1.383000000000
8.640207402000,1.986000000000
8.647894245000,1.491000000000
8.655581088000,-0.044000000000
8.663267931000,-0.701000000000
8.670954774000,-0.187000000000
8.678641617000,-0.061000000000
8.686328460000,-0.283000000000
8.694015303000,-0.201000000000
8.701702146000,-0.123000000000
8.709388989000,-0.182000000000
8.717075832000,-0.162000000000
8.724762675000,-0.110000000000
8.732449518000,-0.110000000000
8.740136361000,-0.100000000000
8.747823204000,-0.068000000000
8.755510047000,-0.054000000000
8.763196900000,-0.039000000000
8.770884021000,-0.014000000000
8.778571142000,0.007000000000
8.786258263000,0.029000000000
8.793945384000,0.056000000000
8.801632505000,0.086000000000
8.809319626000,0.115000000000
8.817006747000,0.150000000000
8.824693868000,0.189000000000
8.832380989000,0.228000000000
8.840068110000,0.265000000000
8.847755231000,0.297000000000
8.855442352000,0.322000000000
8.863129473000,0.334000000000
8.870816594000,0.334000000000
8.878503715000,0.327000000000
8.886190836000,0.310000000000
8.893877957000,0.275000000000
8.901565078000,0.219000000000
8.909252199000,0.135000000000
8.916939320000,0.032000000000
8.924626441000,-0.071000000000
8.932313562000,-0.162000000000
8.940000683000,-0.233000000000
8.947687804000,-0.283000000000
8.955374925000,-0.307000000000
8.963062046000,-0.317000000000
8.970749167000,-0.320000000000
8.978436288000,-0.312000000000
8.986123409000,-0.302000000000
8.993810530000,-0.290000000000
9.001497651000,-0.275000000000
9.009184772000,-0.263000000000
9.016871893000,-0.253000000000
9.024559014000,-0.241000000000
9.032246135000,-0.231000000000
9.039933256000,-0.221000000000
9.047620377000,-0.214000000000
9.055307498000,-0.211000000000
9.062994619000,-0.206000000000
9.070681740000,-0.201000000000
9.078368861000,-0.196000000000
9.086055982000,-0.194000000000
9.093743103000,-0.192000000000
9.101430224000,-0.189000000000
9.109117345000,-0.184000000000
9.116804466000,-0.182000000000
9.124491587000,-0.182000000000
9.132178708000,-0.177000000000
9.139865829000,-0.174000000000
9.147552950000,-0.172000000000
9.155240071000,-0.169000000000
9.162927192000,-0.167000000000
9.170614313000,-0.162000000000
9.178301434000,-0.160000000000
9.185988555000,-0.155000000000
9.193675676000,-0.150000000000
9.201362797000,-0.147000000000
9.209049918000,-0.142000000000
9.216737039000,-0.137000000000
9.224424160000,-0.132000000000
9.232111281000,-0.130000000000
9.239798402000,-0.128000000000
9.247485523000,-0.123000000000
9.255172644000,-0.123000000000
9.262859765000,-0.118000000000
9.270546886000,-0.115000000000
9.278234007000,-0.113000000000
9.285921128000,-0.110000000000
9.293608249000,-0.105000000000
9.301295370000,-0.103000000000
9.308982491000,-0.103000000000
9.316669612000,-0.100000000000
9.324356801000,-0.096000000000
9.332043922000,-0.093000000000
9.339731043000,-0.093000000000
9.347418164000,-0.093000000000
9.355105285000,-0.088000000000
9.362792406000,-0.073000000000
9.370479527000,-0.051000000000
9.378166648000,-0.041000000000
9.385853769000,-0.049000000000
9.393540890000,-0.051000000000
9.401228011000,-0.054000000000
9.408915132000,-0.081000000000
9.416602253000,-0.103000000000
9.424289374000,-0.100000000000
9.431976495000,-0.091000000000
9.439663616000,-0.093000000000
9.447350737000,-0.091000000000
9.455037858000,-0.086000000000
9.462724979000,-0.086000000000
9.470412100000,-0.083000000000
9.478099221000,-0.086000000000
9.485786342000,-0.103000000000
9.493473463000,-0.152000000000
9.501160584000,-0.187000000000
9.508847705000,-0.029000000000
9.516534826000,0.489000000000
9.524221947000,1.267000000000
9.531909068000,1.939000000000
9.539596189000,1.632000000000
9.547283310000,0.150000000000
9.554970431000,-0.704000000000
9.562657552000,-0.256000000000
9.570344673000,-0.034000000000
9.578031794000,-0.265000000000
9.585718915000,-0.221000000000
9.593406036000,-0.118000000000
9.601093157000,-0.177000000000
9.608780278000,-0.172000000000
9.616467399000,-0.113000000000
9.624154520000,-0.110000000000
9.631841641000,-0.105000000000
9.639528762000,-0.073000000000
9.647215883000,-0.056000000000
9.654903004000,-0.044000000000
9.662590125000,-0.019000000000
9.670277246000,0.002000000000
9.677964367000,0.022000000000
9.685651488000,0.046000000000
9.693338609000,0.076000000000
9.701025730000,0.105000000000
9.708712851000,0.137000000000
9.716399972000,0.174000000000
9.724087093000,0.211000000000
9.731774214000,0.246000000000
9.739461335000,0.275000000000
9.747148456000,0.297000000000
9.754835577000,0.312000000000
9.762522698000,0.315000000000
9.770209819000,0.307000000000
9.777896940000,0.295000000000
9.785584061000,0.268000000000
9.793271182000,0.221000000000
9.800958303000,0.150000000000
9.808645424000,0.056000000000
9.816332545000,-0.044000000000
9.824019666000,-0.132000000000
9.831706787000,-0.206000000000
9.839393908000,-0.260000000000
9.847081029000,-0.290000000000
9.854768150000,-0.305000000000
9.862455271000,-0.310000000000
9.870142392000,-0.305000000000
9.877829513000,-0.295000000000
9.885516698000,-0.283000000000
9.893203541000,-0.270000000000
9.900890384000,-0.258000000000
9.908577227000,-0.246000000000
9.916264070000,-0.236000000000
9.923950913000,-0.226000000000
9.931637756000,-0.216000000000
9.939324599000,-0.211000000000
9.947011442000,-0.204000000000
9.954698285000,-0.199000000000
9.962385128000,-0.196000000000
9.970071971000,-0.196000000000
9.977758814000,-0.192000000000
9.985445657000,-0.189000000000
9.993132500000,-0.187000000000
10.000819343000,-0.182000000000
10.008506186000,-0.179000000000
10.016193029000,-0.177000000000
10.023879872000,-0.174000000000
10.031566715000,-0.172000000000
10.039253558000,-0.169000000000
10.046940401000,-0.167000000000
10.054627244000,-0.164000000000
10.062314087000,-0.160000000000
10.070000930000,-0.155000000000
10.077687773000,-0.152000000000
10.085374616000,-0.147000000000
10.093061459000,-0.142000000000
10.100748302000,-0.140000000000
10.108435145000,-0.135000000000
10.116121988000,-0.130000000000
10.123808831000,-0.125000000000
10.131495674000,-0.123000000000
10.139182517000,-0.123000000000
10.146869360000,-0.118000000000
10.154556203000,-0.115000000000
10.162243046000,-0.113000000000
10.169929889000,-0.110000000000
10.177616732000,-0.108000000000
10.185303575000,-0.105000000000
10.192990418000,-0.103000000000
10.200677261000,-0.100000000000
10.208364104000,-0.098000000000
10.216050947000,-0.096000000000
10.223737790000,-0.093000000000
10.231424633000,-0.093000000000
10.239111476000,-0.088000000000
10.246798319000,-0.088000000000
10.254485162000,-0.088000000000
10.262172005000,-0.086000000000
10.269858848000,-0.076000000000
10.277545691000,-0.056000000000
10.285232534000,-0.039000000000
10.292919377000,-0.039000000000
10.300606220000,-0.046000000000
10.308293063000,-0.049000000000
10.315979906000,-0.064000000000
10.323666749000,-0.091000000000
10.331353592000,-0.103000000000
10.339040435000,-0.096000000000
10.346727278000,-0.088000000000
10.354414121000,-0.088000000000
10.362100964000,-0.088000000000
10.369787807000,-0.083000000000
10.377474650000,-0.083000000000
10.385161493000,-0.081000000000
10.392848336000,-0.088000000000
10.400535179000,-0.118000000000
10.408222022000,-0.174000000000
10.415908865000,-0.152000000000
10.423595708000,0.164000000000
10.431282551000,0.824000000000
10.438969394000,1.614000000000
10.446656251000,1.949000000000
10.454343233000,0.989000000000
10.462030215000,-0.445000000000
10.469717197000,-0.563000000000
10.477404179000,-0.054000000000
10.485091161000,-0.152000000000
10.492778143000,-0.283000000000
10.500465125000,-0.147000000000
10.508152107000,-0.137000000000
10.515839089000,-0.189000000000
10.523526071000,-0.140000000000
10.531213053000,-0.105000000000
10.538900035000,-0.113000000000
10.546587017000,-0.093000000000
10.554273999000,-0.064000000000
10.561960981000,-0.051000000000
10.569647963000,-0.034000000000
10.577334945000,-0.009000000000
10.585021927000,0.009000000000
10.592708909000,0.034000000000
10.600395891000,0.061000000000
10.608082873000,0.086000000000
10.615769855000,0.115000000000
10.623456837000,0.152000000000
10.631143819000,0.187000000000
10.638830801000,0.219000000000
10.646517783000,0.253000000000
10.654204765000,0.280000000000
10.661891747000,0.297000000000
10.669578729000,0.305000000000
10.677265711000,0.302000000000
10.684952693000,0.292000000000
10.692639675000,0.273000000000
10.700326657000,0.238000000000
10.708013639000,0.184000000000
10.715700621000,0.103000000000
10.723387603000,0.009000000000
10.731074585000,-0.083000000000
10.738761567000,-0.164000000000
10.746448549000,-0.228000000000
10.754135531000,-0.270000000000
10.761822513000,-0.292000000000
10.769509495000,-0.302000000000
10.777196477000,-0.300000000000
10.784883459000,-0.292000000000
10.792570441000,-0.283000000000
10.800257423000,-0.270000000000
10.807944405000,-0.260000000000
10.815631387000,-0.248000000000
10.823318369000,-0.236000000000
10.831005351000,-0.224000000000
10.838692333000,-0.214000000000
10.846379315000,-0.209000000000
10.854066297000,-0.204000000000
10.861753279000,-0.199000000000
10.869440261000,-0.194000000000
10.877127243000,-0.192000000000
10.884814225000,-0.189000000000
10.892501207000,-0.187000000000
10.900188189000,-0.184000000000
10.907875171000,-0.182000000000
10.915562153000,-0.179000000000
10.923249135000,-0.177000000000
10.930936117000,-0.174000000000
10.938623099000,-0.172000000000
10.946310081000,-0.169000000000
10.953997063000,-0.167000000000
10.961684045000,-0.164000000000
10.969371027000,-0.160000000000
10.977058009000,-0.155000000000
10.984744991000,-0.152000000000
10.992431973000,-0.147000000000
11.000118955000,-0.142000000000
11.007805974000,-0.140000000000
11.015493095000,-0.135000000000
11.023180216000,-0.132000000000
11.030867337000,-0.128000000000
11.038554458000,-0.123000000000
11.046241579000,-0.120000000000
11.053928700000,-0.115000000000
11.061615821000,-0.115000000000
11.069302942000,-0.110000000000
11.076990063000,-0.108000000000
11.084677184000,-0.105000000000
11.092364305000,-0.103000000000
11.100051426000,-0.100000000000
11.107738547000,-0.098000000000
11.115425668000,-0.096000000000
11.123112789000,-0.093000000000
11.130799910000,-0.091000000000
11.138487031000,-0.091000000000
11.146174152000,-0.091000000000
11.153861273000,-0.086000000000
11.161548394000,-0.071000000000
11.169235515000,-0.051000000000
11.176922636000,-0.036000000000
11.184609757000,-0.041000000000
11.192296878000,-0.049000000000
11.199983999000,-0.051000000000
11.207671120000,-0.068000000000
11.215358241000,-0.098000000000
11.223045362000,-0.105000000000
11.230732483000,-0.093000000000
11.238419604000,-0.088000000000
11.246106725000,-0.091000000000
11.253793846000,-0.086000000000
11.261480967000,-0.083000000000
11.269168088000,-0.083000000000
11.276855209000,-0.083000000000
11.284542330000,-0.091000000000
11.292229451000,-0.128000000000
11.299916572000,-0.179000000000
11.307603693000,-0.113000000000
11.315290814000,0.273000000000
11.322977935000,0.969000000000
11.330665056000,1.723000000000
11.338352177000,1.831000000000
11.346039298000,0.642000000000
11.353726419000,-0.593000000000
11.361413540000,-0.440000000000
11.369100661000,-0.024000000000
11.376787782000,-0.201000000000
11.384474903000,-0.253000000000
11.392162024000,-0.123000000000
11.399849145000,-0.150000000000
11.407536266000,-0.179000000000
11.415223387000,-0.120000000000
11.422910508000,-0.100000000000
11.430597629000,-0.105000000000
11.438284750000,-0.078000000000
11.445971871000,-0.054000000000
11.453658992000,-0.041000000000
11.461346113000,-0.022000000000
11.469033234000,0.002000000000
11.476720355000,0.022000000000
11.484407476000,0.046000000000
11.492094597000,0.073000000000
11.499781718000,0.100000000000
11.507468839000,0.130000000000
11.515155960000,0.164000000000
11.522843081000,0.201000000000
11.530530202000,0.236000000000
11.538217323000,0.268000000000
11.545904444000,0.295000000000
11.553591565000,0.310000000000
11.561278686000,0.317000000000
11.568965871000,0.315000000000
11.576652992000,0.302000000000
11.584340113000,0.280000000000
11.592027234000,0.241000000000
11.599714355000,0.174000000000
11.607401476000,0.088000000000
11.615088597000,-0.007000000000
11.622775718000,-0.098000000000
11.630462839000,-0.177000000000
11.638149960000,-0.233000000000
11.645837081000,-0.268000000000
11.653524202000,-0.292000000000
11.661211323000,-0.300000000000
11.668898444000,-0.295000000000
11.676585565000,-0.288000000000
11.684272686000,-0.275000000000
11.691959807000,-0.265000000000
11.699646928000,-0.256000000000
11.707334049000,-0.241000000000
11.715021170000,-0.226000000000
11.722708291000,-0.219000000000
11.730395412000,-0.211000000000
11.738082533000,-0.201000000000
11.745769654000,-0.196000000000
11.753456775000,-0.192000000000
11.761143896000,-0.187000000000
11.768831017000,-0.184000000000
11.776518138000,-0.184000000000
11.784205259000,-0.182000000000
11.791892380000,-0.177000000000
11.799579501000,-0.172000000000
11.807266622000,-0.169000000000
11.814953743000,-0.164000000000
11.822640864000,-0.162000000000
11.830327985000,-0.162000000000
11.838015106000,-0.160000000000
11.845702227000,-0.155000000000
11.853389348000,-0.155000000000
11.861076469000,-0.152000000000
11.868763590000,-0.147000000000
11.876450711000,-0.140000000000
11.884137832000,-0.137000000000
11.891824953000,-0.135000000000
11.899512074000,-0.128000000000
11.907199195000,-0.123000000000
11.914886316000,-0.120000000000
11.922573437000,-0.115000000000
11.930260558000,-0.113000000000
11.937947679000,-0.115000000000
11.945634800000,-0.115000000000
11.953321921000,-0.108000000000
11.961009042000,-0.100000000000
11.968696163000,-0.096000000000
11.976383284000,-0.096000000000
11.984070405000,-0.093000000000
11.991757526000,-0.086000000000
11.999444647000,-0.086000000000
12.007131768000,-0.088000000000
12.014818889000,-0.086000000000
12.022506010000,-0.083000000000
12.030193131000,-0.083000000000
12.037880252000,-0.081000000000
12.045567373000,-0.068000000000
12.053254494000,-0.046000000000
12.060941615000,-0.029000000000
12.068628736000,-0.034000000000
12.076315857000,-0.041000000000
12.084002978000,-0.039000000000
12.091690099000,-0.049000000000
12.099377220000,-0.081000000000
12.107064341000,-0.100000000000
12.114751462000,-0.086000000000
12.122438583000,-0.076000000000
12.130125768000,-0.076000000000
12.137812471000,-0.078000000000
12.145499174000,-0.076000000000
12.153185877000,-0.068000000000
12.160872580000,-0.068000000000
12.168559283000,-0.081000000000
12.176245986000,-0.115000000000
12.183932689000,-0.169000000000
12.191619392000,-0.130000000000
12.199306095000,0.221000000000
12.206992798000,0.923000000000
12.214679501000,1.713000000000
12.222366204000,1.939000000000
12.230052907000,0.839000000000
12.237739610000,-0.534000000000
12.245426313000,-0.509000000000
12.253113016000,-0.027000000000
12.260799719000,-0.169000000000
12.268486422000,-0.258000000000
12.276173125000,-0.118000000000
12.283859828000,-0.128000000000
12.291546531000,-0.162000000000
12.299233234000,-0.108000000000
12.306919937000,-0.086000000000
12.314606640000,-0.091000000000
12.322293343000,-0.068000000000
12.329980046000,-0.044000000000
12.337666749000,-0.029000000000
12.345353452000,-0.007000000000
12.353040155000,0.019000000000
12.360726858000,0.039000000000
12.368413561000,0.059000000000
12.376100264000,0.091000000000
12.383786967000,0.123000000000
12.391473670000,0.152000000000
12.399160373000,0.187000000000
12.406847076000,0.224000000000
12.414533779000,0.268000000000
12.422220482000,0.310000000000
12.429907185000,0.337000000000
12.437593888000,0.352000000000
12.445280591000,0.361000000000
12.452967294000,0.359000000000
12.460653997000,0.347000000000
12.468340700000,0.324000000000
12.476027403000,0.283000000000
12.483714106000,0.214000000000
12.491400809000,0.118000000000
12.499087512000,0.012000000000
12.506774215000,-0.088000000000
12.514460918000,-0.174000000000
12.522147621000,-0.238000000000
12.529834324000,-0.280000000000
12.537521027000,-0.305000000000
12.545207730000,-0.315000000000
12.552894433000,-0.312000000000
12.560581136000,-0.302000000000
12.568267839000,-0.290000000000
12.575954542000,-0.275000000000
12.583641245000,-0.265000000000
12.591327948000,-0.253000000000
12.599014651000,-0.238000000000
12.606701354000,-0.226000000000
12.614388057000,-0.219000000000
12.622074760000,-0.209000000000
12.629761463000,-0.206000000000
12.637448166000,-0.201000000000
12.645134869000,-0.192000000000
12.652821572000,-0.187000000000
12.660508275000,-0.187000000000
12.668194978000,-0.179000000000
12.675881681000,-0.174000000000
12.683568384000,-0.174000000000
12.691255147000,-0.174000000000
12.698942268000,-0.169000000000
12.706629389000,-0.174000000000
12.714316510000,-0.174000000000
12.722003631000,-0.167000000000
12.729690752000,-0.157000000000
12.737377873000,-0.155000000000
12.745064994000,-0.152000000000
12.752752115000,-0.147000000000
12.760439236000,-0.140000000000
12.768126357000,-0.140000000000
12.775813478000,-0.140000000000
12.783500599000,-0.135000000000
12.791187720000,-0.132000000000
12.798874841000,-0.128000000000
12.806561962000,-0.120000000000
12.814249083000,-0.118000000000
12.821936204000,-0.115000000000
12.829623325000,-0.110000000000
12.837310446000,-0.110000000000
12.844997567000,-0.108000000000
12.852684688000,-0.100000000000
12.860371809000,-0.091000000000
12.868058930000,-0.096000000000
12.875746051000,-0.103000000000
12.883433172000,-0.096000000000
12.891120293000,-0.086000000000
12.898807414000,-0.078000000000
12.906494535000,-0.061000000000
12.914181656000,-0.041000000000
12.921868777000,-0.036000000000
12.929555898000,-0.046000000000
12.937243019000,-0.046000000000
12.944930140000,-0.054000000000
12.952617261000,-0.086000000000
12.960304382000,-0.105000000000
12.967991503000,-0.098000000000
12.975678624000,-0.086000000000
12.983365745000,-0.086000000000
12.991052866000,-0.083000000000
12.998739987000,-0.078000000000
13.006427108000,-0.083000000000
13.014114229000,-0.081000000000
13.021801350000,-0.078000000000
13.029488471000,-0.098000000000
13.037175592000,-0.157000000000
13.044862713000,-0.179000000000
13.052549834000,0.059000000000
13.060236955000,0.681000000000
13.067924076000,1.496000000000
13.075611197000,2.016000000000
13.083298318000,1.349000000000
13.090985439000,-0.196000000000
13.098672560000,-0.676000000000
13.106359681000,-0.130000000000
13.114046802000,-0.081000000000
13.121733923000,-0.273000000000
13.129421044000,-0.155000000000
13.137108165000,-0.103000000000
13.144795286000,-0.169000000000
13.152482407000,-0.130000000000
13.160169528000,-0.081000000000
13.167856649000,-0.091000000000
13.175543770000,-0.076000000000
13.183230891000,-0.044000000000
13.190918012000,-0.032000000000
13.198605133000,-0.012000000000
13.206292254000,0.014000000000
13.213979375000,0.034000000000
13.221666496000,0.056000000000
13.229353617000,0.086000000000
13.237040738000,0.115000000000
13.244727859000,0.147000000000
13.252415048000,0.184000000000
13.260102169000,0.226000000000
13.267789290000,0.265000000000
13.275476411000,0.305000000000
13.283163532000,0.339000000000
13.290850653000,0.361000000000
13.298537774000,0.371000000000
13.306224895000,0.371000000000
13.313912016000,0.361000000000
13.321599137000,0.337000000000
13.329286258000,0.297000000000
13.336973379000,0.231000000000
13.344660500000,0.135000000000
13.352347621000,0.024000000000
13.360034742000,-0.083000000000
13.367721863000,-0.177000000000
13.375408984000,-0.251000000000
13.383096105000,-0.297000000000
13.390783226000,-0.322000000000
13.398470347000,-0.332000000000
13.406157468000,-0.332000000000
13.413844589000,-0.324000000000
13.421531710000,-0.315000000000
13.429218831000,-0.300000000000
13.436905952000,-0.288000000000
13.444593073000,-0.273000000000
13.452280194000,-0.263000000000
13.459967315000,-0.251000000000
13.467654436000,-0.238000000000
13.475341557000,-0.228000000000
13.483028678000,-0.221000000000
13.490715799000,-0.214000000000
13.498402920000,-0.209000000000
13.506090041000,-0.201000000000
13.513777162000,-0.199000000000
13.521464283000,-0.194000000000
13.529151404000,-0.192000000000
13.536838525000,-0.189000000000
13.544525646000,-0.187000000000
13.552212767000,-0.184000000000
13.559899888000,-0.182000000000
13.567587009000,-0.179000000000
13.575274130000,-0.177000000000
13.582961251000,-0.174000000000
13.590648372000,-0.172000000000
13.598335493000,-0.169000000000
13.606022614000,-0.164000000000
13.613709735000,-0.160000000000
13.621396856000,-0.157000000000
13.629083977000,-0.152000000000
13.636771098000,-0.147000000000
13.644458219000,-0.145000000000
13.652145340000,-0.140000000000
13.659832461000,-0.135000000000
13.667519582000,-0.132000000000
13.675206703000,-0.130000000000
13.682893824000,-0.125000000000
13.690580945000,-0.123000000000
13.698268066000,-0.120000000000
13.705955187000,-0.115000000000
13.713642308000,-0.113000000000
13.721329429000,-0.110000000000
13.729016550000,-0.108000000000
13.736703671000,-0.108000000000
13.744390792000,-0.105000000000
13.752077913000,-0.091000000000
13.759765034000,-0.068000000000
13.767452155000,-0.051000000000
13.775139276000,-0.054000000000
13.782826397000,-0.061000000000
13.790513518000,-0.061000000000
13.798200639000,-0.073000000000
13.805887760000,-0.103000000000
13.813574945000,-0.115000000000
13.821261857000,-0.105000000000
13.828948769000,-0.100000000000
13.836635681000,-0.100000000000
13.844322593000,-0.096000000000
13.852009505000,-0.093000000000
13.859696417000,-0.093000000000
13.867383329000,-0.091000000000
13.875070241000,-0.098000000000
13.882757153000,-0.132000000000
13.890444065000,-0.187000000000
13.898130977000,-0.150000000000
13.905817889000,0.199000000000
13.913504801000,0.891000000000
13.921191713000,1.691000000000
13.928878625000,1.969000000000
13.936565537000,0.898000000000
13.944252449000,-0.521000000000
13.951939361000,-0.541000000000
13.959626273000,-0.032000000000
13.967313185000,-0.169000000000
13.975000097000,-0.285000000000
13.982687009000,-0.142000000000
13.990373921000,-0.145000000000
13.998060833000,-0.192000000000
14.005747745000,-0.137000000000
14.013434657000,-0.108000000000
14.021121569000,-0.115000000000
14.028808481000,-0.091000000000
14.036495393000,-0.064000000000
14.044182305000,-0.051000000000
14.051869217000,-0.032000000000
14.059556129000,-0.004000000000
14.067243041000,0.017000000000
14.074929953000,0.041000000000
14.082616865000,0.071000000000
14.090303777000,0.100000000000
14.097990689000,0.135000000000
14.105677601000,0.172000000000
14.113364513000,0.214000000000
14.121051425000,0.253000000000
14.128738337000,0.290000000000
14.136425249000,0.320000000000
14.144112161000,0.339000000000
14.151799073000,0.349000000000
14.159485985000,0.344000000000
14.167172897000,0.332000000000
14.174859809000,0.310000000000
14.182546721000,0.265000000000
14.190233633000,0.194000000000
14.197920545000,0.098000000000
14.205607457000,-0.009000000000
14.213294369000,-0.110000000000
14.220981281000,-0.196000000000
14.228668193000,-0.260000000000
14.236355105000,-0.297000000000
14.244042017000,-0.317000000000
14.251728929000,-0.324000000000
14.259415841000,-0.320000000000
14.267102753000,-0.312000000000
14.274789665000,-0.302000000000
14.282476577000,-0.290000000000
14.290163489000,-0.278000000000
14.297850401000,-0.265000000000
14.305537313000,-0.253000000000
14.313224225000,-0.243000000000
14.320911137000,-0.233000000000
14.328598049000,-0.224000000000
14.336284961000,-0.214000000000
14.343971873000,-0.209000000000
14.351658785000,-0.204000000000
14.359345697000,-0.199000000000
14.367032609000,-0.194000000000
14.374719585000,-0.192000000000
14.382406497000,-0.187000000000
14.390093409000,-0.184000000000
14.397780321000,-0.182000000000
14.405467233000,-0.179000000000
14.413154145000,-0.177000000000
14.420841057000,-0.174000000000
14.428527969000,-0.172000000000
14.436214881000,-0.169000000000
14.443901793000,-0.164000000000
14.451588705000,-0.162000000000
14.459275617000,-0.160000000000
14.466962529000,-0.155000000000
14.474649441000,-0.150000000000
14.482336353000,-0.145000000000
14.490023265000,-0.142000000000
14.497710177000,-0.137000000000
14.505397089000,-0.135000000000
14.513084001000,-0.130000000000
14.520770913000,-0.125000000000
14.528457825000,-0.123000000000
14.536144737000,-0.120000000000
14.543831649000,-0.115000000000
14.551518561000,-0.113000000000
14.559205473000,-0.110000000000
14.566892385000,-0.108000000000
14.574579297000,-0.103000000000
14.582266209000,-0.100000000000
14.589953121000,-0.098000000000
14.597640033000,-0.096000000000
14.605326945000,-0.093000000000
14.613013857000,-0.091000000000
14.620700769000,-0.091000000000
14.628387681000,-0.091000000000
14.636074593000,-0.086000000000
14.643761505000,-0.066000000000
14.651448417000,-0.044000000000
14.659135329000,-0.036000000000
14.666822241000,-0.046000000000
14.674509153000,-0.049000000000
14.682196065000,-0.054000000000
14.689882977000,-0.081000000000
14.697569889000,-0.103000000000
14.705256801000,-0.100000000000
14.712943713000,-0.091000000000
14.720630625000,-0.091000000000
14.728317537000,-0.088000000000
14.736004449000,-0.086000000000
14.743691361000,-0.083000000000
14.751378273000,-0.083000000000
14.759065185000,-0.083000000000
14.766752097000,-0.103000000000
14.774439009000,-0.150000000000
14.782125921000,-0.182000000000
14.789812833000,-0.017000000000
14.797499745000,0.502000000000
14.805186657000,1.265000000000
14.812873569000,1.920000000000
14.820560481000,1.609000000000
14.828247393000,0.137000000000
14.835934305000,-0.696000000000
14.843621217000,-0.246000000000
14.851308129000,-0.032000000000
14.858995041000,-0.263000000000
14.866681953000,-0.216000000000
14.874368865000,-0.115000000000
14.882055777000,-0.174000000000
14.889742689000,-0.169000000000
14.897429601000,-0.110000000000
14.905116513000,-0.108000000000
14.912803425000,-0.103000000000
14.920490337000,-0.071000000000
14.928177249000,-0.054000000000
14.935864221000,-0.039000000000
14.943551342000,-0.014000000000
14.951238463000,0.007000000000
14.958925584000,0.029000000000
14.966612705000,0.054000000000
14.974299826000,0.081000000000
14.981986947000,0.110000000000
14.989674068000,0.145000000000
14.997361189000,0.182000000000
15.005048310000,0.216000000000
15.012735431000,0.251000000000
15.020422552000,0.283000000000
15.028109673000,0.307000000000
15.035796794000,0.320000000000
15.043483915000,0.322000000000
15.051171036000,0.317000000000
15.058858157000,0.300000000000
15.066545278000,0.275000000000
15.074232399000,0.228000000000
15.081919520000,0.155000000000
15.089606641000,0.059000000000
15.097293762000,-0.039000000000
15.104980883000,-0.128000000000
15.112668004000,-0.201000000000
15.120355125000,-0.256000000000
15.128042246000,-0.288000000000
15.135729367000,-0.302000000000
15.143416488000,-0.305000000000
15.151103609000,-0.300000000000
15.158790730000,-0.290000000000
15.166477851000,-0.278000000000
15.174164972000,-0.265000000000
15.181852093000,-0.256000000000
15.189539214000,-0.243000000000
15.197226335000,-0.231000000000
15.204913456000,-0.221000000000
15.212600577000,-0.214000000000
15.220287698000,-0.209000000000
15.227974819000,-0.201000000000
15.235661940000,-0.196000000000
15.243349061000,-0.192000000000
15.251036182000,-0.189000000000
15.258723303000,-0.184000000000
15.266410424000,-0.182000000000
15.274097545000,-0.179000000000
15.281784666000,-0.179000000000
15.289471787000,-0.177000000000
15.297158908000,-0.174000000000
15.304846029000,-0.172000000000
15.312533150000,-0.169000000000
15.320220271000,-0.164000000000
15.327907392000,-0.162000000000
15.335594513000,-0.157000000000
15.343281634000,-0.155000000000
15.350968755000,-0.150000000000
15.358655876000,-0.145000000000
15.366342997000,-0.140000000000
15.374030118000,-0.137000000000
15.381717239000,-0.135000000000
15.389404360000,-0.132000000000
15.397091481000,-0.128000000000
15.404778602000,-0.125000000000
15.412465723000,-0.120000000000
15.420152844000,-0.115000000000
15.427839965000,-0.113000000000
15.435527086000,-0.110000000000
15.443214207000,-0.110000000000
15.450901328000,-0.105000000000
15.458588449000,-0.100000000000
15.466275570000,-0.098000000000
15.473962691000,-0.098000000000
15.481649812000,-0.093000000000
15.489336933000,-0.093000000000
15.497024118000,-0.091000000000
15.504711239000,-0.086000000000
15.512398360000,-0.086000000000
15.520085481000,-0.088000000000
15.527772602000,-0.086000000000
15.535459723000,-0.076000000000
15.543146844000,-0.056000000000
15.550833965000,-0.036000000000
15.558521086000,-0.034000000000
15.566208207000,-0.044000000000
15.573895328000,-0.044000000000
15.581582449000,-0.056000000000
15.589269570000,-0.086000000000
15.596956691000,-0.100000000000
15.604643812000,-0.093000000000
15.612330933000,-0.086000000000
15.620018054000,-0.086000000000
15.627705175000,-0.083000000000
15.635392296000,-0.081000000000
15.643079417000,-0.078000000000
15.650766538000,-0.076000000000
15.658453659000,-0.083000000000
15.666140780000,-0.110000000000
15.673827901000,-0.164000000000
15.681515022000,-0.155000000000
15.689202143000,0.123000000000
15.696889264000,0.745000000000
15.704576385000,1.528000000000
15.712263506000,1.942000000000
15.719950627000,1.120000000000
15.727637748000,-0.342000000000
15.735324869000,-0.598000000000
15.743011990000,-0.081000000000
15.750699111000,-0.123000000000
15.758386232000,-0.278000000000
15.766073353000,-0.152000000000
15.773760474000,-0.128000000000
15.781447595000,-0.179000000000
15.789134716000,-0.137000000000
15.796821837000,-0.100000000000
15.804508958000,-0.105000000000
15.812196079000,-0.086000000000
15.819883200000,-0.059000000000
15.827570321000,-0.046000000000
15.835257442000,-0.029000000000
15.842944563000,-0.002000000000
15.850631684000,0.017000000000
15.858318805000,0.036000000000
15.866005926000,0.064000000000
15.873693047000,0.091000000000
15.881380168000,0.120000000000
15.889067289000,0.152000000000
15.896754410000,0.184000000000
15.904441531000,0.221000000000
15.912128652000,0.256000000000
15.919815773000,0.283000000000
15.927502894000,0.300000000000
15.935190015000,0.310000000000
15.942877136000,0.310000000000
15.950564257000,0.300000000000
15.958251378000,0.283000000000
15.965938499000,0.251000000000
15.973625620000,0.199000000000
15.981312741000,0.120000000000
15.988999862000,0.024000000000
15.996686983000,-0.068000000000
16.004374104000,-0.150000000000
16.012061225000,-0.214000000000
16.019748346000,-0.258000000000
16.027435467000,-0.283000000000
16.035122588000,-0.292000000000
16.042809709000,-0.292000000000
16.050496830000,-0.285000000000
16.058184015000,-0.275000000000
16.065871136000,-0.263000000000
16.073558257000,-0.253000000000
16.081245378000,-0.241000000000
16.088932499000,-0.228000000000
16.096619620000,-0.219000000000
16.104306741000,-0.209000000000
16.111993862000,-0.201000000000
16.119680983000,-0.194000000000
16.127368104000,-0.189000000000
16.135055225000,-0.187000000000
16.142742346000,-0.182000000000
16.150429467000,-0.177000000000
16.158116588000,-0.177000000000
16.165803709000,-0.174000000000
16.173490830000,-0.172000000000
16.181177951000,-0.172000000000
16.188865072000,-0.169000000000
16.196552193000,-0.167000000000
16.204239314000,-0.162000000000
16.211926435000,-0.160000000000
16.219613556000,-0.157000000000
16.227300677000,-0.155000000000
16.234987798000,-0.150000000000
16.242674919000,-0.145000000000
16.250362040000,-0.142000000000
16.258049161000,-0.137000000000
16.265736282000,-0.135000000000
16.273423403000,-0.132000000000
16.281110524000,-0.125000000000
16.288797645000,-0.123000000000
16.296484766000,-0.120000000000
16.304171887000,-0.115000000000
16.311859008000,-0.110000000000
16.319546129000,-0.105000000000
16.327233250000,-0.103000000000
16.334920371000,-0.100000000000
16.342607492000,-0.098000000000
16.350294613000,-0.096000000000
16.357981734000,-0.093000000000
16.365668855000,-0.091000000000
16.373355976000,-0.086000000000
16.381043097000,-0.083000000000
16.388730218000,-0.083000000000
16.396417339000,-0.083000000000
16.404104460000,-0.081000000000
16.411791581000,-0.076000000000
16.419478702000,-0.064000000000
16.427165823000,-0.041000000000
16.434852944000,-0.027000000000
16.442540065000,-0.032000000000
16.450227186000,-0.039000000000
16.457914307000,-0.041000000000
16.465601428000,-0.064000000000
16.473288549000,-0.088000000000
16.480975670000,-0.088000000000
16.488662791000,-0.081000000000
16.496349912000,-0.078000000000
16.504037033000,-0.076000000000
16.511724154000,-0.073000000000
16.519411275000,-0.073000000000
16.527098396000,-0.073000000000
16.534785517000,-0.071000000000
16.542472638000,-0.086000000000
16.550159759000,-0.130000000000
16.557846880000,-0.174000000000
16.565534001000,-0.054000000000
16.573221122000,0.416000000000
16.580908243000,1.164000000000
16.588595364000,1.856000000000
16.596282485000,1.693000000000
16.603969606000,0.310000000000
16.611656727000,-0.669000000000
16.619343916000,-0.307000000000
16.627030759000,-0.019000000000
16.634717602000,-0.236000000000
16.642404445000,-0.216000000000
16.650091288000,-0.103000000000
16.657778131000,-0.150000000000
16.665464974000,-0.150000000000
16.673151817000,-0.096000000000
16.680838660000,-0.091000000000
16.688525503000,-0.088000000000
16.696212346000,-0.054000000000
16.703899189000,-0.036000000000
16.711586032000,-0.024000000000
16.719272875000,0.002000000000
16.726959718000,0.022000000000
16.734646561000,0.036000000000
16.742333404000,0.061000000000
16.750020247000,0.093000000000
16.757707090000,0.123000000000
16.765393933000,0.155000000000
16.773080776000,0.189000000000
16.780767619000,0.228000000000
16.788454462000,0.265000000000
16.796141305000,0.300000000000
16.803828148000,0.322000000000
16.811514991000,0.339000000000
16.819201834000,0.344000000000
16.826888677000,0.337000000000
16.834575520000,0.322000000000
16.842262363000,0.295000000000
16.849949206000,0.248000000000
16.857636049000,0.177000000000
16.865322892000,0.083000000000
16.873009735000,-0.019000000000
16.880696578000,-0.110000000000
16.888383421000,-0.184000000000
16.896070264000,-0.243000000000
16.903757107000,-0.280000000000
16.911443950000,-0.292000000000
16.919130793000,-0.297000000000
16.926817636000,-0.295000000000
16.934504479000,-0.288000000000
16.942191322000,-0.275000000000
16.949878165000,-0.263000000000
16.957565008000,-0.253000000000
16.965251851000,-0.238000000000
16.972938694000,-0.221000000000
16.980625537000,-0.214000000000
16.988312380000,-0.211000000000
16.995999223000,-0.204000000000
17.003686066000,-0.194000000000
17.011372909000,-0.189000000000
17.019059752000,-0.184000000000
17.026746595000,-0.182000000000
17.034433438000,-0.184000000000
17.042120281000,-0.177000000000
17.049807124000,-0.167000000000
17.057493967000,-0.164000000000
17.065180810000,-0.167000000000
17.072867653000,-0.172000000000
17.080554496000,-0.167000000000
17.088241339000,-0.160000000000
17.095928182000,-0.160000000000
17.103615025000,-0.152000000000
17.111301868000,-0.147000000000
17.118988711000,-0.145000000000
17.126675554000,-0.145000000000
17.134362397000,-0.140000000000
17.142049240000,-0.135000000000
17.149736083000,-0.130000000000
17.157422926000,-0.125000000000
17.165109769000,-0.123000000000
17.172796612000,-0.120000000000
17.180483469000,-0.115000000000
17.188170451000,-0.110000000000
17.195857433000,-0.108000000000
17.203544415000,-0.108000000000
17.211231397000,-0.108000000000
17.218918379000,-0.100000000000
17.226605361000,-0.093000000000
17.234292343000,-0.091000000000
17.241979325000,-0.091000000000
17.249666307000,-0.088000000000
17.257353289000,-0.088000000000
17.265040271000,-0.088000000000
17.272727253000,-0.081000000000
17.280414235000,-0.059000000000
17.288101217000,-0.032000000000
17.295788199000,-0.024000000000
17.303475181000,-0.039000000000
17.311162163000,-0.044000000000
17.318849145000,-0.049000000000
17.326536127000,-0.076000000000
17.334223109000,-0.098000000000
17.341910091000,-0.091000000000
17.349597073000,-0.081000000000
17.357284055000,-0.081000000000
17.364971037000,-0.081000000000
17.372658019000,-0.076000000000
17.380345001000,-0.076000000000
17.388031983000,-0.071000000000
17.395718965000,-0.073000000000
17.403405947000,-0.100000000000
17.411092929000,-0.152000000000
17.418779911000,-0.145000000000
17.426466893000,0.140000000000
17.434153875000,0.792000000000
17.441840857000,1.602000000000
17.449527839000,1.998000000000
17.457214821000,1.122000000000
17.464901803000,-0.369000000000
17.472588785000,-0.605000000000
17.480275767000,-0.066000000000
17.487962749000,-0.115000000000
17.495649731000,-0.260000000000
17.503336713000,-0.125000000000
17.511023695000,-0.105000000000
17.518710677000,-0.162000000000
17.526397659000,-0.115000000000
17.534084641000,-0.078000000000
17.541771623000,-0.083000000000
17.549458605000,-0.059000000000
17.557145587000,-0.029000000000
17.564832569000,-0.022000000000
17.572519551000,0.000000000000
17.580206533000,0.029000000000
17.587893515000,0.046000000000
17.595580497000,0.066000000000
17.603267479000,0.098000000000
17.610954461000,0.132000000000
17.618641443000,0.160000000000
17.626328425000,0.189000000000
17.634015407000,0.236000000000
17.641702389000,0.280000000000
17.649389371000,0.315000000000
17.657076353000,0.349000000000
17.664763335000,0.376000000000
17.672450317000,0.384000000000
17.680137299000,0.384000000000
17.687824281000,0.371000000000
17.695511263000,0.349000000000
17.703198245000,0.312000000000
17.710885227000,0.243000000000
17.718572209000,0.145000000000
17.726259191000,0.034000000000
17.733946173000,-0.071000000000
17.741633192000,-0.162000000000
17.749320313000,-0.226000000000
17.757007434000,-0.273000000000
17.764694555000,-0.302000000000
17.772381676000,-0.312000000000
17.780068797000,-0.310000000000
17.787755918000,-0.305000000000
17.795443039000,-0.295000000000
17.803130160000,-0.278000000000
17.810817281000,-0.263000000000
17.818504402000,-0.251000000000
17.826191523000,-0.238000000000
17.833878644000,-0.224000000000
17.841565765000,-0.211000000000
17.849252886000,-0.206000000000
17.856940007000,-0.204000000000
17.864627128000,-0.196000000000
17.872314249000,-0.189000000000
17.880001370000,-0.187000000000
17.887688491000,-0.179000000000
17.895375612000,-0.177000000000
17.903062733000,-0.174000000000
17.910749854000,-0.172000000000
17.918436975000,-0.169000000000
17.926124096000,-0.167000000000
17.933811217000,-0.162000000000
17.941498338000,-0.160000000000
17.949185459000,-0.157000000000
17.956872580000,-0.155000000000
17.964559701000,-0.150000000000
17.972246822000,-0.147000000000
17.979933943000,-0.142000000000
17.987621064000,-0.140000000000
17.995308185000,-0.135000000000
18.002995306000,-0.132000000000
18.010682427000,-0.128000000000
18.018369548000,-0.123000000000
18.026056669000,-0.120000000000
18.033743790000,-0.118000000000
18.041430911000,-0.115000000000
18.049118032000,-0.110000000000
18.056805153000,-0.105000000000
18.064492274000,-0.103000000000
18.072179395000,-0.100000000000
18.079866516000,-0.098000000000
18.087553637000,-0.096000000000
18.095240758000,-0.096000000000
18.102927879000,-0.091000000000
18.110615000000,-0.073000000000
18.118302121000,-0.049000000000
18.125989242000,-0.036000000000
18.133676363000,-0.044000000000
18.141363484000,-0.049000000000
18.149050605000,-0.051000000000
18.156737726000,-0.078000000000
18.164424847000,-0.105000000000
18.172111968000,-0.103000000000
18.179799089000,-0.093000000000
18.187486210000,-0.091000000000
18.195173331000,-0.091000000000
18.202860452000,-0.086000000000
18.210547573000,-0.083000000000
18.218234694000,-0.081000000000
18.225921815000,-0.081000000000
18.233608936000,-0.096000000000
18.241296057000,-0.140000000000
18.248983178000,-0.184000000000
18.256670299000,-0.051000000000
18.264357420000,0.452000000000
18.272044541000,1.230000000000
18.279731662000,1.920000000000
18.287418783000,1.701000000000
18.295105904000,0.256000000000
18.302793089000,-0.706000000000
18.310480141000,-0.302000000000
18.318167193000,-0.024000000000
18.325854245000,-0.251000000000
18.333541297000,-0.219000000000
18.341228349000,-0.108000000000
18.348915401000,-0.162000000000
18.356602453000,-0.164000000000
18.364289505000,-0.103000000000
18.371976557000,-0.098000000000
18.379663609000,-0.093000000000
18.387350661000,-0.061000000000
18.395037713000,-0.041000000000
18.402724765000,-0.029000000000
18.410411817000,-0.004000000000
18.418098869000,0.019000000000
18.425785921000,0.041000000000
18.433472973000,0.068000000000
18.441160025000,0.098000000000
18.448847077000,0.128000000000
18.456534129000,0.162000000000
18.464221181000,0.201000000000
18.471908233000,0.241000000000
18.479595285000,0.280000000000
18.487282337000,0.315000000000
18.494969389000,0.342000000000
18.502656441000,0.352000000000
18.510343493000,0.354000000000
18.518030545000,0.349000000000
18.525717597000,0.332000000000
18.533404649000,0.300000000000
18.541091701000,0.248000000000
18.548778753000,0.164000000000
18.556465805000,0.059000000000
18.564152857000,-0.046000000000
18.571839909000,-0.142000000000
18.579526961000,-0.219000000000
18.587214013000,-0.273000000000
18.594901065000,-0.302000000000
18.602588117000,-0.317000000000
18.610275169000,-0.320000000000
18.617962221000,-0.315000000000
18.625649273000,-0.305000000000
18.633336325000,-0.292000000000
18.641023377000,-0.278000000000
18.648710429000,-0.268000000000
18.656397481000,-0.258000000000
18.664084533000,-0.246000000000
18.671771585000,-0.233000000000
18.679458637000,-0.224000000000
18.687145689000,-0.214000000000
18.694832741000,-0.206000000000
18.702519793000,-0.201000000000
18.710206845000,-0.196000000000
18.717893897000,-0.192000000000
18.725580949000,-0.189000000000
18.733268001000,-0.187000000000
18.740955053000,-0.182000000000
18.748642105000,-0.179000000000
18.756329157000,-0.177000000000
18.764016209000,-0.177000000000
18.771703261000,-0.172000000000
18.779390313000,-0.169000000000
18.787077365000,-0.167000000000
18.794764417000,-0.164000000000
18.802451469000,-0.160000000000
18.810138521000,-0.155000000000
18.817825573000,-0.152000000000
18.825512625000,-0.150000000000
18.833199677000,-0.145000000000
18.840886729000,-0.140000000000
18.848573781000,-0.137000000000
18.856260833000,-0.132000000000
18.863947903000,-0.128000000000
18.871634676000,-0.123000000000
18.879321449000,-0.120000000000
18.887008222000,-0.118000000000
18.894694995000,-0.113000000000
18.902381768000,-0.110000000000
18.910068541000,-0.105000000000
18.917755314000,-0.103000000000
18.925442087000,-0.100000000000
18.933128860000,-0.098000000000
18.940815633000,-0.096000000000
18.948502406000,-0.091000000000
18.956189179000,-0.091000000000
18.963875952000,-0.091000000000
18.971562725000,-0.088000000000
18.979249498000,-0.076000000000
18.986936271000,-0.054000000000
18.994623044000,-0.036000000000
19.002309817000,-0.036000000000
19.009996590000,-0.046000000000
19.017683363000,-0.044000000000
19.025370136000,-0.056000000000
19.033056909000,-0.086000000000
19.040743682000,-0.098000000000
19.048430455000,-0.091000000000
19.056117228000,-0.086000000000
19.063804001000,-0.086000000000
19.071490774000,-0.081000000000
19.079177547000,-0.078000000000
19.086864320000,-0.076000000000
19.094551093000,-0.076000000000
19.102237866000,-0.083000000000
19.109924639000,-0.113000000000
19.117611412000,-0.169000000000
19.125298185000,-0.142000000000
19.132984958000,0.192000000000
19.140671731000,0.868000000000
19.148358504000,1.666000000000
19.156045277000,1.996000000000
19.163732050000,1.004000000000
19.171418823000,-0.452000000000
19.179105596000,-0.558000000000
19.186792369000,-0.036000000000
19.194479142000,-0.142000000000
19.202165915000,-0.278000000000
19.209852688000,-0.140000000000
19.217539461000,-0.130000000000
19.225226234000,-0.182000000000
19.232913007000,-0.128000000000
19.240599780000,-0.096000000000
19.248286553000,-0.105000000000
19.255973326000,-0.083000000000
19.263660099000,-0.054000000000
19.271346872000,-0.041000000000
19.279033645000,-0.022000000000
19.286720418000,0.002000000000
19.294407191000,0.022000000000
19.302093964000,0.046000000000
19.309780737000,0.073000000000
19.317467510000,0.100000000000
19.325154283000,0.135000000000
19.332841056000,0.169000000000
19.340527829000,0.204000000000
19.348214602000,0.243000000000
19.355901375000,0.280000000000
19.363588148000,0.310000000000
19.371274921000,0.327000000000
19.378961694000,0.337000000000
19.386648467000,0.337000000000
19.394335240000,0.324000000000
19.402022013000,0.305000000000
19.409708786000,0.270000000000
19.417395559000,0.209000000000
19.425082365000,0.118000000000
19.432769486000,0.017000000000
19.440456607000,-0.081000000000
19.448143728000,-0.164000000000
19.455830849000,-0.231000000000
19.463517970000,-0.275000000000
19.471205091000,-0.297000000000
19.478892212000,-0.305000000000
19.486579333000,-0.305000000000
19.494266454000,-0.297000000000
19.501953575000,-0.285000000000
19.509640696000,-0.273000000000
19.517327817000,-0.263000000000
19.525014938000,-0.251000000000
19.532702059000,-0.238000000000
19.540389180000,-0.226000000000
19.548076301000,-0.219000000000
19.555763422000,-0.209000000000
19.563450543000,-0.201000000000
19.571137664000,-0.199000000000
19.578824785000,-0.194000000000
19.586511906000,-0.192000000000
19.594199027000,-0.187000000000
19.601886148000,-0.184000000000
19.609573269000,-0.182000000000
19.617260390000,-0.179000000000
19.624947511000,-0.177000000000
19.632634632000,-0.174000000000
19.640321753000,-0.172000000000
19.648008874000,-0.169000000000
19.655695995000,-0.167000000000
19.663383116000,-0.164000000000
19.671070237000,-0.160000000000
19.678757358000,-0.157000000000
19.686444479000,-0.152000000000
19.694131600000,-0.147000000000
19.701818721000,-0.145000000000
19.709505842000,-0.140000000000
19.717192963000,-0.137000000000
19.724880084000,-0.132000000000
19.732567205000,-0.130000000000
19.740254326000,-0.125000000000
19.747941447000,-0.123000000000
19.755628568000,-0.118000000000
19.763315689000,-0.115000000000
19.771002810000,-0.113000000000
19.778689931000,-0.110000000000
19.786377052000,-0.105000000000
19.794064173000,-0.103000000000
19.801751294000,-0.100000000000
19.809438415000,-0.098000000000
19.817125536000,-0.098000000000
19.824812657000,-0.096000000000
19.832499778000,-0.093000000000
19.840186899000,-0.091000000000
19.847874020000,-0.088000000000
19.855561141000,-0.086000000000
19.863248262000,-0.083000000000
19.870935383000,-0.086000000000
19.878622504000,-0.083000000000
19.886309625000,-0.073000000000
19.893996746000,-0.054000000000
19.901683867000,-0.034000000000
19.909370988000,-0.034000000000
19.917058109000,-0.041000000000
19.924745230000,-0.044000000000
19.932432351000,-0.051000000000
19.940119472000,-0.081000000000
19.947806593000,-0.098000000000
19.955493714000,-0.091000000000
19.963180835000,-0.083000000000
19.970867956000,-0.083000000000
19.978555077000,-0.081000000000
19.986242266000,-0.078000000000
19.993929387000,-0.078000000000
20.001616508000,-0.076000000000
20.009303629000,-0.083000000000
20.016990750000,-0.113000000000
20.024677871000,-0.169000000000
20.032364992000,-0.150000000000
20.040052113000,0.157000000000
20.047739234000,0.807000000000
20.055426355000,1.602000000000
20.063113476000,1.979000000000
20.070800597000,1.073000000000
20.078487718000,-0.398000000000
20.086174839000,-0.585000000000
20.093861960000,-0.061000000000
20.101549081000,-0.135000000000
20.109236202000,-0.283000000000
20.116923323000,-0.152000000000
20.124610444000,-0.135000000000
20.132297565000,-0.184000000000
20.139984686000,-0.140000000000
20.147671807000,-0.103000000000
20.155358928000,-0.110000000000
20.163046049000,-0.091000000000
20.170733170000,-0.061000000000
20.178420291000,-0.049000000000
20.186107412000,-0.029000000000
20.193794533000,-0.004000000000
20.201481654000,0.017000000000
20.209168775000,0.039000000000
20.216855896000,0.064000000000
20.224543017000,0.091000000000
20.232230138000,0.123000000000
20.239917259000,0.157000000000
20.247604380000,0.192000000000
20.255291501000,0.228000000000
20.262978622000,0.260000000000
20.270665743000,0.288000000000
20.278352864000,0.307000000000
20.286039985000,0.315000000000
20.293727106000,0.312000000000
20.301414227000,0.305000000000
20.309101348000,0.285000000000
20.316788469000,0.253000000000
20.324475590000,0.199000000000
20.332162711000,0.120000000000
20.339849832000,0.027000000000
20.347536953000,-0.068000000000
20.355224074000,-0.152000000000
20.362911195000,-0.219000000000
20.370598316000,-0.265000000000
20.378285437000,-0.290000000000
20.385972558000,-0.300000000000
20.393659679000,-0.300000000000
20.401346800000,-0.295000000000
20.409033921000,-0.285000000000
20.416721042000,-0.273000000000
20.424408163000,-0.260000000000
20.432095284000,-0.248000000000
20.439782405000,-0.236000000000
20.447469526000,-0.226000000000
20.455156647000,-0.216000000000
20.462843768000,-0.209000000000
20.470530889000,-0.204000000000
20.478218010000,-0.199000000000
20.485905131000,-0.194000000000
20.493592252000,-0.192000000000
20.501279373000,-0.187000000000
20.508966494000,-0.184000000000
20.516653615000,-0.182000000000
20.524340736000,-0.179000000000
20.532027857000,-0.177000000000
20.539714978000,-0.174000000000
20.547402163000,-0.172000000000
20.555089075000,-0.172000000000
20.562775987000,-0.169000000000
20.570462899000,-0.167000000000
20.578149811000,-0.162000000000
20.585836723000,-0.157000000000
20.593523635000,-0.155000000000
20.601210547000,-0.150000000000
20.608897459000,-0.145000000000
20.616584371000,-0.140000000000
20.624271283000,-0.137000000000
20.631958195000,-0.132000000000
20.639645107000,-0.128000000000
20.647332019000,-0.125000000000
20.655018931000,-0.123000000000
20.662705843000,-0.118000000000
20.670392755000,-0.113000000000
20.678079667000,-0.110000000000
20.685766579000,-0.108000000000
20.693453491000,-0.105000000000
20.701140403000,-0.103000000000
20.708827315000,-0.100000000000
20.716514227000,-0.098000000000
20.724201139000,-0.093000000000
20.731888051000,-0.093000000000
20.739574963000,-0.091000000000
20.747261875000,-0.088000000000
20.754948787000,-0.086000000000
20.762635699000,-0.083000000000
20.770322611000,-0.081000000000
20.778009523000,-0.078000000000
20.785696435000,-0.081000000000
20.793383347000,-0.078000000000
20.801070259000,-0.073000000000
20.808757171000,-0.056000000000
20.816444083000,-0.034000000000
20.824130995000,-0.029000000000
20.831817907000,-0.036000000000
20.839504819000,-0.039000000000
20.847191731000,-0.044000000000
20.854878643000,-0.073000000000
20.862565555000,-0.096000000000
20.870252467000,-0.088000000000
20.877939379000,-0.078000000000
20.885626291000,-0.081000000000
20.893313203000,-0.078000000000
20.901000115000,-0.073000000000
20.908687027000,-0.073000000000
20.916373939000,-0.071000000000
20.924060851000,-0.073000000000
20.931747763000,-0.098000000000
20.939434675000,-0.152000000000
20.947121587000,-0.167000000000
20.954808499000,0.056000000000
20.962495411000,0.630000000000
20.970182323000,1.415000000000
20.977869235000,1.969000000000
20.985556147000,1.388000000000
20.993243059000,-0.118000000000
21.000929971000,-0.657000000000
21.008616883000,-0.145000000000
21.016303795000,-0.071000000000
21.023990707000,-0.270000000000
21.031677619000,-0.177000000000
21.039364531000,-0.115000000000
21.047051443000,-0.174000000000
21.054738355000,-0.147000000000
21.062425267000,-0.100000000000
21.070112179000,-0.103000000000
21.077799091000,-0.091000000000
21.085486003000,-0.059000000000
21.093172915000,-0.044000000000
21.100859827000,-0.029000000000
21.108546803000,-0.004000000000
21.116233715000,0.017000000000
21.123920627000,0.036000000000
21.131607539000,0.061000000000
21.139294451000,0.088000000000
21.146981363000,0.118000000000
21.154668275000,0.150000000000
21.162355187000,0.184000000000
21.170042099000,0.216000000000
21.177729011000,0.251000000000
21.185415923000,0.280000000000
21.193102835000,0.302000000000
21.200789747000,0.312000000000
21.208476659000,0.312000000000
21.216163571000,0.307000000000
21.223850483000,0.292000000000
21.231537395000,0.265000000000
21.239224307000,0.221000000000
21.246911219000,0.150000000000
21.254598131000,0.054000000000
21.262285043000,-0.044000000000
21.269971955000,-0.128000000000
21.277658867000,-0.199000000000
21.285345779000,-0.248000000000
21.293032691000,-0.278000000000
21.300719603000,-0.290000000000
21.308406515000,-0.292000000000
21.316093427000,-0.290000000000
21.323780339000,-0.280000000000
21.331467251000,-0.265000000000
21.339154163000,-0.256000000000
21.346841075000,-0.243000000000
21.354527987000,-0.228000000000
21.362214899000,-0.219000000000
21.369901811000,-0.209000000000
21.377588723000,-0.201000000000
21.385275635000,-0.194000000000
21.392962547000,-0.192000000000
21.400649459000,-0.189000000000
21.408336371000,-0.184000000000
21.416023283000,-0.179000000000
21.423710195000,-0.177000000000
21.431397107000,-0.174000000000
21.439084019000,-0.172000000000
21.446770931000,-0.169000000000
21.454457843000,-0.169000000000
21.462144755000,-0.164000000000
21.469831667000,-0.162000000000
21.477518579000,-0.162000000000
21.485205491000,-0.157000000000
21.492892403000,-0.152000000000
21.500579315000,-0.150000000000
21.508266227000,-0.145000000000
21.515953139000,-0.140000000000
21.523640051000,-0.137000000000
21.531326963000,-0.135000000000
21.539013875000,-0.132000000000
21.546700787000,-0.128000000000
21.554387699000,-0.125000000000
21.562074611000,-0.120000000000
21.569761523000,-0.118000000000
21.577448435000,-0.113000000000
21.585135347000,-0.108000000000
21.592822259000,-0.103000000000
21.600509171000,-0.100000000000
21.608196083000,-0.098000000000
21.615882995000,-0.098000000000
21.623569907000,-0.096000000000
21.631256819000,-0.088000000000
21.638943731000,-0.083000000000
21.646630643000,-0.083000000000
21.654317555000,-0.083000000000
21.662004467000,-0.081000000000
21.669691439000,-0.083000000000
21.677378560000,-0.083000000000
21.685065681000,-0.073000000000
21.692752802000,-0.059000000000
21.700439923000,-0.036000000000
21.708127044000,-0.027000000000
21.715814165000,-0.034000000000
21.723501286000,-0.036000000000
21.731188407000,-0.039000000000
21.738875528000,-0.064000000000
21.746562649000,-0.093000000000
21.754249770000,-0.096000000000
21.761936891000,-0.083000000000
21.769624012000,-0.081000000000
21.777311133000,-0.078000000000
21.784998254000,-0.076000000000
21.792685375000,-0.078000000000
21.800372496000,-0.073000000000
21.808059617000,-0.073000000000
21.815746738000,-0.093000000000
21.823433859000,-0.142000000000
21.831120980000,-0.169000000000
21.838808101000,0.004000000000
21.846495222000,0.546000000000
21.854182343000,1.331000000000
21.861869464000,1.947000000000
21.869556585000,1.511000000000
21.877243706000,0.019000000000
21.884930827000,-0.684000000000
21.892617948000,-0.204000000000
21.900305069000,-0.049000000000
21.907992190000,-0.260000000000
21.915679311000,-0.184000000000
21.923366432000,-0.105000000000
21.931053553000,-0.164000000000
21.938740674000,-0.145000000000
21.946427795000,-0.091000000000
21.954114916000,-0.093000000000
21.961802037000,-0.086000000000
21.969489158000,-0.051000000000
21.977176279000,-0.034000000000
21.984863400000,-0.022000000000
21.992550521000,0.002000000000
22.000237642000,0.024000000000
22.007924763000,0.046000000000
22.015611884000,0.076000000000
22.023299005000,0.103000000000
22.030986126000,0.130000000000
22.038673247000,0.162000000000
22.046360368000,0.201000000000
22.054047489000,0.238000000000
22.061734610000,0.275000000000
22.069421731000,0.310000000000
22.077108852000,0.329000000000
22.084795973000,0.344000000000
22.092483094000,0.352000000000
22.100170215000,0.347000000000
22.107857336000,0.327000000000
22.115544457000,0.297000000000
22.123231578000,0.248000000000
22.130918699000,0.172000000000
22.138605820000,0.073000000000
22.146292941000,-0.032000000000
22.153980062000,-0.125000000000
22.161667183000,-0.201000000000
22.169354304000,-0.253000000000
22.177041425000,-0.285000000000
22.184728546000,-0.297000000000
22.192415667000,-0.300000000000
22.200102788000,-0.295000000000
22.207789909000,-0.285000000000
22.215477030000,-0.273000000000
22.223164151000,-0.258000000000
22.230851336000,-0.246000000000
22.238538457000,-0.236000000000
22.246225578000,-0.224000000000
22.253912699000,-0.211000000000
22.261599820000,-0.206000000000
22.269286941000,-0.201000000000
22.276974062000,-0.192000000000
22.284661183000,-0.182000000000
22.292348304000,-0.179000000000
22.300035425000,-0.179000000000
22.307722546000,-0.177000000000
22.315409667000,-0.172000000000
22.323096788000,-0.164000000000
22.330783909000,-0.162000000000
22.338471030000,-0.167000000000
22.346158151000,-0.162000000000
22.353845272000,-0.160000000000
22.361532393000,-0.160000000000
22.369219514000,-0.150000000000
22.376906635000,-0.140000000000
22.384593756000,-0.140000000000
22.392280877000,-0.137000000000
22.399967998000,-0.130000000000
22.407655119000,-0.135000000000
22.415342240000,-0.135000000000
22.423029361000,-0.120000000000
22.430716482000,-0.113000000000
22.438403603000,-0.115000000000
22.446090724000,-0.115000000000
22.453777845000,-0.108000000000
22.461464966000,-0.100000000000
22.469152087000,-0.098000000000
22.476839208000,-0.098000000000
22.484526329000,-0.098000000000
22.492213450000,-0.091000000000
22.499900571000,-0.086000000000
22.507587692000,-0.083000000000
22.515274813000,-0.078000000000
22.522961934000,-0.078000000000
22.530649055000,-0.081000000000
22.538336176000,-0.078000000000
22.546023297000,-0.071000000000
22.553710418000,-0.051000000000
22.561397539000,-0.029000000000
22.569084660000,-0.027000000000
22.576771781000,-0.034000000000
22.584458902000,-0.034000000000
22.592146023000,-0.041000000000
22.599833144000,-0.073000000000
22.607520265000,-0.093000000000
22.615207386000,-0.086000000000
22.622894507000,-0.078000000000
22.630581628000,-0.081000000000
22.638268749000,-0.073000000000
22.645955870000,-0.068000000000
22.653642991000,-0.064000000000
22.661330112000,-0.064000000000
22.669017233000,-0.078000000000
22.676704354000,-0.105000000000
22.684391475000,-0.155000000000
22.692078596000,-0.145000000000
22.699765717000,0.164000000000
22.707452838000,0.851000000000
22.715139959000,1.664000000000
22.722827080000,1.998000000000
22.730514201000,1.029000000000
22.738201322000,-0.435000000000
22.745888443000,-0.571000000000
22.753575564000,-0.039000000000
22.761262685000,-0.130000000000
22.768949806000,-0.258000000000
22.776636927000,-0.115000000000
22.784324048000,-0.108000000000
22.792011233000,-0.160000000000
22.799698354000,-0.105000000000
22.807385475000,-0.073000000000
22.815072596000,-0.078000000000
22.822759717000,-0.056000000000
22.830446838000,-0.029000000000
22.838133959000,-0.014000000000
22.845821080000,0.002000000000
22.853508201000,0.027000000000
22.861195322000,0.051000000000
22.868882443000,0.076000000000
22.876569564000,0.105000000000
22.884256685000,0.132000000000
22.891943806000,0.167000000000
22.899630927000,0.204000000000
22.907318048000,0.243000000000
22.915005169000,0.283000000000
22.922692290000,0.322000000000
22.930379411000,0.352000000000
22.938066532000,0.371000000000
22.945753653000,0.381000000000
22.953440774000,0.379000000000
22.961127895000,0.366000000000
22.968815016000,0.342000000000
22.976502137000,0.300000000000
22.984189258000,0.231000000000
22.991876379000,0.132000000000
22.999563500000,0.022000000000
23.007250621000,-0.083000000000
23.014937742000,-0.172000000000
23.022624863000,-0.241000000000
23.030311984000,-0.285000000000
23.037999105000,-0.307000000000
23.045686226000,-0.315000000000
23.053373347000,-0.312000000000
23.061060468000,-0.302000000000
23.068747589000,-0.292000000000
23.076434710000,-0.278000000000
23.084121831000,-0.265000000000
23.091808952000,-0.253000000000
23.099496073000,-0.241000000000
23.107183194000,-0.228000000000
23.114870315000,-0.216000000000
23.122557436000,-0.209000000000
23.130244557000,-0.204000000000
23.137931678000,-0.196000000000
23.145618799000,-0.189000000000
23.153305920000,-0.187000000000
23.160993041000,-0.184000000000
23.168680162000,-0.179000000000
23.176367283000,-0.177000000000
23.184054404000,-0.172000000000
23.191741525000,-0.169000000000
23.199428646000,-0.167000000000
23.207115767000,-0.167000000000
23.214802888000,-0.164000000000
23.222490009000,-0.160000000000
23.230177130000,-0.155000000000
23.237864251000,-0.152000000000
23.245551372000,-0.150000000000
23.253238493000,-0.145000000000
23.260925614000,-0.140000000000
23.268612735000,-0.137000000000
23.276299856000,-0.135000000000
23.283986977000,-0.128000000000
23.291674098000,-0.123000000000
23.299361219000,-0.120000000000
23.307048340000,-0.118000000000
23.314735461000,-0.113000000000
23.322422582000,-0.108000000000
23.330109703000,-0.105000000000
23.337796824000,-0.103000000000
23.345483945000,-0.098000000000
23.353171134000,-0.096000000000
23.360857977000,-0.093000000000
23.368544820000,-0.093000000000
23.376231663000,-0.091000000000
23.383918506000,-0.083000000000
23.391605349000,-0.064000000000
23.399292192000,-0.041000000000
23.406979035000,-0.034000000000
23.414665878000,-0.041000000000
23.422352721000,-0.044000000000
23.430039564000,-0.046000000000
23.437726407000,-0.068000000000
23.445413250000,-0.096000000000
23.453100093000,-0.096000000000
23.460786936000,-0.088000000000
23.468473779000,-0.088000000000
23.476160622000,-0.083000000000
23.483847465000,-0.081000000000
23.491534308000,-0.081000000000
23.499221151000,-0.078000000000
23.506907994000,-0.078000000000
23.514594837000,-0.096000000000
23.522281680000,-0.145000000000
23.529968523000,-0.182000000000
23.537655366000,-0.032000000000
23.545342209000,0.480000000000
23.553029052000,1.250000000000
23.560715895000,1.925000000000
23.568402738000,1.649000000000
23.576089581000,0.187000000000
23.583776424000,-0.694000000000
23.591463267000,-0.260000000000
23.599150110000,-0.024000000000
23.606836953000,-0.256000000000
23.614523796000,-0.216000000000
23.622210639000,-0.113000000000
23.629897482000,-0.169000000000
23.637584325000,-0.164000000000
23.645271168000,-0.108000000000
23.652958011000,-0.103000000000
23.660644854000,-0.098000000000
23.668331697000,-0.068000000000
23.676018540000,-0.051000000000
23.683705383000,-0.039000000000
23.691392226000,-0.014000000000
23.699079069000,0.009000000000
23.706765912000,0.029000000000
23.714452755000,0.054000000000
23.722139598000,0.086000000000
23.729826441000,0.115000000000
23.737513284000,0.150000000000
23.745200127000,0.184000000000
23.752886970000,0.224000000000
23.760573813000,0.260000000000
23.768260656000,0.295000000000
23.775947499000,0.317000000000
23.783634342000,0.332000000000
23.791321185000,0.337000000000
23.799008028000,0.329000000000
23.806694871000,0.312000000000
23.814381714000,0.283000000000
23.822068557000,0.231000000000
23.829755400000,0.150000000000
23.837442243000,0.049000000000
23.845129086000,-0.054000000000
23.852815929000,-0.145000000000
23.860502772000,-0.221000000000
23.868189615000,-0.273000000000
23.875876458000,-0.302000000000
23.883563301000,-0.317000000000
23.891250144000,-0.317000000000
23.898936987000,-0.312000000000
23.906623830000,-0.302000000000
23.914310687000,-0.290000000000
23.921997669000,-0.275000000000
23.929684651000,-0.263000000000
23.937371633000,-0.251000000000
23.945058615000,-0.238000000000
23.952745597000,-0.228000000000
23.960432579000,-0.219000000000
23.968119561000,-0.211000000000
23.975806543000,-0.206000000000
23.983493525000,-0.201000000000
23.991180507000,-0.194000000000
23.998867489000,-0.189000000000
24.006554471000,-0.187000000000
24.014241453000,-0.184000000000
24.021928435000,-0.182000000000
24.029615417000,-0.179000000000
24.037302399000,-0.174000000000
24.044989381000,-0.172000000000
24.052676363000,-0.169000000000
24.060363345000,-0.167000000000
24.068050327000,-0.164000000000
24.075737309000,-0.160000000000
24.083424291000,-0.155000000000
24.091111273000,-0.152000000000
24.098798255000,-0.147000000000
24.106485237000,-0.142000000000
24.114172219000,-0.140000000000
24.121859201000,-0.135000000000
24.129546183000,-0.130000000000
24.137233165000,-0.125000000000
24.144920147000,-0.123000000000
24.152607129000,-0.118000000000
24.160294111000,-0.113000000000
24.167981093000,-0.110000000000
24.175668075000,-0.108000000000
24.183355057000,-0.103000000000
24.191042039000,-0.103000000000
24.198729021000,-0.100000000000
24.206416003000,-0.096000000000
24.214102985000,-0.093000000000
24.221789967000,-0.091000000000
24.229476949000,-0.088000000000
24.237163931000,-0.086000000000
24.244850913000,-0.086000000000
24.252537895000,-0.081000000000
24.260224877000,-0.071000000000
24.267911859000,-0.049000000000
24.275598841000,-0.032000000000
24.283285823000,-0.034000000000
24.290972805000,-0.044000000000
24.298659787000,-0.044000000000
24.306346769000,-0.059000000000
24.314033751000,-0.088000000000
24.321720733000,-0.100000000000
24.329407715000,-0.088000000000
24.337094697000,-0.086000000000
24.344781679000,-0.086000000000
24.352468661000,-0.081000000000
24.360155643000,-0.078000000000
24.367842625000,-0.078000000000
24.375529607000,-0.076000000000
24.383216589000,-0.083000000000
24.390903571000,-0.115000000000
24.398590553000,-0.167000000000
24.406277535000,-0.120000000000
24.413964517000,0.233000000000
24.421651499000,0.905000000000
24.429338481000,1.673000000000
24.437025463000,1.910000000000
24.444712445000,0.839000000000
24.452399427000,-0.516000000000
24.460086409000,-0.504000000000
24.467773391000,-0.027000000000
24.475460410000,-0.167000000000
24.483147531000,-0.265000000000
24.490834652000,-0.130000000000
24.498521773000,-0.137000000000
24.506208894000,-0.179000000000
24.513896015000,-0.125000000000
24.521583136000,-0.098000000000
24.529270257000,-0.105000000000
24.536957378000,-0.081000000000
24.544644499000,-0.056000000000
24.552331620000,-0.044000000000
24.560018741000,-0.024000000000
24.567705862000,0.000000000000
24.575392983000,0.019000000000
24.583080104000,0.041000000000
24.590767225000,0.068000000000
24.598454346000,0.096000000000
24.606141467000,0.128000000000
24.613828588000,0.162000000000
24.621515709000,0.196000000000
24.629202830000,0.233000000000
24.636889951000,0.265000000000
24.644577072000,0.292000000000
24.652264193000,0.310000000000
24.659951314000,0.317000000000
24.667638435000,0.315000000000
24.675325556000,0.305000000000
24.683012677000,0.285000000000
24.690699798000,0.251000000000
24.698386919000,0.189000000000
24.706074040000,0.103000000000
24.713761161000,0.004000000000
24.721448282000,-0.088000000000
24.729135403000,-0.167000000000
24.736822524000,-0.228000000000
24.744509645000,-0.273000000000
24.752196766000,-0.292000000000
24.759883887000,-0.300000000000
24.767571008000,-0.297000000000
24.775258129000,-0.290000000000
24.782945250000,-0.278000000000
24.790632371000,-0.268000000000
24.798319492000,-0.258000000000
24.806006613000,-0.246000000000
24.813693734000,-0.233000000000
24.821380855000,-0.221000000000
24.829067976000,-0.211000000000
24.836755097000,-0.204000000000
24.844442218000,-0.199000000000
24.852129339000,-0.194000000000
24.859816460000,-0.189000000000
24.867503581000,-0.187000000000
24.875190702000,-0.184000000000
24.882877823000,-0.182000000000
24.890564944000,-0.179000000000
24.898252065000,-0.177000000000
24.905939186000,-0.174000000000
24.913626307000,-0.172000000000
24.921313428000,-0.169000000000
24.929000549000,-0.167000000000
24.936687670000,-0.164000000000
24.944374791000,-0.160000000000
24.952061912000,-0.157000000000
24.959749033000,-0.152000000000
24.967436154000,-0.150000000000
24.975123275000,-0.142000000000
24.982810396000,-0.140000000000
24.990497517000,-0.137000000000
24.998184638000,-0.132000000000
25.005871759000,-0.128000000000
25.013558880000,-0.125000000000
25.021246001000,-0.123000000000
25.028933122000,-0.120000000000
25.036620307000,-0.115000000000
25.044307359000,-0.113000000000
25.051994411000,-0.108000000000
25.059681463000,-0.105000000000
25.067368515000,-0.103000000000
25.075055567000,-0.100000000000
25.082742619000,-0.100000000000
25.090429671000,-0.098000000000
25.098116723000,-0.093000000000
25.105803775000,-0.093000000000
25.113490827000,-0.093000000000
25.121177879000,-0.088000000000
25.128864931000,-0.086000000000
25.136551983000,-0.088000000000
25.144239035000,-0.086000000000
25.151926087000,-0.078000000000
25.159613139000,-0.061000000000
25.167300191000,-0.039000000000
25.174987243000,-0.034000000000
25.182674295000,-0.044000000000
25.190361347000,-0.044000000000
25.198048399000,-0.051000000000
25.205735451000,-0.083000000000
25.213422503000,-0.103000000000
25.221109555000,-0.098000000000
25.228796607000,-0.088000000000
25.236483659000,-0.091000000000
25.244170711000,-0.088000000000
25.251857763000,-0.086000000000
25.259544815000,-0.083000000000
25.267231867000,-0.083000000000
25.274918919000,-0.086000000000
25.282605971000,-0.108000000000
25.290293023000,-0.162000000000
25.297980075000,-0.174000000000
25.305667127000,0.036000000000
25.313354179000,0.600000000000
25.321041231000,1.381000000000
25.328728283000,1.930000000000
25.336415335000,1.351000000000
25.344102387000,-0.135000000000
25.351789439000,-0.664000000000
25.359476491000,-0.160000000000
25.367163543000,-0.086000000000
25.374850595000,-0.283000000000
25.382537647000,-0.187000000000
25.390224699000,-0.128000000000
25.397911751000,-0.184000000000
25.405598803000,-0.160000000000
25.413285855000,-0.110000000000
25.420972907000,-0.113000000000
25.428659959000,-0.100000000000
25.436347011000,-0.071000000000
25.444034063000,-0.056000000000
25.451721115000,-0.041000000000
25.459408167000,-0.017000000000
25.467095219000,0.004000000000
25.474782271000,0.024000000000
25.482469323000,0.049000000000
25.490156375000,0.078000000000
25.497843427000,0.105000000000
25.505530479000,0.137000000000
25.513217531000,0.172000000000
25.520904583000,0.206000000000
25.528591635000,0.241000000000
25.536278687000,0.268000000000
25.543965739000,0.290000000000
25.551652791000,0.300000000000
25.559339843000,0.302000000000
25.567026895000,0.297000000000
25.574713947000,0.280000000000
25.582400999000,0.253000000000
25.590088051000,0.206000000000
25.597775121000,0.135000000000
25.605461894000,0.044000000000
25.613148667000,-0.049000000000
25.620835440000,-0.132000000000
25.628522213000,-0.201000000000
25.636208986000,-0.251000000000
25.643895759000,-0.280000000000
25.651582532000,-0.292000000000
25.659269305000,-0.295000000000
25.666956078000,-0.290000000000
25.674642851000,-0.278000000000
25.682329624000,-0.268000000000
25.690016397000,-0.256000000000
25.697703170000,-0.243000000000
25.705389943000,-0.231000000000
25.713076716000,-0.221000000000
25.720763489000,-0.211000000000
25.728450262000,-0.204000000000
25.736137035000,-0.199000000000
25.743823808000,-0.194000000000
25.751510581000,-0.189000000000
25.759197354000,-0.187000000000
25.766884127000,-0.184000000000
25.774570900000,-0.179000000000
25.782257673000,-0.177000000000
25.789944446000,-0.174000000000
25.797631219000,-0.172000000000
25.805317992000,-0.169000000000
25.813004765000,-0.167000000000
25.820691538000,-0.164000000000
25.828378311000,-0.160000000000
25.836065084000,-0.157000000000
25.843751857000,-0.155000000000
25.851438630000,-0.150000000000
25.859125403000,-0.145000000000
25.866812176000,-0.140000000000
25.874498949000,-0.135000000000
25.882185722000,-0.130000000000
25.889872495000,-0.128000000000
25.897559268000,-0.123000000000
25.905246041000,-0.120000000000
25.912932814000,-0.115000000000
25.920619587000,-0.110000000000
25.928306360000,-0.108000000000
25.935993133000,-0.105000000000
25.943679906000,-0.100000000000
25.951366679000,-0.098000000000
25.959053452000,-0.096000000000
25.966740225000,-0.091000000000
25.974426998000,-0.088000000000
25.982113771000,-0.086000000000
25.989800544000,-0.083000000000
25.997487317000,-0.081000000000
26.005174090000,-0.081000000000
26.012860863000,-0.078000000000
26.020547636000,-0.076000000000
26.028234409000,-0.073000000000
26.035921182000,-0.073000000000
26.043607955000,-0.073000000000
26.051294728000,-0.064000000000
26.058981501000,-0.044000000000
26.066668274000,-0.024000000000
26.074355047000,-0.022000000000
26.082041820000,-0.032000000000
26.089728593000,-0.032000000000
26.097415366000,-0.039000000000
26.105102139000,-0.068000000000
26.112788912000,-0.088000000000
26.120475685000,-0.083000000000
26.128162458000,-0.073000000000
26.135849231000,-0.073000000000
26.143536004000,-0.071000000000
26.151222777000,-0.068000000000
26.158909583000,-0.066000000000
26.166596704000,-0.064000000000
26.174283825000,-0.071000000000
26.181970946000,-0.100000000000
26.189658067000,-0.155000000000
26.197345188000,-0.147000000000
26.205032309000,0.123000000000
26.212719430000,0.743000000000
26.220406551000,1.531000000000
26.228093672000,1.952000000000
26.235780793000,1.139000000000
26.243467914000,-0.322000000000
26.251155035000,-0.590000000000
26.258842156000,-0.076000000000
26.266529277000,-0.110000000000
26.274216398000,-0.265000000000
26.281903519000,-0.145000000000
26.289590640000,-0.118000000000
26.297277761000,-0.169000000000
26.304964882000,-0.125000000000
26.312652003000,-0.088000000000
26.320339124000,-0.096000000000
26.328026245000,-0.076000000000
26.335713366000,-0.046000000000
26.343400487000,-0.034000000000
26.351087608000,-0.014000000000
26.358774729000,0.007000000000
26.366461850000,0.027000000000
26.374148971000,0.054000000000
26.381836092000,0.081000000000
26.389523213000,0.105000000000
26.397210334000,0.135000000000
26.404897455000,0.167000000000
26.412584576000,0.201000000000
26.420271697000,0.236000000000
26.427958818000,0.270000000000
26.435645939000,0.300000000000
26.443333060000,0.317000000000
26.451020181000,0.324000000000
26.458707302000,0.327000000000
26.466394423000,0.322000000000
26.474081544000,0.310000000000
26.481768665000,0.278000000000
26.489455786000,0.224000000000
26.497142907000,0.145000000000
26.504830028000,0.051000000000
26.512517149000,-0.044000000000
26.520204270000,-0.130000000000
26.527891391000,-0.196000000000
26.535578512000,-0.243000000000
26.543265633000,-0.270000000000
26.550952754000,-0.285000000000
26.558639875000,-0.288000000000
26.566326996000,-0.283000000000
26.574014117000,-0.270000000000
26.581701238000,-0.256000000000
26.589388359000,-0.243000000000
26.597075480000,-0.231000000000
26.604762601000,-0.221000000000
26.612449722000,-0.211000000000
26.620136843000,-0.201000000000
26.627823964000,-0.194000000000
26.635511085000,-0.187000000000
26.643198206000,-0.184000000000
26.650885327000,-0.182000000000
26.658572448000,-0.179000000000
26.666259569000,-0.174000000000
26.673946690000,-0.172000000000
26.681633811000,-0.172000000000
26.689320932000,-0.169000000000
26.697008053000,-0.164000000000
26.704695174000,-0.162000000000
26.712382295000,-0.164000000000
26.720069484000,-0.160000000000
26.727756605000,-0.155000000000
26.735443726000,-0.155000000000
26.743130847000,-0.152000000000
26.750817968000,-0.145000000000
26.758505089000,-0.142000000000
26.766192210000,-0.137000000000
26.773879331000,-0.135000000000
26.781566452000,-0.135000000000
26.789253573000,-0.132000000000
26.796940694000,-0.123000000000
26.804627815000,-0.118000000000
26.812314936000,-0.115000000000
26.820002057000,-0.110000000000
26.827689178000,-0.105000000000
26.835376299000,-0.100000000000
26.843063420000,-0.103000000000
26.850750541000,-0.103000000000
26.858437662000,-0.096000000000
26.866124783000,-0.088000000000
26.873811904000,-0.086000000000
26.881499025000,-0.088000000000
26.889186146000,-0.083000000000
26.896873267000,-0.081000000000
26.904560388000,-0.078000000000
26.912247509000,-0.076000000000
26.919934630000,-0.076000000000
26.927621751000,-0.076000000000
26.935308872000,-0.071000000000
26.942995993000,-0.056000000000
26.950683114000,-0.036000000000
26.958370235000,-0.024000000000
26.966057356000,-0.032000000000
26.973744477000,-0.034000000000
26.981431598000,-0.034000000000
26.989118719000,-0.064000000000
26.996805840000,-0.093000000000
27.004492961000,-0.088000000000
27.012180082000,-0.073000000000
27.019867203000,-0.073000000000
27.027554324000,-0.076000000000
27.035241445000,-0.076000000000
27.042928566000,-0.071000000000
27.050615687000,-0.066000000000
27.058302808000,-0.073000000000
27.065989929000,-0.096000000000
27.073677050000,-0.147000000000
27.081364171000,-0.157000000000
27.089051292000,0.093000000000
27.096738413000,0.716000000000
27.104425534000,1.518000000000
27.112112655000,1.984000000000
27.119799776000,1.230000000000
27.127486897000,-0.275000000000
27.135174018000,-0.630000000000
27.142861139000,-0.093000000000
27.150548260000,-0.098000000000
27.158235381000,-0.265000000000
27.165922502000,-0.140000000000
27.173609623000,-0.108000000000
27.181296744000,-0.167000000000
27.188983865000,-0.128000000000
27.196670986000,-0.083000000000
27.204358107000,-0.083000000000
27.212045228000,-0.068000000000
27.219732349000,-0.049000000000
27.227419470000,-0.034000000000
27.235106591000,-0.009000000000
27.242793712000,0.014000000000
27.250480833000,0.034000000000
27.258167954000,0.056000000000
27.265855075000,0.086000000000
27.273542196000,0.115000000000
27.281229381000,0.140000000000
27.288916293000,0.172000000000
27.296603205000,0.214000000000
27.304290117000,0.256000000000
27.311977029000,0.290000000000
27.319663941000,0.320000000000
27.327350853000,0.342000000000
27.335037765000,0.354000000000
27.342724677000,0.356000000000
27.350411589000,0.349000000000
27.358098501000,0.329000000000
27.365785413000,0.297000000000
27.373472325000,0.241000000000
27.381159237000,0.157000000000
27.388846149000,0.054000000000
27.396533061000,-0.049000000000
27.404219973000,-0.145000000000
27.411906885000,-0.221000000000
27.419593797000,-0.268000000000
27.427280709000,-0.295000000000
27.434967621000,-0.310000000000
27.442654533000,-0.305000000000
27.450341445000,-0.297000000000
27.458028357000,-0.290000000000
27.465715269000,-0.280000000000
27.473402181000,-0.265000000000
27.481089093000,-0.251000000000
27.488776005000,-0.238000000000
27.496462917000,-0.228000000000
27.504149829000,-0.219000000000
27.511836741000,-0.214000000000
27.519523653000,-0.209000000000
27.527210565000,-0.199000000000
27.534897477000,-0.189000000000
27.542584389000,-0.189000000000
27.550271301000,-0.189000000000
27.557958213000,-0.184000000000
27.565645125000,-0.182000000000
27.573332037000,-0.179000000000
27.581018949000,-0.177000000000
27.588705861000,-0.174000000000
27.596392773000,-0.172000000000
27.604079685000,-0.169000000000
27.611766597000,-0.167000000000
27.619453509000,-0.162000000000
27.627140421000,-0.160000000000
27.634827333000,-0.155000000000
27.642514245000,-0.150000000000
27.650201157000,-0.147000000000
27.657888069000,-0.142000000000
27.665574981000,-0.137000000000
27.673261893000,-0.135000000000
27.680948805000,-0.132000000000
27.688635717000,-0.128000000000
27.696322629000,-0.125000000000
27.704009541000,-0.123000000000
27.711696453000,-0.118000000000
27.719383365000,-0.113000000000
27.727070277000,-0.110000000000
27.734757189000,-0.110000000000
27.742444101000,-0.105000000000
27.750131013000,-0.103000000000
27.757817925000,-0.100000000000
27.765504837000,-0.100000000000
27.773191749000,-0.098000000000
27.780878661000,-0.091000000000
27.788565573000,-0.071000000000
27.796252485000,-0.049000000000
27.803939397000,-0.041000000000
27.811626309000,-0.046000000000
27.819313221000,-0.051000000000
27.827000133000,-0.061000000000
27.834687045000,-0.088000000000
27.842374021000,-0.108000000000
27.850061212000,-0.100000000000
27.857748403000,-0.093000000000
27.865435594000,-0.093000000000
27.873122785000,-0.091000000000
27.880809976000,-0.088000000000
27.888497167000,-0.086000000000
27.896184358000,-0.086000000000
27.903871549000,-0.088000000000
27.911558740000,-0.113000000000
27.919245931000,-0.167000000000
27.926933122000,-0.174000000000
27.934620313000,0.081000000000
27.942307504000,0.708000000000
27.949994695000,1.506000000000
27.957681886000,1.971000000000
27.965369077000,1.238000000000
27.973056268000,-0.270000000000
27.980743459000,-0.659000000000
27.988430650000,-0.125000000000
27.996117841000,-0.110000000000
28.003805032000,-0.280000000000
28.011492223000,-0.162000000000
28.019179414000,-0.123000000000
28.026866605000,-0.182000000000
28.034553796000,-0.142000000000
28.042240987000,-0.098000000000
28.049928178000,-0.105000000000
28.057615369000,-0.088000000000
28.065302560000,-0.059000000000
28.072989751000,-0.044000000000
28.080676942000,-0.029000000000
28.088364133000,-0.004000000000
28.096051324000,0.017000000000
28.103738515000,0.039000000000
28.111425706000,0.066000000000
28.119112897000,0.093000000000
28.126800088000,0.125000000000
28.134487279000,0.162000000000
28.142174470000,0.196000000000
28.149861661000,0.236000000000
28.157548852000,0.273000000000
28.165236043000,0.305000000000
28.172923234000,0.327000000000
28.180610425000,0.334000000000
28.188297616000,0.334000000000
28.195984807000,0.324000000000
28.203671998000,0.307000000000
28.211359189000,0.270000000000
28.219046380000,0.211000000000
28.226733571000,0.125000000000
28.234420762000,0.019000000000
28.242107953000,-0.081000000000
28.249795144000,-0.167000000000
28.257482335000,-0.238000000000
28.265169526000,-0.285000000000
28.272856717000,-0.310000000000
28.280543908000,-0.320000000000
28.288231099000,-0.322000000000
28.295918290000,-0.312000000000
28.303605481000,-0.302000000000
28.311292672000,-0.290000000000
28.318979863000,-0.278000000000
28.326667054000,-0.263000000000
28.334354245000,-0.251000000000
28.342041436000,-0.241000000000
28.349728627000,-0.228000000000
28.357415818000,-0.221000000000
28.365103009000,-0.214000000000
28.372790200000,-0.206000000000
28.380477391000,-0.201000000000
28.388164582000,-0.199000000000
28.395851773000,-0.194000000000
28.403539005000,-0.189000000000
28.411225848000,-0.187000000000
28.418912691000,-0.184000000000
28.426599534000,-0.182000000000
28.434286377000,-0.179000000000
28.441973220000,-0.179000000000
28.449660063000,-0.177000000000
28.457346906000,-0.172000000000
28.465033749000,-0.169000000000
28.472720592000,-0.167000000000
28.480407435000,-0.162000000000
28.488094278000,-0.157000000000
28.495781121000,-0.155000000000
28.503467964000,-0.150000000000
28.511154807000,-0.145000000000
28.518841650000,-0.140000000000
28.526528493000,-0.135000000000
28.534215336000,-0.132000000000
28.541902179000,-0.130000000000
28.549589022000,-0.125000000000
28.557275865000,-0.120000000000
28.564962708000,-0.118000000000
28.572649551000,-0.115000000000
28.580336394000,-0.113000000000
28.588023237000,-0.110000000000
28.595710080000,-0.108000000000
28.603396923000,-0.105000000000
28.611083766000,-0.103000000000
28.618770609000,-0.100000000000
28.626457452000,-0.096000000000
28.634144295000,-0.093000000000
28.641831138000,-0.093000000000
28.649517981000,-0.093000000000
28.657204824000,-0.088000000000
28.664891667000,-0.073000000000
28.672578510000,-0.051000000000
28.680265353000,-0.041000000000
28.687952196000,-0.046000000000
28.695639039000,-0.051000000000
28.703325882000,-0.054000000000
28.711012725000,-0.076000000000
28.718699568000,-0.103000000000
28.726386411000,-0.100000000000
28.734073254000,-0.093000000000
28.741760097000,-0.093000000000
28.749446940000,-0.091000000000
28.757133783000,-0.086000000000
28.764820626000,-0.086000000000
28.772507469000,-0.083000000000
28.780194312000,-0.088000000000
28.787881155000,-0.108000000000
28.795567998000,-0.157000000000
28.803254841000,-0.174000000000
28.810941684000,0.027000000000
28.818628527000,0.593000000000
28.826315370000,1.383000000000
28.834002213000,1.969000000000
28.841689056000,1.454000000000
28.849375899000,-0.061000000000
28.857062742000,-0.679000000000
28.864749585000,-0.172000000000
28.872436428000,-0.064000000000
28.880123271000,-0.278000000000
28.887810114000,-0.194000000000
28.895496957000,-0.123000000000
28.903183800000,-0.182000000000
28.910870643000,-0.160000000000
28.918557486000,-0.108000000000
28.926244329000,-0.110000000000
28.933931172000,-0.098000000000
28.941618015000,-0.068000000000
28.949304858000,-0.054000000000
28.956991701000,-0.039000000000
28.964678554000,-0.012000000000
28.972365675000,0.009000000000
28.980052796000,0.029000000000
28.987739917000,0.056000000000
28.995427038000,0.083000000000
29.003114159000,0.113000000000
29.010801280000,0.147000000000
29.018488401000,0.182000000000
29.026175522000,0.219000000000
29.033862643000,0.253000000000
29.041549764000,0.283000000000
29.049236885000,0.305000000000
29.056924006000,0.317000000000
29.064611127000,0.320000000000
29.072298248000,0.315000000000
29.079985369000,0.297000000000
29.087672490000,0.270000000000
29.095359611000,0.224000000000
29.103046732000,0.147000000000
29.110733853000,0.051000000000
29.118420974000,-0.046000000000
29.126108095000,-0.137000000000
29.133795216000,-0.211000000000
29.141482337000,-0.263000000000
29.149169458000,-0.292000000000
29.156856579000,-0.307000000000
29.164543700000,-0.312000000000
29.172230821000,-0.305000000000
29.179917942000,-0.295000000000
29.187605063000,-0.283000000000
29.195292184000,-0.270000000000
29.202979305000,-0.258000000000
29.210666426000,-0.248000000000
29.218353547000,-0.236000000000
29.226040668000,-0.226000000000
29.233727789000,-0.219000000000
29.241414910000,-0.209000000000
29.249102031000,-0.204000000000
29.256789152000,-0.201000000000
29.264476273000,-0.199000000000
29.272163394000,-0.194000000000
29.279850515000,-0.192000000000
29.287537636000,-0.189000000000
29.295224757000,-0.184000000000
29.302911878000,-0.182000000000
29.310598999000,-0.179000000000
29.318286120000,-0.177000000000
29.325973241000,-0.174000000000
