time,LSB
0.000000000000,-0.086000000000
0.007687609000,-0.086000000000
0.015375218000,-0.091000000000
0.023062827000,-0.096000000000
0.030750436000,-0.096000000000
0.038438045000,-0.094000000000
0.046125654000,-0.086000000000
0.053813263000,-0.086000000000
0.061500872000,-0.091000000000
0.069188481000,-0.096000000000
0.076876090000,-0.098000000000
0.084563699000,-0.091000000000
0.092251308000,-0.084000000000
0.099938917000,-0.084000000000
0.107626526000,-0.086000000000
0.115314135000,-0.086000000000
0.123001744000,-0.089000000000
0.130689353000,-0.094000000000
0.138376962000,-0.096000000000
0.146064571000,-0.091000000000
0.153752180000,-0.071000000000
0.161439789000,-0.047000000000
0.169127398000,-0.042000000000
0.176815007000,-0.051000000000
0.184502616000,-0.047000000000
0.192190225000,-0.051000000000
0.199877834000,-0.064000000000
0.207565443000,-0.066000000000
0.215253052000,-0.064000000000
0.222940661000,-0.064000000000
0.230628270000,-0.059000000000
0.238315879000,-0.061000000000
0.246003488000,-0.074000000000
0.253691097000,-0.074000000000
0.261378706000,-0.071000000000
0.269066315000,-0.012000000000
0.276753924000,0.274000000000
0.284441574000,0.675000000000
0.292129183000,0.628000000000
0.299816792000,0.032000000000
0.307504401000,-0.425000000000
0.315192010000,-0.378000000000
0.322879619000,-0.225000000000
0.330567228000,-0.197000000000
0.338254837000,-0.126000000000
0.345942446000,-0.042000000000
0.353630055000,-0.044000000000
0.361317664000,-0.059000000000
0.369005273000,-0.034000000000
0.376692882000,-0.027000000000
0.384380491000,-0.024000000000
0.392068100000,-0.004000000000
0.399755709000,-0.017000000000
0.407443318000,-0.042000000000
0.415130927000,-0.017000000000
0.422818536000,0.009000000000
0.430506145000,0.004000000000
0.438193754000,0.002000000000
0.445881363000,0.017000000000
0.453568972000,0.024000000000
0.461256581000,0.027000000000
0.468944190000,0.032000000000
0.476631799000,0.039000000000
0.484319408000,0.051000000000
0.492007017000,0.064000000000
0.499694626000,0.066000000000
0.507382235000,0.066000000000
0.515069844000,0.079000000000
0.522757453000,0.091000000000
0.530445062000,0.086000000000
0.538132671000,0.079000000000
0.545820280000,0.079000000000
0.553507889000,0.079000000000
0.561195498000,0.074000000000
0.568883107000,0.061000000000
0.576570716000,0.034000000000
0.584258325000,-0.002000000000
0.591945934000,-0.034000000000
0.599633543000,-0.051000000000
0.607321152000,-0.071000000000
0.615008761000,-0.094000000000
0.622696370000,-0.106000000000
0.630383979000,-0.108000000000
0.638071588000,-0.111000000000
0.645759197000,-0.118000000000
0.653446806000,-0.116000000000
0.661134415000,-0.103000000000
0.668822024000,-0.096000000000
0.676509633000,-0.091000000000
0.684197242000,-0.089000000000
0.691884851000,-0.089000000000
0.699572460000,-0.081000000000
0.707260069000,-0.074000000000
0.714947678000,-0.076000000000
0.722635287000,-0.079000000000
0.730322896000,-0.079000000000
0.738010505000,-0.079000000000
0.745698114000,-0.081000000000
0.753385723000,-0.084000000000
0.761073332000,-0.084000000000
0.768760941000,-0.081000000000
0.776448550000,-0.084000000000
0.784136159000,-0.081000000000
0.791823768000,-0.076000000000
0.799511377000,-0.081000000000
0.807198986000,-0.089000000000
0.814886595000,-0.084000000000
0.822574204000,-0.076000000000
0.830261813000,-0.076000000000
0.837949422000,-0.071000000000
0.845637080000,-0.074000000000
0.853324968000,-0.086000000000
0.861012856000,-0.076000000000
0.868700744000,-0.059000000000
0.876388632000,-0.064000000000
0.884076520000,-0.079000000000
0.891764408000,-0.089000000000
0.899452296000,-0.086000000000
0.907140184000,-0.076000000000
0.914828072000,-0.064000000000
0.922515960000,-0.044000000000
0.930203848000,-0.029000000000
0.937891736000,-0.042000000000
0.945579624000,-0.049000000000
0.953267512000,-0.051000000000
0.960955400000,-0.066000000000
0.968643288000,-0.069000000000
0.976331176000,-0.059000000000
0.984019064000,-0.056000000000
0.991706952000,-0.059000000000
0.999394840000,-0.061000000000
1.007082728000,-0.061000000000
1.014770616000,-0.059000000000
1.022458504000,-0.074000000000
1.030146392000,0.004000000000
1.037834280000,0.338000000000
1.045522168000,0.685000000000
1.053210056000,0.507000000000
1.060897944000,-0.098000000000
1.068585832000,-0.437000000000
1.076273720000,-0.336000000000
1.083961608000,-0.215000000000
1.091649496000,-0.183000000000
1.099337384000,-0.101000000000
1.107025272000,-0.044000000000
1.114713160000,-0.059000000000
1.122401048000,-0.054000000000
1.130088936000,-0.029000000000
1.137776824000,-0.029000000000
1.145464712000,-0.037000000000
1.153152600000,-0.027000000000
1.160840488000,-0.017000000000
1.168528376000,-0.012000000000
1.176216264000,-0.007000000000
1.183904152000,-0.004000000000
1.191592040000,-0.009000000000
1.199279928000,-0.007000000000
1.206967816000,0.009000000000
1.214655704000,0.019000000000
1.222343592000,0.017000000000
1.230031480000,0.029000000000
1.237719368000,0.042000000000
1.245407256000,0.042000000000
1.253095144000,0.049000000000
1.260783032000,0.071000000000
1.268470920000,0.081000000000
1.276158808000,0.074000000000
1.283846696000,0.074000000000
1.291534584000,0.081000000000
1.299222472000,0.084000000000
1.306910360000,0.081000000000
1.314598248000,0.081000000000
1.322286136000,0.071000000000
1.329974024000,0.051000000000
1.337661912000,0.027000000000
1.345349800000,-0.004000000000
1.353037688000,-0.027000000000
1.360725576000,-0.051000000000
1.368413464000,-0.084000000000
1.376101352000,-0.098000000000
1.383789240000,-0.103000000000
1.391477128000,-0.118000000000
1.399165016000,-0.121000000000
1.406852926000,-0.111000000000
1.414540674000,-0.108000000000
1.422228422000,-0.106000000000
1.429916170000,-0.101000000000
1.437603918000,-0.098000000000
1.445291666000,-0.098000000000
1.452979414000,-0.094000000000
1.460667162000,-0.079000000000
1.468354910000,-0.081000000000
1.476042658000,-0.096000000000
1.483730406000,-0.091000000000
1.491418154000,-0.076000000000
1.499105902000,-0.081000000000
1.506793650000,-0.089000000000
1.514481398000,-0.086000000000
1.522169146000,-0.089000000000
1.529856894000,-0.091000000000
1.537544642000,-0.086000000000
1.545232390000,-0.081000000000
1.552920138000,-0.089000000000
1.560607886000,-0.094000000000
1.568295634000,-0.086000000000
1.575983382000,-0.074000000000
1.583671130000,-0.084000000000
1.591358878000,-0.094000000000
1.599046626000,-0.089000000000
1.606734374000,-0.079000000000
1.614422122000,-0.074000000000
1.622109870000,-0.076000000000
1.629797618000,-0.076000000000
1.637485366000,-0.076000000000
1.645173114000,-0.081000000000
1.652860862000,-0.091000000000
1.660548610000,-0.089000000000
1.668236358000,-0.086000000000
1.675924106000,-0.079000000000
1.683611854000,-0.056000000000
1.691299602000,-0.039000000000
1.698987350000,-0.044000000000
1.706675098000,-0.042000000000
1.714362846000,-0.047000000000
1.722050594000,-0.066000000000
1.729738342000,-0.074000000000
1.737426090000,-0.066000000000
1.745113838000,-0.074000000000
1.752801586000,-0.079000000000
1.760489334000,-0.066000000000
1.768177082000,-0.064000000000
1.775864830000,-0.076000000000
1.783552578000,-0.084000000000
1.791240326000,-0.059000000000
1.798928074000,0.126000000000
1.806615822000,0.502000000000
1.814303570000,0.645000000000
1.821991318000,0.215000000000
1.829679066000,-0.329000000000
1.837366814000,-0.430000000000
1.845054562000,-0.264000000000
1.852742310000,-0.197000000000
1.860430058000,-0.160000000000
1.868117806000,-0.081000000000
1.875805554000,-0.051000000000
1.883493302000,-0.056000000000
1.891181050000,-0.049000000000
1.898868798000,-0.044000000000
1.906556546000,-0.037000000000
1.914244294000,-0.024000000000
1.921932042000,-0.024000000000
1.929619790000,-0.019000000000
1.937307538000,-0.007000000000
1.944995286000,-0.014000000000
1.952683034000,-0.012000000000
1.960370782000,0.002000000000
1.968058602000,0.002000000000
1.975746350000,0.002000000000
1.983434098000,0.017000000000
1.991121846000,0.022000000000
1.998809594000,0.024000000000
2.006497342000,0.042000000000
2.014185090000,0.054000000000
2.021872838000,0.051000000000
2.029560586000,0.064000000000
2.037248334000,0.079000000000
2.044936082000,0.079000000000
2.052623830000,0.074000000000
2.060311578000,0.081000000000
2.067999326000,0.081000000000
2.075687074000,0.069000000000
2.083374822000,0.061000000000
2.091062570000,0.061000000000
2.098750318000,0.039000000000
2.106438066000,0.002000000000
2.114125814000,-0.024000000000
2.121813562000,-0.049000000000
2.129501310000,-0.076000000000
2.137189058000,-0.098000000000
2.144876806000,-0.111000000000
2.152564554000,-0.116000000000
2.160252302000,-0.121000000000
2.167940050000,-0.126000000000
2.175627798000,-0.118000000000
2.183315546000,-0.111000000000
2.191003294000,-0.116000000000
2.198691042000,-0.113000000000
2.206378790000,-0.098000000000
2.214066538000,-0.094000000000
2.221754286000,-0.101000000000
2.229442034000,-0.096000000000
2.237129782000,-0.081000000000
2.244817530000,-0.084000000000
2.252505278000,-0.096000000000
2.260193026000,-0.094000000000
2.267880774000,-0.086000000000
2.275568522000,-0.086000000000
2.283256270000,-0.091000000000
2.290944018000,-0.096000000000
2.298631766000,-0.101000000000
2.306319514000,-0.098000000000
2.314007262000,-0.096000000000
2.321695010000,-0.098000000000
2.329382758000,-0.098000000000
2.337070506000,-0.094000000000
2.344758254000,-0.091000000000
2.352446002000,-0.089000000000
2.360133750000,-0.089000000000
2.367821498000,-0.094000000000
2.375509246000,-0.108000000000
2.383196994000,-0.098000000000
2.390884742000,-0.074000000000
2.398572490000,-0.074000000000
2.406260238000,-0.089000000000
2.413947986000,-0.094000000000
2.421635734000,-0.094000000000
2.429323482000,-0.096000000000
2.437011230000,-0.094000000000
2.444698978000,-0.079000000000
2.452386726000,-0.056000000000
2.460074474000,-0.049000000000
2.467762222000,-0.054000000000
2.475449970000,-0.047000000000
2.483137718000,-0.047000000000
2.490825466000,-0.071000000000
2.498513214000,-0.089000000000
2.506200962000,-0.086000000000
2.513888710000,-0.081000000000
2.521576458000,-0.076000000000
2.529264274000,-0.069000000000
2.536951813000,-0.069000000000
2.544639352000,-0.076000000000
2.552326891000,-0.084000000000
2.560014430000,-0.022000000000
2.567701969000,0.259000000000
2.575389508000,0.628000000000
2.583077047000,0.534000000000
2.590764586000,-0.054000000000
2.598452125000,-0.445000000000
2.606139664000,-0.373000000000
2.613827203000,-0.244000000000
2.621514742000,-0.222000000000
2.629202281000,-0.145000000000
2.636889820000,-0.064000000000
2.644577359000,-0.071000000000
2.652264898000,-0.079000000000
2.659952437000,-0.047000000000
2.667639976000,-0.034000000000
2.675327515000,-0.037000000000
2.683015054000,-0.024000000000
2.690702593000,-0.017000000000
2.698390132000,-0.019000000000
2.706077671000,-0.014000000000
2.713765210000,-0.007000000000
2.721452749000,-0.004000000000
2.729140288000,0.002000000000
2.736827827000,0.004000000000
2.744515366000,0.007000000000
2.752202905000,0.022000000000
2.759890444000,0.039000000000
2.767577983000,0.047000000000
2.775265522000,0.042000000000
2.782953061000,0.047000000000
2.790640600000,0.066000000000
2.798328139000,0.089000000000
2.806015678000,0.096000000000
2.813703217000,0.096000000000
2.821390756000,0.098000000000
2.829078295000,0.094000000000
2.836765834000,0.081000000000
2.844453373000,0.079000000000
2.852140912000,0.076000000000
2.859828451000,0.061000000000
2.867515990000,0.037000000000
2.875203529000,0.002000000000
2.882891068000,-0.032000000000
2.890578607000,-0.054000000000
2.898266146000,-0.091000000000
2.905953685000,-0.133000000000
2.913641224000,-0.138000000000
2.921328763000,-0.131000000000
2.929016302000,-0.138000000000
2.936703841000,-0.136000000000
2.944391380000,-0.131000000000
2.952078919000,-0.128000000000
2.959766458000,-0.108000000000
2.967453997000,-0.094000000000
2.975141536000,-0.101000000000
2.982829075000,-0.101000000000
2.990516614000,-0.086000000000
2.998204153000,-0.081000000000
3.005891692000,-0.094000000000
3.013579231000,-0.094000000000
3.021266770000,-0.084000000000
3.028954309000,-0.094000000000
3.036641848000,-0.096000000000
3.044329387000,-0.089000000000
3.052016926000,-0.091000000000
3.059704465000,-0.089000000000
3.067392004000,-0.091000000000
3.075079543000,-0.101000000000
3.082767082000,-0.103000000000
3.090454689000,-0.096000000000
3.098142228000,-0.094000000000
3.105829767000,-0.089000000000
3.113517306000,-0.089000000000
3.121204845000,-0.091000000000
3.128892384000,-0.091000000000
3.136579923000,-0.094000000000
3.144267462000,-0.103000000000
3.151955001000,-0.103000000000
3.159642540000,-0.096000000000
3.167330079000,-0.091000000000
3.175017618000,-0.069000000000
3.182705157000,-0.056000000000
3.190392696000,-0.059000000000
3.198080235000,-0.056000000000
3.205767774000,-0.056000000000
3.213455313000,-0.071000000000
3.221142852000,-0.084000000000
3.228830391000,-0.076000000000
3.236517930000,-0.076000000000
3.244205469000,-0.079000000000
3.251893008000,-0.079000000000
3.259580547000,-0.076000000000
3.267268086000,-0.081000000000
3.274955625000,-0.091000000000
3.282643164000,-0.076000000000
3.290330703000,0.071000000000
3.298018242000,0.447000000000
3.305705781000,0.677000000000
3.313393320000,0.319000000000
3.321080859000,-0.289000000000
3.328768398000,-0.475000000000
3.336455937000,-0.304000000000
3.344143476000,-0.215000000000
3.351831015000,-0.190000000000
3.359518554000,-0.103000000000
3.367206093000,-0.054000000000
3.374893632000,-0.061000000000
3.382581171000,-0.051000000000
3.390268710000,-0.037000000000
3.397956249000,-0.037000000000
3.405643788000,-0.029000000000
3.413331327000,-0.012000000000
3.421018866000,-0.014000000000
3.428706405000,-0.022000000000
3.436393944000,-0.012000000000
3.444081483000,0.002000000000
3.451769022000,0.004000000000
3.459456561000,0.007000000000
3.467144100000,0.019000000000
3.474831639000,0.027000000000
3.482519178000,0.022000000000
3.490206717000,0.027000000000
3.497894256000,0.054000000000
3.505581795000,0.071000000000
3.513269334000,0.069000000000
3.520956873000,0.074000000000
3.528644412000,0.091000000000
3.536331951000,0.101000000000
3.544019490000,0.101000000000
3.551707029000,0.096000000000
3.559394568000,0.091000000000
3.567082107000,0.103000000000
3.574769646000,0.111000000000
3.582457185000,0.081000000000
3.590144724000,0.042000000000
3.597832263000,0.022000000000
3.605519802000,-0.004000000000
3.613207341000,-0.049000000000
3.620894880000,-0.079000000000
3.628582419000,-0.098000000000
3.636269958000,-0.116000000000
3.643957497000,-0.123000000000
3.651645104000,-0.126000000000
3.659333062000,-0.126000000000
3.667021020000,-0.118000000000
3.674708978000,-0.108000000000
3.682396936000,-0.106000000000
3.690084894000,-0.103000000000
3.697772852000,-0.098000000000
3.705460810000,-0.096000000000
3.713148768000,-0.096000000000
3.720836726000,-0.091000000000
3.728524684000,-0.084000000000
3.736212642000,-0.081000000000
3.743900600000,-0.081000000000
3.751588558000,-0.076000000000
3.759276516000,-0.081000000000
3.766964474000,-0.096000000000
3.774652432000,-0.091000000000
3.782340390000,-0.081000000000
3.790028348000,-0.089000000000
3.797716306000,-0.091000000000
3.805404264000,-0.084000000000
3.813092222000,-0.079000000000
3.820780180000,-0.079000000000
3.828468138000,-0.091000000000
3.836156096000,-0.096000000000
3.843844054000,-0.084000000000
3.851532012000,-0.071000000000
3.859219970000,-0.084000000000
3.866907928000,-0.094000000000
3.874595886000,-0.081000000000
3.882283844000,-0.081000000000
3.889971802000,-0.094000000000
3.897659760000,-0.098000000000
3.905347718000,-0.086000000000
3.913035676000,-0.064000000000
3.920723634000,-0.044000000000
3.928411592000,-0.039000000000
3.936099550000,-0.044000000000
3.943787508000,-0.047000000000
3.951475466000,-0.054000000000
3.959163424000,-0.069000000000
3.966851382000,-0.076000000000
3.974539340000,-0.064000000000
3.982227298000,-0.056000000000
3.989915256000,-0.069000000000
3.997603214000,-0.076000000000
4.005291172000,-0.066000000000
4.012979130000,-0.066000000000
4.020667088000,-0.074000000000
4.028355046000,0.039000000000
4.036043004000,0.405000000000
4.043730962000,0.717000000000
4.051418920000,0.472000000000
4.059106878000,-0.141000000000
4.066794836000,-0.430000000000
4.074482794000,-0.299000000000
4.082170752000,-0.200000000000
4.089858710000,-0.200000000000
4.097546668000,-0.106000000000
4.105234626000,-0.039000000000
4.112922584000,-0.061000000000
4.120610542000,-0.064000000000
4.128298500000,-0.037000000000
4.135986458000,-0.032000000000
4.143674416000,-0.032000000000
4.151362374000,-0.029000000000
4.159050332000,-0.024000000000
4.166738290000,-0.019000000000
4.174426248000,-0.014000000000
4.182114206000,-0.004000000000
4.189802164000,0.004000000000
4.197490122000,0.007000000000
4.205178080000,-0.002000000000
4.212866041000,0.007000000000
4.220553580000,0.029000000000
4.228241119000,0.037000000000
4.235928658000,0.034000000000
4.243616197000,0.047000000000
4.251303736000,0.061000000000
4.258991275000,0.064000000000
4.266678814000,0.066000000000
4.274366353000,0.081000000000
4.282053892000,0.091000000000
4.289741431000,0.091000000000
4.297428970000,0.096000000000
4.305116509000,0.091000000000
4.312804048000,0.076000000000
4.320491587000,0.074000000000
4.328179126000,0.059000000000
4.335866665000,0.027000000000
4.343554204000,-0.002000000000
4.351241743000,-0.032000000000
4.358929282000,-0.069000000000
4.366616821000,-0.096000000000
4.374304360000,-0.108000000000
4.381991899000,-0.116000000000
4.389679438000,-0.123000000000
4.397366977000,-0.118000000000
4.405054516000,-0.113000000000
4.412742055000,-0.111000000000
4.420429594000,-0.106000000000
4.428117133000,-0.106000000000
4.435804672000,-0.103000000000
4.443492211000,-0.091000000000
4.451179750000,-0.089000000000
4.458867289000,-0.096000000000
4.466554828000,-0.089000000000
4.474242367000,-0.076000000000
4.481929906000,-0.071000000000
4.489617445000,-0.084000000000
4.497304984000,-0.089000000000
4.504992523000,-0.079000000000
4.512680062000,-0.081000000000
4.520367601000,-0.096000000000
4.528055140000,-0.089000000000
4.535742679000,-0.079000000000
4.543430218000,-0.089000000000
4.551117757000,-0.094000000000
4.558805296000,-0.081000000000
4.566492835000,-0.076000000000
4.574180374000,-0.084000000000
4.581867913000,-0.089000000000
4.589555452000,-0.086000000000
4.597242991000,-0.081000000000
4.604930530000,-0.079000000000
4.612618069000,-0.081000000000
4.620305608000,-0.076000000000
4.627993147000,-0.069000000000
4.635680686000,-0.071000000000
4.643368225000,-0.086000000000
4.651055764000,-0.094000000000
4.658743303000,-0.081000000000
4.666430842000,-0.071000000000
4.674118381000,-0.064000000000
4.681805920000,-0.047000000000
4.689493459000,-0.039000000000
4.697180998000,-0.037000000000
4.704868537000,-0.029000000000
4.712556076000,-0.044000000000
4.720243615000,-0.066000000000
4.727931154000,-0.061000000000
4.735618693000,-0.056000000000
4.743306232000,-0.069000000000
4.750993771000,-0.064000000000
4.758681310000,-0.054000000000
4.766368849000,-0.059000000000
4.774056456000,-0.071000000000
4.781744204000,-0.076000000000
4.789431952000,-0.022000000000
4.797119700000,0.232000000000
4.804807448000,0.611000000000
4.812495196000,0.618000000000
4.820182944000,0.091000000000
4.827870692000,-0.378000000000
4.835558440000,-0.380000000000
4.843246188000,-0.230000000000
4.850933936000,-0.190000000000
4.858621684000,-0.131000000000
4.866309432000,-0.051000000000
4.873997180000,-0.059000000000
4.881684928000,-0.071000000000
4.889372676000,-0.042000000000
4.897060424000,-0.034000000000
4.904748172000,-0.042000000000
4.912435920000,-0.029000000000
4.920123668000,-0.019000000000
4.927811416000,-0.017000000000
4.935499164000,-0.007000000000
4.943186912000,-0.002000000000
4.950874660000,-0.012000000000
4.958562408000,-0.002000000000
4.966250156000,0.019000000000
4.973937904000,0.019000000000
4.981625652000,0.012000000000
4.989313400000,0.022000000000
4.997001148000,0.027000000000
5.004688896000,0.032000000000
5.012376644000,0.054000000000
5.020064392000,0.066000000000
5.027752140000,0.069000000000
5.035439888000,0.084000000000
5.043127636000,0.086000000000
5.050815384000,0.086000000000
5.058503132000,0.091000000000
5.066190880000,0.076000000000
5.073878628000,0.066000000000
5.081566376000,0.079000000000
5.089254124000,0.071000000000
5.096941872000,0.034000000000
5.104629620000,0.004000000000
5.112317368000,-0.014000000000
5.120005116000,-0.047000000000
5.127692864000,-0.084000000000
5.135380612000,-0.103000000000
5.143068360000,-0.106000000000
5.150756108000,-0.111000000000
5.158443856000,-0.128000000000
5.166131604000,-0.131000000000
5.173819352000,-0.116000000000
5.181507100000,-0.106000000000
5.189194848000,-0.106000000000
5.196882596000,-0.108000000000
5.204570344000,-0.101000000000
5.212258092000,-0.086000000000
5.219945840000,-0.081000000000
5.227633588000,-0.094000000000
5.235321336000,-0.094000000000
5.243009084000,-0.081000000000
5.250696832000,-0.081000000000
5.258384580000,-0.094000000000
5.266072328000,-0.089000000000
5.273760076000,-0.076000000000
5.281447824000,-0.081000000000
5.289135572000,-0.096000000000
5.296823320000,-0.094000000000
5.304511068000,-0.084000000000
5.312198816000,-0.084000000000
5.319886564000,-0.091000000000
5.327574312000,-0.084000000000
5.335262132000,-0.074000000000
5.342949880000,-0.089000000000
5.350637628000,-0.096000000000
5.358325376000,-0.084000000000
5.366013124000,-0.079000000000
5.373700872000,-0.084000000000
5.381388620000,-0.076000000000
5.389076368000,-0.071000000000
5.396764116000,-0.074000000000
5.404451864000,-0.071000000000
5.412139612000,-0.074000000000
5.419827360000,-0.086000000000
5.427515108000,-0.089000000000
5.435202856000,-0.089000000000
5.442890604000,-0.081000000000
5.450578352000,-0.049000000000
5.458266100000,-0.032000000000
5.465953848000,-0.039000000000
5.473641596000,-0.039000000000
5.481329344000,-0.039000000000
5.489017092000,-0.061000000000
5.496704840000,-0.071000000000
5.504392588000,-0.064000000000
5.512080336000,-0.064000000000
5.519768084000,-0.074000000000
5.527455832000,-0.069000000000
5.535143580000,-0.064000000000
5.542831328000,-0.069000000000
5.550519076000,-0.069000000000
5.558206824000,-0.064000000000
5.565894572000,0.051000000000
5.573582320000,0.415000000000
5.581270068000,0.690000000000
5.588957816000,0.388000000000
5.596645564000,-0.202000000000
5.604333312000,-0.432000000000
5.612021060000,-0.316000000000
5.619708808000,-0.232000000000
5.627396556000,-0.185000000000
5.635084304000,-0.091000000000
5.642772052000,-0.049000000000
5.650459800000,-0.061000000000
5.658147548000,-0.054000000000
5.665835296000,-0.034000000000
5.673523044000,-0.027000000000
5.681210792000,-0.029000000000
5.688898540000,-0.027000000000
5.696586288000,-0.022000000000
5.704274036000,-0.009000000000
5.711961784000,0.000000000000
5.719649532000,-0.007000000000
5.727337280000,-0.004000000000
5.735025028000,0.009000000000
5.742712776000,0.012000000000
5.750400524000,0.009000000000
5.758088272000,0.024000000000
5.765776020000,0.042000000000
5.773463768000,0.044000000000
5.781151516000,0.044000000000
5.788839264000,0.054000000000
5.796527012000,0.066000000000
5.804214760000,0.079000000000
5.811902508000,0.091000000000
5.819590256000,0.094000000000
5.827278004000,0.091000000000
5.834965752000,0.094000000000
5.842653500000,0.094000000000
5.850341248000,0.081000000000
5.858028996000,0.071000000000
5.865716744000,0.066000000000
5.873404492000,0.039000000000
5.881092240000,-0.004000000000
5.888779988000,-0.039000000000
5.896467804000,-0.056000000000
5.904155343000,-0.076000000000
5.911842882000,-0.103000000000
5.919530421000,-0.116000000000
5.927217960000,-0.113000000000
5.934905499000,-0.116000000000
5.942593038000,-0.116000000000
5.950280577000,-0.113000000000
5.957968116000,-0.111000000000
5.965655655000,-0.101000000000
5.973343194000,-0.091000000000
5.981030733000,-0.086000000000
5.988718272000,-0.086000000000
5.996405811000,-0.089000000000
6.004093350000,-0.086000000000
6.011780889000,-0.081000000000
6.019468428000,-0.079000000000
6.027155967000,-0.079000000000
6.034843506000,-0.079000000000
6.042531045000,-0.081000000000
6.050218584000,-0.086000000000
6.057906123000,-0.084000000000
6.065593662000,-0.081000000000
6.073281201000,-0.091000000000
6.080968740000,-0.091000000000
6.088656279000,-0.084000000000
6.096343818000,-0.091000000000
6.104031357000,-0.098000000000
6.111718896000,-0.089000000000
6.119406435000,-0.079000000000
6.127093974000,-0.086000000000
6.134781513000,-0.086000000000
6.142469052000,-0.079000000000
6.150156591000,-0.081000000000
6.157844130000,-0.084000000000
6.165531669000,-0.084000000000
6.173219208000,-0.086000000000
6.180906747000,-0.081000000000
6.188594286000,-0.079000000000
6.196281825000,-0.096000000000
6.203969364000,-0.098000000000
6.211656903000,-0.079000000000
6.219344442000,-0.071000000000
6.227031981000,-0.061000000000
6.234719520000,-0.047000000000
6.242407059000,-0.054000000000
6.250094598000,-0.054000000000
6.257782137000,-0.042000000000
6.265469676000,-0.054000000000
6.273157215000,-0.071000000000
6.280844754000,-0.071000000000
6.288532293000,-0.069000000000
6.296219832000,-0.064000000000
6.303907371000,-0.064000000000
6.311594910000,-0.076000000000
6.319282449000,-0.084000000000
6.326969988000,-0.081000000000
6.334657527000,-0.069000000000
6.342345066000,0.051000000000
6.350032605000,0.400000000000
6.357720144000,0.682000000000
6.365407683000,0.413000000000
6.373095222000,-0.190000000000
6.380782761000,-0.457000000000
6.388470300000,-0.329000000000
6.396157839000,-0.232000000000
6.403845378000,-0.210000000000
6.411532917000,-0.113000000000
6.419220456000,-0.061000000000
6.426907995000,-0.081000000000
6.434595534000,-0.064000000000
6.442283073000,-0.039000000000
6.449970612000,-0.044000000000
6.457658219000,-0.042000000000
6.465345758000,-0.027000000000
6.473033297000,-0.014000000000
6.480720836000,-0.014000000000
6.488408375000,-0.009000000000
6.496095914000,-0.002000000000
6.503783453000,-0.002000000000
6.511470992000,-0.009000000000
6.519158531000,-0.004000000000
6.526846070000,0.002000000000
6.534533609000,0.007000000000
6.542221148000,0.019000000000
6.549908687000,0.039000000000
6.557596226000,0.044000000000
6.565283765000,0.047000000000
6.572971304000,0.074000000000
6.580658843000,0.089000000000
6.588346382000,0.084000000000
6.596033921000,0.089000000000
6.603721460000,0.103000000000
6.611408999000,0.101000000000
6.619096538000,0.096000000000
6.626784077000,0.094000000000
6.634471616000,0.081000000000
6.642159155000,0.061000000000
6.649846694000,0.034000000000
6.657534233000,-0.002000000000
6.665221772000,-0.051000000000
6.672909311000,-0.084000000000
6.680596850000,-0.094000000000
6.688284389000,-0.106000000000
6.695971928000,-0.131000000000
6.703659467000,-0.145000000000
6.711347006000,-0.141000000000
6.719034545000,-0.133000000000
6.726722084000,-0.131000000000
6.734409623000,-0.131000000000
6.742097162000,-0.123000000000
6.749784701000,-0.111000000000
6.757472240000,-0.106000000000
6.765159779000,-0.111000000000
6.772847318000,-0.103000000000
6.780534857000,-0.096000000000
6.788222396000,-0.101000000000
6.795909935000,-0.096000000000
6.803597474000,-0.089000000000
6.811285013000,-0.094000000000
6.818972552000,-0.096000000000
6.826660091000,-0.094000000000
6.834347630000,-0.098000000000
6.842035169000,-0.098000000000
6.849722708000,-0.094000000000
6.857410247000,-0.098000000000
6.865097786000,-0.108000000000
6.872785325000,-0.098000000000
6.880472864000,-0.094000000000
6.888160403000,-0.108000000000
6.895847942000,-0.096000000000
6.903535481000,-0.084000000000
6.911223020000,-0.096000000000
6.918910559000,-0.096000000000
6.926598098000,-0.089000000000
6.934285637000,-0.091000000000
6.941973176000,-0.096000000000
6.949660715000,-0.094000000000
6.957348254000,-0.074000000000
6.965035793000,-0.051000000000
6.972723332000,-0.056000000000
6.980410871000,-0.059000000000
6.988098410000,-0.051000000000
6.995785949000,-0.064000000000
7.003473488000,-0.074000000000
7.011161027000,-0.066000000000
7.018848638000,-0.079000000000
7.026536595000,-0.096000000000
7.034224552000,-0.089000000000
7.041912509000,-0.071000000000
7.049600466000,-0.071000000000
7.057288423000,-0.081000000000
7.064976380000,-0.081000000000
7.072664337000,0.047000000000
7.080352294000,0.430000000000
7.088040251000,0.714000000000
7.095728208000,0.385000000000
7.103416165000,-0.259000000000
7.111104122000,-0.487000000000
7.118792079000,-0.321000000000
7.126480036000,-0.252000000000
7.134167993000,-0.239000000000
7.141855950000,-0.106000000000
7.149543907000,-0.032000000000
7.157231864000,-0.064000000000
7.164919821000,-0.054000000000
7.172607778000,-0.017000000000
7.180295735000,-0.024000000000
7.187983692000,-0.027000000000
7.195671649000,-0.012000000000
7.203359606000,-0.007000000000
7.211047563000,-0.007000000000
7.218735520000,-0.002000000000
7.226423477000,0.000000000000
7.234111434000,0.007000000000
7.241799391000,0.019000000000
7.249487348000,0.022000000000
7.257175305000,0.027000000000
7.264863262000,0.039000000000
7.272551219000,0.042000000000
7.280239176000,0.042000000000
7.287927133000,0.064000000000
7.295615090000,0.079000000000
7.303303047000,0.079000000000
7.310991004000,0.094000000000
7.318678961000,0.113000000000
7.326366918000,0.118000000000
7.334054875000,0.121000000000
7.341742832000,0.126000000000
7.349430789000,0.111000000000
7.357118746000,0.101000000000
7.364806703000,0.101000000000
7.372494660000,0.079000000000
7.380182617000,0.037000000000
7.387870574000,0.000000000000
7.395558531000,-0.039000000000
7.403246488000,-0.071000000000
7.410934445000,-0.086000000000
7.418622402000,-0.108000000000
7.426310359000,-0.126000000000
7.433998316000,-0.128000000000
7.441686273000,-0.133000000000
7.449374230000,-0.131000000000
7.457062187000,-0.121000000000
7.464750144000,-0.121000000000
7.472438101000,-0.118000000000
7.480126058000,-0.101000000000
7.487814015000,-0.098000000000
7.495501972000,-0.096000000000
7.503189929000,-0.086000000000
7.510877886000,-0.081000000000
7.518565843000,-0.081000000000
7.526253800000,-0.076000000000
7.533941757000,-0.081000000000
7.541629714000,-0.091000000000
7.549317671000,-0.084000000000
7.557005628000,-0.081000000000
7.564693585000,-0.084000000000
7.572381542000,-0.086000000000
7.580069571000,-0.086000000000
7.587757110000,-0.089000000000
7.595444649000,-0.089000000000
7.603132188000,-0.086000000000
7.610819727000,-0.084000000000
7.618507266000,-0.079000000000
7.626194805000,-0.079000000000
7.633882344000,-0.089000000000
7.641569883000,-0.089000000000
7.649257422000,-0.084000000000
7.656944961000,-0.079000000000
7.664632500000,-0.076000000000
7.672320039000,-0.074000000000
7.680007578000,-0.079000000000
7.687695117000,-0.098000000000
7.695382656000,-0.101000000000
7.703070195000,-0.074000000000
7.710757734000,-0.054000000000
7.718445273000,-0.049000000000
7.726132812000,-0.039000000000
7.733820351000,-0.037000000000
7.741507890000,-0.054000000000
7.749195429000,-0.064000000000
7.756882968000,-0.061000000000
7.764570507000,-0.069000000000
7.772258046000,-0.074000000000
7.779945585000,-0.064000000000
7.787633124000,-0.059000000000
7.795320663000,-0.066000000000
7.803008202000,-0.069000000000
7.810695741000,-0.069000000000
7.818383280000,-0.044000000000
7.826070819000,0.175000000000
7.833758358000,0.596000000000
7.841445897000,0.734000000000
7.849133436000,0.279000000000
7.856820975000,-0.279000000000
7.864508514000,-0.398000000000
7.872196053000,-0.244000000000
7.879883592000,-0.185000000000
7.887571131000,-0.150000000000
7.895258670000,-0.069000000000
7.902946209000,-0.051000000000
7.910633748000,-0.071000000000
7.918321287000,-0.056000000000
7.926008826000,-0.034000000000
7.933696365000,-0.039000000000
7.941383904000,-0.037000000000
7.949071443000,-0.024000000000
7.956758982000,-0.019000000000
7.964446521000,-0.014000000000
7.972134060000,-0.007000000000
7.979821599000,-0.007000000000
7.987509138000,-0.004000000000
7.995196677000,0.000000000000
8.002884216000,0.004000000000
8.010571755000,0.017000000000
8.018259294000,0.024000000000
8.025946833000,0.029000000000
8.033634372000,0.037000000000
8.041321911000,0.049000000000
8.049009450000,0.056000000000
8.056696989000,0.066000000000
8.064384528000,0.081000000000
8.072072067000,0.098000000000
8.079759606000,0.101000000000
8.087447145000,0.098000000000
8.095134684000,0.101000000000
8.102822223000,0.106000000000
8.110509762000,0.101000000000
8.118197301000,0.079000000000
8.125884840000,0.049000000000
8.133572379000,0.024000000000
8.141259986000,0.002000000000
8.148947734000,-0.032000000000
8.156635482000,-0.069000000000
8.164323230000,-0.089000000000
8.172010978000,-0.098000000000
8.179698726000,-0.108000000000
8.187386474000,-0.113000000000
8.195074222000,-0.111000000000
8.202761970000,-0.113000000000
8.210449718000,-0.108000000000
8.218137466000,-0.096000000000
8.225825214000,-0.096000000000
8.233512962000,-0.101000000000
8.241200710000,-0.094000000000
8.248888458000,-0.086000000000
8.256576206000,-0.081000000000
8.264263954000,-0.084000000000
8.271951702000,-0.079000000000
8.279639450000,-0.071000000000
8.287327198000,-0.069000000000
8.295014946000,-0.076000000000
8.302702694000,-0.091000000000
8.310390442000,-0.089000000000
8.318078190000,-0.084000000000
8.325765938000,-0.084000000000
8.333453686000,-0.079000000000
8.341141434000,-0.074000000000
8.348829182000,-0.079000000000
8.356516930000,-0.081000000000
8.364204678000,-0.079000000000
8.371892426000,-0.076000000000
8.379580174000,-0.076000000000
8.387267922000,-0.074000000000
8.394955670000,-0.074000000000
8.402643418000,-0.074000000000
8.410331166000,-0.066000000000
8.418018914000,-0.061000000000
8.425706662000,-0.061000000000
8.433394410000,-0.069000000000
8.441082158000,-0.081000000000
8.448769906000,-0.081000000000
8.456457654000,-0.076000000000
8.464145402000,-0.054000000000
8.471833150000,-0.034000000000
8.479520898000,-0.039000000000
8.487208646000,-0.047000000000
8.494896394000,-0.029000000000
8.502584142000,-0.032000000000
8.510271890000,-0.056000000000
8.517959638000,-0.061000000000
8.525647386000,-0.056000000000
8.533335134000,-0.064000000000
8.541022882000,-0.069000000000
8.548710630000,-0.054000000000
8.556398378000,-0.047000000000
8.564086126000,-0.054000000000
8.571773874000,-0.066000000000
8.579461622000,-0.034000000000
8.587149370000,0.190000000000
8.594837118000,0.598000000000
8.602524866000,0.707000000000
8.610212614000,0.237000000000
8.617900362000,-0.306000000000
8.625588110000,-0.400000000000
8.633275858000,-0.239000000000
8.640963606000,-0.173000000000
8.648651354000,-0.128000000000
8.656339102000,-0.059000000000
8.664026850000,-0.054000000000
8.671714598000,-0.056000000000
8.679402346000,-0.032000000000
8.687090094000,-0.032000000000
8.694777842000,-0.042000000000
8.702465662000,-0.024000000000
8.710153271000,-0.007000000000
8.717840880000,-0.007000000000
8.725528489000,-0.004000000000
8.733216098000,-0.004000000000
8.740903707000,-0.007000000000
8.748591316000,0.002000000000
8.756278925000,0.012000000000
8.763966534000,0.014000000000
8.771654143000,0.027000000000
8.779341752000,0.037000000000
8.787029361000,0.034000000000
8.794716970000,0.042000000000
8.802404579000,0.061000000000
8.810092188000,0.066000000000
8.817779797000,0.066000000000
8.825467406000,0.081000000000
8.833155015000,0.096000000000
8.840842624000,0.103000000000
8.848530233000,0.106000000000
8.856217842000,0.103000000000
8.863905451000,0.096000000000
8.871593060000,0.096000000000
8.879280669000,0.084000000000
8.886968278000,0.059000000000
8.894655887000,0.029000000000
8.902343496000,-0.002000000000
8.910031105000,-0.034000000000
8.917718714000,-0.064000000000
8.925406323000,-0.091000000000
8.933093932000,-0.108000000000
8.940781541000,-0.113000000000
8.948469150000,-0.111000000000
8.956156759000,-0.106000000000
8.963844368000,-0.106000000000
8.971531977000,-0.103000000000
8.979219586000,-0.094000000000
8.986907195000,-0.094000000000
8.994594804000,-0.098000000000
9.002282413000,-0.091000000000
9.009970022000,-0.086000000000
9.017657631000,-0.086000000000
9.025345240000,-0.081000000000
9.033032849000,-0.074000000000
9.040720458000,-0.084000000000
9.048408067000,-0.089000000000
9.056095676000,-0.084000000000
9.063783285000,-0.076000000000
9.071470894000,-0.079000000000
9.079158503000,-0.081000000000
9.086846112000,-0.081000000000
9.094533721000,-0.079000000000
9.102221330000,-0.081000000000
9.109908939000,-0.084000000000
9.117596548000,-0.081000000000
9.125284157000,-0.081000000000
9.132971766000,-0.076000000000
9.140659375000,-0.071000000000
9.148346984000,-0.071000000000
9.156034593000,-0.076000000000
9.163722202000,-0.074000000000
9.171409811000,-0.071000000000
9.179097420000,-0.071000000000
9.186785029000,-0.074000000000
9.194472638000,-0.081000000000
9.202160247000,-0.086000000000
9.209847856000,-0.081000000000
9.217535465000,-0.069000000000
9.225223074000,-0.049000000000
9.232910683000,-0.032000000000
9.240598292000,-0.032000000000
9.248285901000,-0.037000000000
9.255973510000,-0.039000000000
9.263661164000,-0.047000000000
9.271348773000,-0.061000000000
9.279036382000,-0.066000000000
9.286723991000,-0.061000000000
9.294411600000,-0.059000000000
9.302099209000,-0.059000000000
9.309786818000,-0.061000000000
9.317474427000,-0.064000000000
9.325162036000,-0.071000000000
9.332849645000,-0.066000000000
9.340537254000,0.061000000000
9.348224863000,0.427000000000
9.355912472000,0.714000000000
9.363600081000,0.450000000000
9.371287690000,-0.163000000000
9.378975299000,-0.452000000000
9.386662908000,-0.314000000000
9.394350517000,-0.195000000000
9.402038126000,-0.173000000000
9.409725735000,-0.091000000000
9.417413344000,-0.051000000000
9.425100953000,-0.074000000000
9.432788562000,-0.056000000000
9.440476171000,-0.029000000000
9.448163780000,-0.032000000000
9.455851389000,-0.029000000000
9.463538998000,-0.022000000000
9.471226607000,-0.022000000000
9.478914216000,-0.019000000000
9.486601825000,-0.009000000000
9.494289434000,-0.004000000000
9.501977043000,0.000000000000
9.509664652000,0.004000000000
9.517352261000,0.004000000000
9.525039870000,0.017000000000
9.532727479000,0.034000000000
9.540415088000,0.032000000000
9.548102697000,0.029000000000
9.555790306000,0.049000000000
9.563477915000,0.066000000000
9.571165524000,0.074000000000
9.578853133000,0.086000000000
9.586540742000,0.094000000000
9.594228351000,0.094000000000
9.601915960000,0.096000000000
9.609603569000,0.098000000000
9.617291178000,0.098000000000
9.624978787000,0.094000000000
9.632666396000,0.086000000000
9.640354005000,0.074000000000
9.648041614000,0.039000000000
9.655729223000,-0.002000000000
9.663416832000,-0.029000000000
9.671104441000,-0.056000000000
9.678792050000,-0.094000000000
9.686479659000,-0.118000000000
9.694167268000,-0.118000000000
9.701854877000,-0.108000000000
9.709542486000,-0.113000000000
9.717230095000,-0.116000000000
9.724917704000,-0.108000000000
9.732605313000,-0.111000000000
9.740292922000,-0.111000000000
9.747980531000,-0.098000000000
9.755668140000,-0.091000000000
9.763355749000,-0.086000000000
9.771043358000,-0.089000000000
9.778730967000,-0.094000000000
9.786418576000,-0.094000000000
9.794106185000,-0.089000000000
9.801793794000,-0.081000000000
9.809481403000,-0.079000000000
9.817169012000,-0.084000000000
9.824856666000,-0.089000000000
9.832544275000,-0.091000000000
9.840231884000,-0.094000000000
9.847919493000,-0.089000000000
9.855607102000,-0.084000000000
9.863294711000,-0.084000000000
9.870982320000,-0.089000000000
9.878669929000,-0.094000000000
9.886357538000,-0.086000000000
9.894045147000,-0.079000000000
9.901732756000,-0.081000000000
9.909420365000,-0.091000000000
9.917107974000,-0.094000000000
9.924795583000,-0.081000000000
9.932483192000,-0.074000000000
9.940170801000,-0.091000000000
9.947858410000,-0.096000000000
9.955546019000,-0.064000000000
9.963233628000,-0.044000000000
9.970921237000,-0.047000000000
9.978608846000,-0.042000000000
9.986296455000,-0.049000000000
9.993984064000,-0.069000000000
10.001671673000,-0.069000000000
10.009359282000,-0.064000000000
10.017046891000,-0.064000000000
10.024734500000,-0.061000000000
10.032422109000,-0.059000000000
10.040109718000,-0.064000000000
10.047797327000,-0.071000000000
10.055484936000,-0.079000000000
10.063172545000,-0.044000000000
10.070860154000,0.175000000000
10.078547763000,0.586000000000
10.086235372000,0.687000000000
10.093922981000,0.158000000000
10.101610590000,-0.405000000000
10.109298199000,-0.440000000000
10.116985808000,-0.267000000000
10.124673417000,-0.239000000000
10.132361026000,-0.185000000000
10.140048635000,-0.059000000000
10.147736244000,-0.034000000000
10.155423853000,-0.054000000000
10.163111462000,-0.032000000000
10.170799071000,-0.014000000000
10.178486680000,-0.019000000000
10.186174289000,-0.017000000000
10.193861898000,-0.007000000000
10.201549507000,0.007000000000
10.209237116000,0.012000000000
10.216924725000,0.002000000000
10.224612334000,0.004000000000
10.232299943000,0.024000000000
10.239987552000,0.032000000000
10.247675161000,0.027000000000
10.255362770000,0.037000000000
10.263050379000,0.051000000000
10.270737988000,0.056000000000
10.278425597000,0.066000000000
10.286113206000,0.081000000000
10.293800815000,0.096000000000
10.301488424000,0.106000000000
10.309176033000,0.121000000000
10.316863642000,0.131000000000
10.324551251000,0.131000000000
10.332238860000,0.133000000000
10.339926469000,0.133000000000
10.347614078000,0.123000000000
10.355301687000,0.106000000000
10.362989296000,0.094000000000
10.370676905000,0.069000000000
10.378364514000,0.039000000000
10.386052164000,0.004000000000
10.393739703000,-0.037000000000
10.401427242000,-0.079000000000
10.409114781000,-0.101000000000
10.416802320000,-0.108000000000
10.424489859000,-0.111000000000
10.432177398000,-0.116000000000
10.439864937000,-0.113000000000
10.447552476000,-0.108000000000
10.455240015000,-0.111000000000
10.462927554000,-0.106000000000
10.470615093000,-0.089000000000
10.478302632000,-0.086000000000
10.485990171000,-0.089000000000
10.493677710000,-0.071000000000
10.501365249000,-0.071000000000
10.509052788000,-0.079000000000
10.516740327000,-0.069000000000
10.524427866000,-0.064000000000
10.532115405000,-0.069000000000
10.539802944000,-0.069000000000
10.547490483000,-0.066000000000
10.555178022000,-0.074000000000
10.562865561000,-0.081000000000
10.570553100000,-0.076000000000
10.578240639000,-0.076000000000
10.585928178000,-0.079000000000
10.593615717000,-0.074000000000
10.601303256000,-0.071000000000
10.608990795000,-0.071000000000
10.616678334000,-0.069000000000
10.624365873000,-0.061000000000
10.632053412000,-0.066000000000
10.639740951000,-0.076000000000
10.647428490000,-0.071000000000
10.655116029000,-0.059000000000
10.662803568000,-0.066000000000
10.670491107000,-0.084000000000
10.678178646000,-0.076000000000
10.685866185000,-0.054000000000
10.693553724000,-0.037000000000
10.701241263000,-0.037000000000
10.708928802000,-0.042000000000
10.716616341000,-0.039000000000
10.724303880000,-0.042000000000
10.731991419000,-0.059000000000
10.739678958000,-0.066000000000
10.747366497000,-0.054000000000
10.755054036000,-0.049000000000
10.762741575000,-0.059000000000
10.770429114000,-0.061000000000
10.778116653000,-0.049000000000
10.785804192000,-0.049000000000
10.793491731000,-0.079000000000
10.801179270000,-0.074000000000
10.808866809000,0.106000000000
10.816554348000,0.502000000000
10.824241887000,0.737000000000
10.831929426000,0.383000000000
10.839616965000,-0.237000000000
10.847304504000,-0.445000000000
10.854992043000,-0.277000000000
10.862679582000,-0.192000000000
10.870367121000,-0.170000000000
10.878054660000,-0.079000000000
10.885742199000,-0.044000000000
10.893429738000,-0.064000000000
10.901117277000,-0.049000000000
10.908804816000,-0.027000000000
10.916492355000,-0.029000000000
10.924179894000,-0.032000000000
10.931867433000,-0.019000000000
10.939554972000,-0.014000000000
10.947242583000,-0.012000000000
10.954930262000,0.000000000000
10.962617941000,0.004000000000
10.970305620000,0.004000000000
10.977993299000,0.012000000000
10.985680978000,0.017000000000
10.993368657000,0.019000000000
11.001056336000,0.034000000000
11.008744015000,0.044000000000
11.016431694000,0.051000000000
11.024119373000,0.061000000000
11.031807052000,0.071000000000
11.039494731000,0.081000000000
11.047182410000,0.091000000000
11.054870089000,0.103000000000
11.062557768000,0.103000000000
11.070245447000,0.096000000000
11.077933126000,0.094000000000
11.085620805000,0.098000000000
11.093308484000,0.098000000000
11.100996163000,0.094000000000
11.108683842000,0.071000000000
11.116371521000,0.037000000000
11.124059200000,0.012000000000
11.131746879000,-0.017000000000
11.139434558000,-0.061000000000
11.147122237000,-0.089000000000
11.154809916000,-0.096000000000
11.162497595000,-0.101000000000
11.170185274000,-0.103000000000
11.177872953000,-0.101000000000
11.185560632000,-0.096000000000
11.193248311000,-0.091000000000
11.200935990000,-0.089000000000
11.208623669000,-0.084000000000
11.216311348000,-0.079000000000
11.223999027000,-0.081000000000
11.231686706000,-0.081000000000
11.239374385000,-0.076000000000
11.247062064000,-0.069000000000
11.254749743000,-0.066000000000
11.262437422000,-0.069000000000
11.270125101000,-0.066000000000
11.277812780000,-0.066000000000
11.285500459000,-0.076000000000
11.293188138000,-0.079000000000
11.300875817000,-0.076000000000
11.308563496000,-0.076000000000
11.316251175000,-0.074000000000
11.323938854000,-0.071000000000
11.331626533000,-0.076000000000
11.339314212000,-0.076000000000
11.347001891000,-0.071000000000
11.354689570000,-0.069000000000
11.362377249000,-0.066000000000
11.370064928000,-0.066000000000
11.377752607000,-0.076000000000
11.385440286000,-0.079000000000
11.393127965000,-0.074000000000
11.400815644000,-0.081000000000
11.408503323000,-0.089000000000
11.416191002000,-0.084000000000
11.423878681000,-0.074000000000
11.431566360000,-0.056000000000
11.439254039000,-0.032000000000
11.446941718000,-0.032000000000
11.454629397000,-0.054000000000
11.462317076000,-0.047000000000
11.470004755000,-0.039000000000
11.477692434000,-0.056000000000
11.485380113000,-0.066000000000
11.493067792000,-0.059000000000
11.500755471000,-0.056000000000
11.508443172000,-0.064000000000
11.516130781000,-0.064000000000
11.523818390000,-0.061000000000
11.531505999000,-0.064000000000
11.539193608000,-0.074000000000
11.546881217000,-0.027000000000
11.554568826000,0.237000000000
11.562256435000,0.630000000000
11.569944044000,0.638000000000
11.577631653000,0.103000000000
11.585319262000,-0.376000000000
11.593006871000,-0.385000000000
11.600694480000,-0.230000000000
11.608382089000,-0.188000000000
11.616069698000,-0.133000000000
11.623757307000,-0.054000000000
11.631444916000,-0.051000000000
11.639132525000,-0.061000000000
11.646820134000,-0.039000000000
11.654507743000,-0.032000000000
11.662195352000,-0.037000000000
11.669882961000,-0.032000000000
11.677570570000,-0.027000000000
11.685258179000,-0.027000000000
11.692945788000,-0.019000000000
11.700633397000,-0.009000000000
11.708321006000,-0.004000000000
11.716008615000,0.002000000000
11.723696224000,0.012000000000
11.731383833000,0.012000000000
11.739071442000,0.017000000000
11.746759051000,0.029000000000
11.754446660000,0.037000000000
11.762134269000,0.042000000000
11.769821878000,0.049000000000
11.777509487000,0.061000000000
11.785197096000,0.071000000000
11.792884705000,0.081000000000
11.800572314000,0.091000000000
11.808259923000,0.091000000000
11.815947532000,0.091000000000
11.823635141000,0.091000000000
11.831322750000,0.089000000000
11.839010359000,0.079000000000
11.846697968000,0.056000000000
11.854385577000,0.037000000000
11.862073186000,0.024000000000
11.869760795000,0.000000000000
11.877448404000,-0.042000000000
11.885136013000,-0.074000000000
11.892823622000,-0.089000000000
11.900511231000,-0.101000000000
11.908198840000,-0.108000000000
11.915886449000,-0.106000000000
11.923574058000,-0.101000000000
11.931261667000,-0.106000000000
11.938949276000,-0.111000000000
11.946636885000,-0.096000000000
11.954324494000,-0.084000000000
11.962012103000,-0.089000000000
11.969699712000,-0.089000000000
11.977387321000,-0.084000000000
11.985074930000,-0.084000000000
11.992762539000,-0.081000000000
12.000450148000,-0.076000000000
12.008137757000,-0.081000000000
12.015825366000,-0.081000000000
12.023512975000,-0.076000000000
12.031200584000,-0.079000000000
12.038888193000,-0.081000000000
12.046575802000,-0.079000000000
12.054263411000,-0.079000000000
12.061951020000,-0.079000000000
12.069638674000,-0.086000000000
12.077326422000,-0.084000000000
12.085014170000,-0.074000000000
12.092701918000,-0.071000000000
12.100389666000,-0.074000000000
12.108077414000,-0.066000000000
12.115765162000,-0.054000000000
12.123452910000,-0.061000000000
12.131140658000,-0.079000000000
12.138828406000,-0.081000000000
12.146516154000,-0.076000000000
12.154203902000,-0.069000000000
12.161891650000,-0.049000000000
12.169579398000,-0.027000000000
12.177267146000,-0.032000000000
12.184954894000,-0.037000000000
12.192642642000,-0.017000000000
12.200330390000,-0.017000000000
12.208018138000,-0.047000000000
12.215705886000,-0.047000000000
12.223393634000,-0.034000000000
12.231081382000,-0.044000000000
12.238769130000,-0.049000000000
12.246456878000,-0.039000000000
12.254144626000,-0.034000000000
12.261832374000,-0.037000000000
12.269520122000,-0.049000000000
12.277207870000,-0.032000000000
12.284895618000,0.150000000000
12.292583366000,0.539000000000
12.300271114000,0.712000000000
12.307958862000,0.301000000000
12.315646610000,-0.264000000000
12.323334358000,-0.403000000000
12.331022106000,-0.242000000000
12.338709854000,-0.165000000000
12.346397602000,-0.126000000000
12.354085350000,-0.039000000000
12.361773098000,-0.019000000000
12.369460846000,-0.034000000000
12.377148594000,-0.014000000000
12.384836342000,0.000000000000
12.392524090000,-0.004000000000
12.400211838000,-0.002000000000
12.407899586000,0.007000000000
12.415587334000,0.014000000000
12.423275082000,0.017000000000
12.430962830000,0.019000000000
12.438650578000,0.032000000000
12.446338326000,0.037000000000
12.454026074000,0.037000000000
12.461713822000,0.039000000000
12.469401570000,0.049000000000
12.477089318000,0.059000000000
12.484777066000,0.069000000000
12.492464814000,0.074000000000
12.500152562000,0.084000000000
12.507840310000,0.096000000000
12.515528058000,0.103000000000
12.523215806000,0.108000000000
12.530903554000,0.118000000000
12.538591302000,0.118000000000
12.546279050000,0.116000000000
12.553966798000,0.116000000000
12.561654546000,0.118000000000
12.569342294000,0.108000000000
12.577030042000,0.096000000000
12.584717790000,0.084000000000
12.592405538000,0.054000000000
12.600093286000,0.009000000000
12.607781034000,-0.022000000000
12.615468782000,-0.044000000000
12.623156530000,-0.069000000000
12.630844346000,-0.081000000000
12.638531885000,-0.081000000000
12.646219424000,-0.081000000000
12.653906963000,-0.084000000000
12.661594502000,-0.081000000000
12.669282041000,-0.079000000000
12.676969580000,-0.074000000000
12.684657119000,-0.071000000000
12.692344658000,-0.074000000000
12.700032197000,-0.071000000000
12.707719736000,-0.061000000000
12.715407275000,-0.059000000000
12.723094814000,-0.061000000000
12.730782353000,-0.061000000000
12.738469892000,-0.054000000000
12.746157431000,-0.051000000000
12.753844970000,-0.064000000000
12.761532509000,-0.069000000000
12.769220048000,-0.061000000000
12.776907587000,-0.056000000000
12.784595126000,-0.064000000000
12.792282665000,-0.066000000000
12.799970204000,-0.056000000000
12.807657743000,-0.056000000000
12.815345282000,-0.069000000000
12.823032821000,-0.074000000000
12.830720360000,-0.064000000000
12.838407899000,-0.056000000000
12.846095438000,-0.056000000000
12.853782977000,-0.061000000000
12.861470516000,-0.071000000000
12.869158055000,-0.074000000000
12.876845594000,-0.064000000000
12.884533133000,-0.051000000000
12.892220672000,-0.042000000000
12.899908211000,-0.032000000000
12.907595750000,-0.029000000000
12.915283289000,-0.024000000000
12.922970828000,-0.022000000000
12.930658367000,-0.042000000000
12.938345906000,-0.054000000000
12.946033445000,-0.049000000000
12.953720984000,-0.049000000000
12.961408523000,-0.049000000000
12.969096062000,-0.042000000000
12.976783601000,-0.047000000000
12.984471140000,-0.059000000000
12.992158679000,-0.061000000000
12.999846218000,-0.051000000000
13.007533757000,0.056000000000
13.015221296000,0.398000000000
13.022908835000,0.692000000000
13.030596374000,0.430000000000
13.038283913000,-0.190000000000
13.045971452000,-0.460000000000
13.053658991000,-0.311000000000
13.061346530000,-0.207000000000
13.069034069000,-0.197000000000
13.076721608000,-0.101000000000
13.084409147000,-0.029000000000
13.092096686000,-0.047000000000
13.099784225000,-0.049000000000
13.107471764000,-0.024000000000
13.115159303000,-0.017000000000
13.122846842000,-0.019000000000
13.130534381000,-0.009000000000
13.138221920000,0.000000000000
13.145909459000,0.002000000000
13.153596998000,0.007000000000
13.161284537000,0.009000000000
13.168972076000,0.009000000000
13.176659615000,0.014000000000
13.184347154000,0.027000000000
13.192034761000,0.032000000000
13.199722300000,0.037000000000
13.207409839000,0.044000000000
13.215097378000,0.056000000000
13.222784917000,0.069000000000
13.230472456000,0.081000000000
13.238159995000,0.091000000000
13.245847534000,0.094000000000
13.253535073000,0.098000000000
13.261222612000,0.103000000000
13.268910151000,0.108000000000
13.276597690000,0.106000000000
13.284285229000,0.096000000000
13.291972768000,0.091000000000
13.299660307000,0.086000000000
13.307347846000,0.061000000000
13.315035385000,0.029000000000
13.322722924000,0.000000000000
13.330410463000,-0.037000000000
13.338098002000,-0.066000000000
13.345785541000,-0.089000000000
13.353473080000,-0.116000000000
13.361160619000,-0.131000000000
13.368848158000,-0.126000000000
13.376535697000,-0.126000000000
13.384223236000,-0.131000000000
13.391910775000,-0.118000000000
13.399598314000,-0.103000000000
13.407285853000,-0.101000000000
13.414973392000,-0.108000000000
13.422660931000,-0.103000000000
13.430348470000,-0.086000000000
13.438036009000,-0.084000000000
13.445723548000,-0.086000000000
13.453411087000,-0.079000000000
13.461098626000,-0.089000000000
13.468786165000,-0.106000000000
13.476473704000,-0.096000000000
13.484161243000,-0.084000000000
13.491848782000,-0.091000000000
13.499536321000,-0.091000000000
13.507223860000,-0.084000000000
13.514911399000,-0.094000000000
13.522598938000,-0.101000000000
13.530286477000,-0.091000000000
13.537974016000,-0.089000000000
13.545661555000,-0.096000000000
13.553349094000,-0.094000000000
13.561036633000,-0.096000000000
13.568724172000,-0.108000000000
13.576411711000,-0.111000000000
13.584099250000,-0.096000000000
13.591786789000,-0.081000000000
13.599474328000,-0.066000000000
13.607161867000,-0.051000000000
13.614849406000,-0.054000000000
13.622536945000,-0.061000000000
13.630224484000,-0.069000000000
13.637912023000,-0.074000000000
13.645599562000,-0.079000000000
13.653287101000,-0.084000000000
13.660974640000,-0.086000000000
13.668662179000,-0.081000000000
13.676349718000,-0.076000000000
13.684037257000,-0.071000000000
13.691724796000,-0.074000000000
13.699412335000,-0.076000000000
13.707099874000,0.029000000000
13.714787413000,0.378000000000
13.722474952000,0.685000000000
13.730162491000,0.413000000000
13.737850030000,-0.230000000000
13.745537569000,-0.492000000000
13.753225176000,-0.329000000000
13.760912715000,-0.222000000000
13.768600254000,-0.207000000000
13.776287793000,-0.113000000000
13.783975332000,-0.051000000000
13.791662871000,-0.064000000000
13.799350410000,-0.054000000000
13.807037949000,-0.029000000000
13.814725488000,-0.034000000000
13.822413027000,-0.037000000000
13.830100566000,-0.022000000000
13.837788105000,-0.017000000000
13.845475644000,-0.017000000000
13.853163183000,-0.009000000000
13.860850722000,0.000000000000
13.868538261000,0.000000000000
13.876225800000,0.007000000000
13.883913339000,0.014000000000
13.891600878000,0.014000000000
13.899288417000,0.022000000000
13.906975956000,0.034000000000
13.914663495000,0.039000000000
13.922351034000,0.044000000000
13.930038573000,0.061000000000
13.937726112000,0.084000000000
13.945413651000,0.084000000000
13.953101190000,0.079000000000
13.960788729000,0.084000000000
13.968476268000,0.094000000000
13.976163807000,0.091000000000
13.983851346000,0.086000000000
13.991538885000,0.084000000000
13.999226424000,0.074000000000
14.006913963000,0.049000000000
14.014601502000,0.022000000000
14.022289041000,-0.007000000000
14.029976580000,-0.042000000000
14.037664119000,-0.081000000000
14.045351658000,-0.101000000000
14.053039197000,-0.113000000000
14.060726736000,-0.123000000000
14.068414275000,-0.128000000000
14.076101814000,-0.126000000000
14.083789353000,-0.123000000000
14.091476892000,-0.116000000000
14.099164431000,-0.108000000000
14.106851970000,-0.106000000000
14.114539509000,-0.101000000000
14.122227048000,-0.096000000000
14.129914587000,-0.091000000000
14.137602126000,-0.091000000000
14.145289665000,-0.091000000000
14.152977204000,-0.081000000000
14.160664743000,-0.079000000000
14.168352282000,-0.091000000000
14.176039821000,-0.094000000000
14.183727360000,-0.086000000000
14.191414899000,-0.081000000000
14.199102438000,-0.086000000000
14.206789977000,-0.089000000000
14.214477516000,-0.089000000000
14.222165055000,-0.089000000000
14.229852594000,-0.094000000000
14.237540133000,-0.091000000000
14.245227672000,-0.084000000000
14.252915211000,-0.081000000000
14.260602750000,-0.086000000000
14.268290289000,-0.081000000000
14.275977828000,-0.084000000000
14.283665367000,-0.091000000000
14.291352906000,-0.091000000000
14.299040445000,-0.091000000000
14.306727984000,-0.091000000000
14.314415595000,-0.066000000000
14.322103274000,-0.034000000000
14.329790953000,-0.037000000000
14.337478632000,-0.051000000000
14.345166311000,-0.047000000000
14.352853990000,-0.051000000000
14.360541669000,-0.074000000000
14.368229348000,-0.074000000000
14.375917027000,-0.064000000000
14.383604706000,-0.066000000000
14.391292385000,-0.066000000000
14.398980064000,-0.064000000000
14.406667743000,-0.071000000000
14.414355422000,-0.079000000000
14.422043101000,-0.081000000000
14.429730780000,-0.007000000000
14.437418459000,0.304000000000
14.445106138000,0.687000000000
14.452793817000,0.601000000000
14.460481496000,0.002000000000
14.468169175000,-0.423000000000
14.475856854000,-0.361000000000
14.483544533000,-0.215000000000
14.491232212000,-0.188000000000
14.498919891000,-0.126000000000
14.506607570000,-0.056000000000
14.514295249000,-0.064000000000
14.521982928000,-0.064000000000
14.529670607000,-0.034000000000
14.537358286000,-0.029000000000
14.545045965000,-0.034000000000
14.552733644000,-0.029000000000
14.560421323000,-0.027000000000
14.568109002000,-0.019000000000
14.575796681000,-0.012000000000
14.583484360000,-0.009000000000
14.591172039000,-0.007000000000
14.598859718000,0.000000000000
14.606547397000,0.009000000000
14.614235076000,0.012000000000
14.621922755000,0.017000000000
14.629610434000,0.027000000000
14.637298113000,0.032000000000
14.644985792000,0.034000000000
14.652673471000,0.047000000000
14.660361150000,0.061000000000
14.668048829000,0.071000000000
14.675736508000,0.081000000000
14.683424187000,0.086000000000
14.691111866000,0.084000000000
14.698799545000,0.081000000000
14.706487224000,0.081000000000
14.714174903000,0.076000000000
14.721862582000,0.069000000000
14.729550261000,0.061000000000
14.737237940000,0.039000000000
14.744925619000,0.002000000000
14.752613298000,-0.027000000000
14.760300977000,-0.049000000000
14.767988656000,-0.084000000000
14.775676335000,-0.103000000000
14.783364014000,-0.103000000000
14.791051693000,-0.113000000000
14.798739372000,-0.121000000000
14.806427051000,-0.111000000000
14.814114730000,-0.103000000000
14.821802409000,-0.108000000000
14.829490088000,-0.106000000000
14.837177767000,-0.096000000000
14.844865446000,-0.094000000000
14.852553125000,-0.091000000000
14.860240804000,-0.086000000000
14.867928483000,-0.086000000000
14.875616184000,-0.089000000000
14.883303793000,-0.086000000000
14.890991402000,-0.081000000000
14.898679011000,-0.084000000000
14.906366620000,-0.086000000000
14.914054229000,-0.086000000000
14.921741838000,-0.086000000000
14.929429447000,-0.089000000000
14.937117056000,-0.089000000000
14.944804665000,-0.089000000000
14.952492274000,-0.094000000000
14.960179883000,-0.096000000000
14.967867492000,-0.094000000000
14.975555101000,-0.089000000000
14.983242710000,-0.089000000000
14.990930319000,-0.089000000000
14.998617928000,-0.084000000000
15.006305537000,-0.081000000000
15.013993146000,-0.084000000000
15.021680755000,-0.084000000000
15.029368364000,-0.089000000000
15.037055973000,-0.091000000000
15.044743582000,-0.086000000000
15.052431191000,-0.069000000000
15.060118800000,-0.049000000000
15.067806409000,-0.044000000000
15.075494018000,-0.047000000000
15.083181627000,-0.039000000000
15.090869236000,-0.049000000000
15.098556845000,-0.069000000000
15.106244454000,-0.071000000000
15.113932063000,-0.069000000000
15.121619672000,-0.074000000000
15.129307281000,-0.064000000000
15.136994890000,-0.061000000000
15.144682499000,-0.069000000000
15.152370108000,-0.069000000000
15.160057717000,-0.076000000000
15.167745326000,-0.047000000000
15.175432935000,0.188000000000
15.183120544000,0.598000000000
15.190808153000,0.690000000000
15.198495762000,0.192000000000
15.206183371000,-0.353000000000
15.213870980000,-0.410000000000
15.221558589000,-0.230000000000
15.229246198000,-0.185000000000
15.236933807000,-0.153000000000
15.244621416000,-0.066000000000
15.252309025000,-0.054000000000
15.259996634000,-0.066000000000
15.267684243000,-0.044000000000
15.275371852000,-0.032000000000
15.283059461000,-0.032000000000
15.290747070000,-0.027000000000
15.298434679000,-0.024000000000
15.306122288000,-0.022000000000
15.313809897000,-0.009000000000
15.321497506000,-0.004000000000
15.329185115000,-0.007000000000
15.336872724000,0.000000000000
15.344560333000,0.007000000000
15.352247942000,0.009000000000
15.359935551000,0.014000000000
15.367623160000,0.027000000000
15.375310769000,0.034000000000
15.382998378000,0.039000000000
15.390685987000,0.047000000000
15.398373596000,0.054000000000
15.406061205000,0.066000000000
15.413748814000,0.076000000000
15.421436423000,0.079000000000
15.429124032000,0.081000000000
15.436811686000,0.089000000000
15.444499295000,0.086000000000
15.452186904000,0.074000000000
15.459874513000,0.069000000000
15.467562122000,0.061000000000
15.475249731000,0.037000000000
15.482937340000,0.007000000000
15.490624949000,-0.019000000000
15.498312558000,-0.051000000000
15.506000167000,-0.081000000000
15.513687776000,-0.098000000000
15.521375385000,-0.106000000000
15.529062994000,-0.111000000000
15.536750603000,-0.118000000000
15.544438212000,-0.123000000000
15.552125821000,-0.116000000000
15.559813430000,-0.106000000000
15.567501039000,-0.108000000000
15.575188648000,-0.106000000000
15.582876257000,-0.094000000000
15.590563866000,-0.089000000000
15.598251475000,-0.094000000000
15.605939084000,-0.094000000000
15.613626693000,-0.091000000000
15.621314302000,-0.086000000000
15.629001911000,-0.086000000000
15.636689520000,-0.089000000000
15.644377129000,-0.086000000000
15.652064738000,-0.084000000000
15.659752347000,-0.086000000000
15.667439956000,-0.089000000000
15.675127565000,-0.089000000000
15.682815174000,-0.089000000000
15.690502783000,-0.089000000000
15.698190392000,-0.086000000000
15.705878001000,-0.089000000000
15.713565610000,-0.084000000000
15.721253219000,-0.074000000000
15.728940828000,-0.074000000000
15.736628437000,-0.086000000000
15.744316046000,-0.084000000000
15.752003655000,-0.076000000000
15.759691264000,-0.079000000000
15.767378873000,-0.076000000000
15.775066482000,-0.066000000000
15.782754091000,-0.064000000000
15.790441700000,-0.074000000000
15.798129309000,-0.074000000000
15.805816918000,-0.066000000000
15.813504527000,-0.071000000000
15.821192136000,-0.079000000000
15.828879745000,-0.076000000000
15.836567354000,-0.069000000000
15.844254963000,-0.049000000000
15.851942572000,-0.032000000000
15.859630181000,-0.039000000000
15.867317790000,-0.042000000000
15.875005399000,-0.027000000000
15.882693008000,-0.032000000000
15.890380617000,-0.051000000000
15.898068226000,-0.059000000000
15.905755835000,-0.059000000000
15.913443444000,-0.054000000000
15.921131053000,-0.051000000000
15.928818662000,-0.061000000000
15.936506271000,-0.064000000000
15.944193880000,-0.061000000000
15.951881489000,-0.069000000000
15.959569098000,-0.029000000000
15.967256707000,0.215000000000
15.974944316000,0.616000000000
15.982631925000,0.667000000000
15.990319534000,0.143000000000
15.998007188000,-0.378000000000
16.005694797000,-0.398000000000
16.013382406000,-0.220000000000
16.021070015000,-0.175000000000
16.028757624000,-0.131000000000
16.036445233000,-0.051000000000
16.044132842000,-0.049000000000
16.051820451000,-0.059000000000
16.059508060000,-0.039000000000
16.067195669000,-0.034000000000
16.074883278000,-0.034000000000
16.082570887000,-0.022000000000
16.090258496000,-0.012000000000
16.097946105000,-0.009000000000
16.105633714000,-0.004000000000
16.113321323000,-0.002000000000
16.121008932000,-0.004000000000
16.128696541000,-0.002000000000
16.136384150000,0.004000000000
16.144071759000,0.007000000000
16.151759368000,0.014000000000
16.159446977000,0.024000000000
16.167134586000,0.032000000000
16.174822195000,0.037000000000
16.182509804000,0.047000000000
16.190197413000,0.059000000000
16.197885022000,0.066000000000
16.205572631000,0.071000000000
16.213260240000,0.074000000000
16.220947849000,0.079000000000
16.228635458000,0.079000000000
16.236323067000,0.074000000000
16.244010676000,0.069000000000
16.251698285000,0.066000000000
16.259385894000,0.064000000000
16.267073503000,0.047000000000
16.274761112000,0.017000000000
16.282448721000,-0.012000000000
16.290136330000,-0.037000000000
16.297823939000,-0.061000000000
16.305511548000,-0.081000000000
16.313199157000,-0.094000000000
16.320886766000,-0.101000000000
16.328574375000,-0.106000000000
16.336261984000,-0.108000000000
16.343949593000,-0.103000000000
16.351637202000,-0.094000000000
16.359324811000,-0.094000000000
16.367012420000,-0.096000000000
16.374700029000,-0.084000000000
16.382387638000,-0.076000000000
16.390075247000,-0.081000000000
16.397762856000,-0.086000000000
16.405450465000,-0.081000000000
16.413138074000,-0.076000000000
16.420825683000,-0.081000000000
16.428513292000,-0.081000000000
16.436200901000,-0.076000000000
16.443888510000,-0.081000000000
16.451576119000,-0.086000000000
16.459263728000,-0.089000000000
16.466951337000,-0.091000000000
16.474638946000,-0.091000000000
16.482326555000,-0.084000000000
16.490014164000,-0.081000000000
16.497701773000,-0.086000000000
16.505389382000,-0.081000000000
16.513076991000,-0.079000000000
16.520764600000,-0.081000000000
16.528452209000,-0.086000000000
16.536139818000,-0.084000000000
16.543827427000,-0.076000000000
16.551515036000,-0.074000000000
16.559202690000,-0.074000000000
16.566890299000,-0.074000000000
16.574577908000,-0.076000000000
16.582265517000,-0.079000000000
16.589953126000,-0.081000000000
16.597640735000,-0.081000000000
16.605328344000,-0.069000000000
16.613015953000,-0.051000000000
16.620703562000,-0.044000000000
16.628391171000,-0.034000000000
16.636078780000,-0.029000000000
16.643766389000,-0.051000000000
16.651453998000,-0.069000000000
16.659141607000,-0.061000000000
16.666829216000,-0.064000000000
16.674516825000,-0.074000000000
16.682204434000,-0.066000000000
16.689892043000,-0.061000000000
16.697579652000,-0.061000000000
16.705267261000,-0.064000000000
16.712954870000,-0.074000000000
16.720642479000,-0.032000000000
16.728330088000,0.212000000000
16.736017697000,0.608000000000
16.743705306000,0.635000000000
16.751392915000,0.089000000000
16.759080524000,-0.408000000000
16.766768133000,-0.403000000000
16.774455742000,-0.232000000000
16.782143351000,-0.195000000000
16.789830960000,-0.141000000000
16.797518569000,-0.051000000000
16.805206178000,-0.051000000000
16.812893787000,-0.061000000000
16.820581396000,-0.039000000000
16.828269005000,-0.032000000000
16.835956614000,-0.037000000000
16.843644223000,-0.024000000000
16.851331832000,-0.012000000000
16.859019441000,-0.007000000000
16.866707050000,-0.002000000000
16.874394659000,0.000000000000
16.882082268000,-0.002000000000
16.889769877000,0.002000000000
16.897457486000,0.012000000000
16.905145095000,0.019000000000
16.912832704000,0.027000000000
16.920520313000,0.034000000000
16.928207922000,0.042000000000
16.935895531000,0.047000000000
16.943583140000,0.064000000000
16.951270749000,0.089000000000
16.958958358000,0.098000000000
16.966645967000,0.089000000000
16.974333576000,0.089000000000
16.982021185000,0.103000000000
16.989708794000,0.103000000000
16.997396403000,0.091000000000
17.005084012000,0.089000000000
17.012771621000,0.084000000000
17.020459230000,0.061000000000
17.028146839000,0.042000000000
17.035834448000,0.022000000000
17.043522057000,-0.019000000000
17.051209666000,-0.061000000000
17.058897275000,-0.086000000000
17.066584884000,-0.101000000000
17.074272493000,-0.108000000000
17.081960102000,-0.108000000000
17.089647711000,-0.111000000000
17.097335320000,-0.126000000000
17.105022929000,-0.128000000000
17.112710538000,-0.113000000000
17.120398192000,-0.103000000000
17.128085383000,-0.103000000000
17.135772574000,-0.103000000000
17.143459765000,-0.096000000000
17.151146956000,-0.089000000000
17.158834147000,-0.086000000000
17.166521338000,-0.084000000000
17.174208529000,-0.084000000000
17.181895720000,-0.086000000000
17.189582911000,-0.086000000000
17.197270102000,-0.084000000000
17.204957293000,-0.084000000000
17.212644484000,-0.089000000000
17.220331675000,-0.084000000000
17.228018866000,-0.079000000000
17.235706057000,-0.091000000000
17.243393248000,-0.096000000000
17.251080439000,-0.081000000000
17.258767630000,-0.079000000000
17.266454821000,-0.084000000000
17.274142012000,-0.079000000000
17.281829203000,-0.076000000000
17.289516394000,-0.084000000000
17.297203585000,-0.079000000000
17.304890776000,-0.071000000000
17.312577967000,-0.074000000000
17.320265158000,-0.079000000000
17.327952349000,-0.079000000000
17.335639540000,-0.076000000000
17.343326731000,-0.071000000000
17.351013922000,-0.066000000000
17.358701113000,-0.061000000000
17.366388304000,-0.054000000000
17.374075495000,-0.044000000000
17.381762686000,-0.032000000000
17.389449877000,-0.024000000000
17.397137068000,-0.042000000000
17.404824259000,-0.061000000000
17.412511450000,-0.059000000000
17.420198641000,-0.056000000000
17.427885832000,-0.059000000000
17.435573023000,-0.061000000000
17.443260214000,-0.064000000000
17.450947405000,-0.066000000000
17.458634596000,-0.059000000000
17.466321787000,-0.059000000000
17.474008978000,-0.014000000000
17.481696169000,0.249000000000
17.489383360000,0.640000000000
17.497070551000,0.603000000000
17.504757742000,-0.004000000000
17.512444933000,-0.465000000000
17.520132124000,-0.398000000000
17.527819315000,-0.249000000000
17.535506506000,-0.235000000000
17.543193697000,-0.148000000000
17.550880888000,-0.039000000000
17.558568079000,-0.042000000000
17.566255270000,-0.056000000000
17.573942461000,-0.029000000000
17.581629652000,-0.017000000000
17.589316843000,-0.022000000000
17.597004034000,-0.014000000000
17.604691225000,-0.002000000000
17.612378416000,0.000000000000
17.620065607000,-0.002000000000
17.627752798000,-0.002000000000
17.635439989000,0.012000000000
17.643127180000,0.024000000000
17.650814371000,0.024000000000
17.658501562000,0.027000000000
17.666188753000,0.037000000000
17.673875944000,0.042000000000
17.681563176000,0.051000000000
17.689250785000,0.069000000000
17.696938394000,0.079000000000
17.704626003000,0.081000000000
17.712313612000,0.089000000000
17.720001221000,0.106000000000
17.727688830000,0.111000000000
17.735376439000,0.101000000000
17.743064048000,0.098000000000
17.750751657000,0.106000000000
17.758439266000,0.106000000000
17.766126875000,0.094000000000
17.773814484000,0.074000000000
17.781502093000,0.051000000000
17.789189702000,0.017000000000
17.796877311000,-0.019000000000
17.804564920000,-0.049000000000
17.812252529000,-0.074000000000
17.819940138000,-0.108000000000
17.827627747000,-0.128000000000
17.835315356000,-0.123000000000
17.843002965000,-0.123000000000
17.850690574000,-0.123000000000
17.858378183000,-0.116000000000
17.866065792000,-0.111000000000
17.873753401000,-0.111000000000
17.881441010000,-0.101000000000
17.889128619000,-0.086000000000
17.896816228000,-0.084000000000
17.904503837000,-0.091000000000
17.912191446000,-0.089000000000
17.919879055000,-0.084000000000
17.927566664000,-0.081000000000
17.935254273000,-0.074000000000
17.942941882000,-0.076000000000
17.950629491000,-0.094000000000
17.958317100000,-0.103000000000
17.966004709000,-0.096000000000
17.973692318000,-0.086000000000
17.981379927000,-0.086000000000
17.989067536000,-0.094000000000
17.996755145000,-0.094000000000
18.004442754000,-0.089000000000
18.012130363000,-0.089000000000
18.019817972000,-0.094000000000
18.027505581000,-0.091000000000
18.035193190000,-0.086000000000
18.042880799000,-0.086000000000
18.050568408000,-0.089000000000
18.058256017000,-0.086000000000
18.065943626000,-0.089000000000
18.073631235000,-0.096000000000
18.081318844000,-0.098000000000
18.089006453000,-0.096000000000
18.096694062000,-0.084000000000
18.104381671000,-0.071000000000
18.112069280000,-0.064000000000
18.119756889000,-0.054000000000
18.127444498000,-0.047000000000
18.135132107000,-0.051000000000
18.142819716000,-0.059000000000
18.150507325000,-0.069000000000
18.158194934000,-0.076000000000
18.165882543000,-0.071000000000
18.173570152000,-0.069000000000
18.181257761000,-0.069000000000
18.188945370000,-0.076000000000
18.196632979000,-0.071000000000
18.204320588000,-0.064000000000
18.212008197000,-0.076000000000
18.219695806000,-0.027000000000
18.227383415000,0.247000000000
18.235071024000,0.643000000000
18.242758678000,0.633000000000
18.250446078000,0.066000000000
18.258133478000,-0.425000000000
18.265820878000,-0.405000000000
18.273508278000,-0.222000000000
18.281195678000,-0.180000000000
18.288883078000,-0.136000000000
18.296570478000,-0.066000000000
18.304257878000,-0.061000000000
18.311945278000,-0.064000000000
18.319632678000,-0.039000000000
18.327320078000,-0.029000000000
18.335007478000,-0.029000000000
18.342694878000,-0.027000000000
18.350382278000,-0.022000000000
18.358069678000,-0.012000000000
18.365757078000,-0.002000000000
18.373444478000,-0.004000000000
18.381131878000,-0.009000000000
18.388819278000,0.000000000000
18.396506678000,0.017000000000
18.404194078000,0.024000000000
18.411881478000,0.032000000000
18.419568878000,0.037000000000
18.427256278000,0.039000000000
18.434943678000,0.047000000000
18.442631078000,0.056000000000
18.450318478000,0.064000000000
18.458005878000,0.076000000000
18.465693278000,0.091000000000
18.473380678000,0.096000000000
18.481068078000,0.096000000000
18.488755478000,0.094000000000
18.496442878000,0.094000000000
18.504130278000,0.098000000000
18.511817678000,0.081000000000
18.519505078000,0.051000000000
18.527192478000,0.042000000000
18.534879878000,0.022000000000
18.542567278000,-0.029000000000
18.550254678000,-0.064000000000
18.557942078000,-0.081000000000
18.565629478000,-0.108000000000
18.573316878000,-0.123000000000
18.581004278000,-0.118000000000
18.588691678000,-0.116000000000
18.596379078000,-0.121000000000
18.604066478000,-0.121000000000
18.611753878000,-0.118000000000
18.619441278000,-0.108000000000
18.627128678000,-0.103000000000
18.634816078000,-0.111000000000
18.642503478000,-0.113000000000
18.650190878000,-0.101000000000
18.657878278000,-0.091000000000
18.665565678000,-0.098000000000
18.673253078000,-0.103000000000
18.680940478000,-0.098000000000
18.688627878000,-0.096000000000
18.696315278000,-0.103000000000
18.704002678000,-0.108000000000
18.711690078000,-0.103000000000
18.719377478000,-0.103000000000
18.727064878000,-0.108000000000
18.734752278000,-0.111000000000
18.742439678000,-0.111000000000
18.750127078000,-0.108000000000
18.757814478000,-0.106000000000
18.765501878000,-0.103000000000
18.773189278000,-0.101000000000
18.780876678000,-0.116000000000
18.788564078000,-0.123000000000
18.796251478000,-0.111000000000
18.803938919000,-0.101000000000
18.811626458000,-0.103000000000
18.819313997000,-0.108000000000
18.827001536000,-0.108000000000
18.834689075000,-0.111000000000
18.842376614000,-0.116000000000
18.850064153000,-0.118000000000
18.857751692000,-0.118000000000
18.865439231000,-0.111000000000
18.873126770000,-0.091000000000
18.880814309000,-0.076000000000
18.888501848000,-0.076000000000
18.896189387000,-0.081000000000
18.903876926000,-0.084000000000
18.911564465000,-0.096000000000
18.919252004000,-0.108000000000
18.926939543000,-0.116000000000
18.934627082000,-0.118000000000
18.942314621000,-0.113000000000
18.950002160000,-0.106000000000
18.957689699000,-0.108000000000
18.965377238000,-0.116000000000
18.973064777000,-0.126000000000
18.980752316000,-0.101000000000
18.988439855000,0.111000000000
18.996127394000,0.517000000000
19.003814933000,0.650000000000
19.011502472000,0.183000000000
19.019190011000,-0.385000000000
19.026877550000,-0.484000000000
19.034565089000,-0.314000000000
19.042252628000,-0.249000000000
19.049940167000,-0.210000000000
19.057627706000,-0.128000000000
19.065315245000,-0.121000000000
19.073002784000,-0.136000000000
19.080690323000,-0.108000000000
19.088377862000,-0.091000000000
19.096065401000,-0.094000000000
19.103752940000,-0.089000000000
19.111440479000,-0.084000000000
19.119128018000,-0.081000000000
19.126815557000,-0.071000000000
19.134503096000,-0.071000000000
19.142190635000,-0.084000000000
19.149878174000,-0.076000000000
19.157565713000,-0.056000000000
19.165253252000,-0.051000000000
19.172940791000,-0.051000000000
19.180628330000,-0.047000000000
19.188315869000,-0.034000000000
19.196003408000,-0.022000000000
19.203690947000,-0.009000000000
19.211378486000,-0.002000000000
19.219066025000,0.004000000000
19.226753564000,0.007000000000
19.234441103000,0.014000000000
19.242128642000,0.029000000000
19.249816181000,0.029000000000
19.257503720000,0.022000000000
19.265191259000,0.022000000000
19.272878798000,0.022000000000
19.280566337000,0.009000000000
19.288253876000,-0.017000000000
19.295941415000,-0.049000000000
19.303628954000,-0.079000000000
19.311316493000,-0.106000000000
19.319004032000,-0.136000000000
19.326691571000,-0.155000000000
19.334379110000,-0.163000000000
19.342066649000,-0.170000000000
19.349754188000,-0.180000000000
19.357441727000,-0.183000000000
19.365129334000,-0.175000000000
19.372816873000,-0.165000000000
19.380504412000,-0.163000000000
19.388191951000,-0.160000000000
19.395879490000,-0.150000000000
19.403567029000,-0.150000000000
19.411254568000,-0.153000000000
19.418942107000,-0.141000000000
19.426629646000,-0.136000000000
19.434317185000,-0.143000000000
19.442004724000,-0.145000000000
19.449692263000,-0.141000000000
19.457379802000,-0.138000000000
19.465067341000,-0.136000000000
19.472754880000,-0.133000000000
19.480442419000,-0.136000000000
19.488129958000,-0.143000000000
19.495817497000,-0.143000000000
19.503505036000,-0.136000000000
19.511192575000,-0.131000000000
19.518880114000,-0.138000000000
19.526567653000,-0.141000000000
19.534255192000,-0.133000000000
19.541942731000,-0.126000000000
19.549630270000,-0.128000000000
19.557317809000,-0.128000000000
19.565005348000,-0.126000000000
19.572692887000,-0.126000000000
19.580380426000,-0.126000000000
19.588067965000,-0.123000000000
19.595755504000,-0.126000000000
19.603443043000,-0.123000000000
19.611130582000,-0.111000000000
19.618818121000,-0.111000000000
19.626505660000,-0.121000000000
19.634193199000,-0.123000000000
19.641880738000,-0.121000000000
19.649568277000,-0.123000000000
19.657255816000,-0.121000000000
19.664943355000,-0.111000000000
19.672630894000,-0.094000000000
19.680318433000,-0.076000000000
19.688005972000,-0.074000000000
19.695693511000,-0.076000000000
19.703381050000,-0.081000000000
19.711068589000,-0.096000000000
19.718756128000,-0.101000000000
19.726443667000,-0.096000000000
19.734131206000,-0.096000000000
19.741818745000,-0.096000000000
19.749506284000,-0.098000000000
19.757193823000,-0.098000000000
19.764881362000,-0.096000000000
19.772568901000,-0.096000000000
19.780256440000,-0.096000000000
19.787943979000,0.014000000000
19.795631518000,0.371000000000
19.803319057000,0.677000000000
19.811006596000,0.425000000000
19.818694135000,-0.190000000000
19.826381674000,-0.477000000000
19.834069213000,-0.338000000000
19.841756752000,-0.220000000000
19.849444291000,-0.192000000000
19.857131830000,-0.121000000000
19.864819369000,-0.084000000000
19.872506908000,-0.096000000000
19.880194447000,-0.084000000000
19.887881986000,-0.069000000000
19.895569525000,-0.066000000000
19.903257064000,-0.054000000000
19.910944603000,-0.047000000000
19.918632142000,-0.047000000000
19.926319749000,-0.039000000000
19.934007288000,-0.034000000000
19.941694827000,-0.034000000000
19.949382366000,-0.032000000000
19.957069905000,-0.019000000000
19.964757444000,-0.012000000000
19.972444983000,-0.012000000000
19.980132522000,-0.007000000000
19.987820061000,0.000000000000
19.995507600000,0.007000000000
20.003195139000,0.022000000000
20.010882678000,0.032000000000
20.018570217000,0.037000000000
20.026257756000,0.049000000000
20.033945295000,0.061000000000
20.041632834000,0.066000000000
20.049320373000,0.069000000000
20.057007912000,0.074000000000
20.064695451000,0.069000000000
20.072382990000,0.064000000000
20.080070529000,0.059000000000
20.087758068000,0.044000000000
20.095445607000,0.019000000000
20.103133146000,-0.017000000000
20.110820685000,-0.047000000000
20.118508224000,-0.074000000000
20.126195763000,-0.098000000000
20.133883302000,-0.116000000000
20.141570841000,-0.128000000000
20.149258380000,-0.131000000000
20.156945919000,-0.126000000000
20.164633458000,-0.128000000000
20.172320997000,-0.131000000000
20.180008536000,-0.123000000000
20.187696075000,-0.116000000000
20.195383614000,-0.111000000000
20.203071153000,-0.108000000000
20.210758692000,-0.106000000000
20.218446231000,-0.096000000000
20.226133770000,-0.089000000000
20.233821309000,-0.094000000000
20.241508848000,-0.094000000000
20.249196387000,-0.089000000000
20.256883926000,-0.089000000000
20.264571465000,-0.091000000000
20.272259004000,-0.091000000000
20.279946543000,-0.096000000000
20.287634082000,-0.098000000000
20.295321621000,-0.094000000000
20.303009160000,-0.094000000000
20.310696699000,-0.103000000000
20.318384238000,-0.106000000000
20.326071777000,-0.094000000000
20.333759316000,-0.094000000000
20.341446855000,-0.103000000000
20.349134394000,-0.098000000000
20.356821933000,-0.096000000000
20.364509472000,-0.096000000000
20.372197011000,-0.091000000000
20.379884550000,-0.094000000000
20.387572089000,-0.103000000000
20.395259628000,-0.103000000000
20.402947167000,-0.096000000000
20.410634706000,-0.091000000000
20.418322245000,-0.081000000000
20.426009784000,-0.064000000000
20.433697323000,-0.059000000000
20.441384862000,-0.066000000000
20.449072401000,-0.066000000000
20.456759940000,-0.074000000000
20.464447479000,-0.089000000000
20.472135018000,-0.091000000000
20.479822557000,-0.096000000000
20.487510164000,-0.091000000000
20.495197703000,-0.086000000000
20.502885242000,-0.089000000000
20.510572781000,-0.091000000000
20.518260320000,-0.091000000000
20.525947859000,-0.096000000000
20.533635398000,-0.032000000000
20.541322937000,0.264000000000
20.549010476000,0.633000000000
20.556698015000,0.522000000000
20.564385554000,-0.089000000000
20.572073093000,-0.492000000000
20.579760632000,-0.403000000000
20.587448171000,-0.254000000000
20.595135710000,-0.232000000000
20.602823249000,-0.155000000000
20.610510788000,-0.074000000000
20.618198327000,-0.084000000000
20.625885866000,-0.089000000000
20.633573405000,-0.064000000000
20.641260944000,-0.059000000000
20.648948483000,-0.064000000000
20.656636022000,-0.054000000000
20.664323561000,-0.042000000000
20.672011100000,-0.044000000000
20.679698639000,-0.047000000000
20.687386178000,-0.039000000000
20.695073717000,-0.034000000000
20.702761256000,-0.029000000000
20.710448795000,-0.017000000000
20.718136334000,-0.007000000000
20.725823873000,-0.004000000000
20.733511412000,0.009000000000
20.741198951000,0.024000000000
20.748886490000,0.022000000000
20.756574029000,0.024000000000
20.764261568000,0.049000000000
20.771949107000,0.066000000000
20.779636646000,0.069000000000
20.787324185000,0.079000000000
20.795011724000,0.086000000000
20.802699263000,0.079000000000
20.810386802000,0.076000000000
20.818074341000,0.079000000000
20.825761880000,0.069000000000
20.833449419000,0.044000000000
20.841136958000,0.012000000000
20.848824497000,-0.032000000000
20.856512036000,-0.076000000000
20.864199575000,-0.108000000000
20.871887114000,-0.131000000000
20.879574653000,-0.155000000000
20.887262192000,-0.173000000000
20.894949731000,-0.173000000000
20.902637270000,-0.165000000000
20.910324809000,-0.163000000000
20.918012348000,-0.160000000000
20.925699887000,-0.158000000000
20.933387426000,-0.155000000000
20.941074965000,-0.150000000000
20.948762504000,-0.141000000000
20.956450043000,-0.131000000000
20.964137582000,-0.123000000000
20.971825121000,-0.121000000000
20.979512660000,-0.118000000000
20.987200199000,-0.113000000000
20.994887738000,-0.113000000000
21.002575277000,-0.113000000000
21.010262816000,-0.118000000000
21.017950355000,-0.123000000000
21.025637894000,-0.118000000000
21.033325433000,-0.121000000000
21.041012972000,-0.123000000000
21.048700583000,-0.116000000000
21.056388122000,-0.113000000000
21.064075661000,-0.118000000000
21.071763200000,-0.118000000000
21.079450739000,-0.111000000000
21.087138278000,-0.113000000000
21.094825817000,-0.116000000000
21.102513356000,-0.113000000000
21.110200895000,-0.108000000000
21.117888434000,-0.108000000000
21.125575973000,-0.111000000000
21.133263512000,-0.108000000000
21.140951051000,-0.111000000000
21.148638590000,-0.118000000000
21.156326129000,-0.116000000000
21.164013668000,-0.096000000000
21.171701207000,-0.074000000000
21.179388746000,-0.071000000000
21.187076285000,-0.069000000000
21.194763824000,-0.061000000000
21.202451363000,-0.066000000000
21.210138902000,-0.084000000000
21.217826441000,-0.091000000000
21.225513980000,-0.091000000000
21.233201519000,-0.091000000000
21.240889058000,-0.091000000000
21.248576597000,-0.089000000000
21.256264136000,-0.084000000000
21.263951675000,-0.084000000000
21.271639214000,-0.091000000000
21.279326753000,-0.054000000000
21.287014292000,0.183000000000
21.294701831000,0.583000000000
21.302389370000,0.638000000000
21.310076909000,0.081000000000
21.317764448000,-0.455000000000
21.325451987000,-0.457000000000
21.333139526000,-0.277000000000
21.340827065000,-0.244000000000
21.348514604000,-0.183000000000
21.356202143000,-0.069000000000
21.363889682000,-0.059000000000
21.371577221000,-0.079000000000
21.379264760000,-0.044000000000
21.386952299000,-0.027000000000
21.394639838000,-0.039000000000
21.402327377000,-0.034000000000
21.410014916000,-0.022000000000
21.417702455000,-0.019000000000
21.425389994000,-0.012000000000
21.433077533000,0.000000000000
21.440765072000,0.004000000000
21.448452611000,0.007000000000
21.456140150000,0.014000000000
21.463827689000,0.022000000000
21.471515228000,0.027000000000
21.479202767000,0.032000000000
21.486890306000,0.044000000000
21.494577845000,0.059000000000
21.502265384000,0.066000000000
21.509952923000,0.084000000000
21.517640462000,0.101000000000
21.525328001000,0.111000000000
21.533015540000,0.116000000000
21.540703079000,0.126000000000
21.548390618000,0.131000000000
21.556078157000,0.131000000000
21.563765696000,0.121000000000
21.571453235000,0.106000000000
21.579140774000,0.091000000000
21.586828313000,0.069000000000
21.594515852000,0.029000000000
21.602203391000,-0.009000000000
21.609890998000,-0.039000000000
21.617578537000,-0.074000000000
21.625266076000,-0.103000000000
21.632953615000,-0.121000000000
21.640641154000,-0.128000000000
21.648328693000,-0.131000000000
21.656016232000,-0.126000000000
21.663703771000,-0.121000000000
21.671391310000,-0.121000000000
21.679078849000,-0.111000000000
21.686766388000,-0.101000000000
21.694453927000,-0.091000000000
21.702141466000,-0.081000000000
21.709829005000,-0.076000000000
21.717516544000,-0.076000000000
21.725204083000,-0.074000000000
21.732891622000,-0.074000000000
21.740579161000,-0.066000000000
21.748266700000,-0.061000000000
21.755954239000,-0.074000000000
21.763641778000,-0.084000000000
21.771329317000,-0.076000000000
21.779016856000,-0.074000000000
21.786704395000,-0.076000000000
21.794391934000,-0.071000000000
21.802079473000,-0.069000000000
21.809767012000,-0.079000000000
21.817454551000,-0.079000000000
21.825142090000,-0.074000000000
21.832829629000,-0.071000000000
21.840517168000,-0.071000000000
21.848204707000,-0.069000000000
21.855892246000,-0.071000000000
21.863579785000,-0.069000000000
21.871267324000,-0.066000000000
21.878954863000,-0.066000000000
21.886642402000,-0.064000000000
21.894329941000,-0.061000000000
21.902017480000,-0.059000000000
21.909705019000,-0.054000000000
21.917392558000,-0.056000000000
21.925080097000,-0.056000000000
21.932767636000,-0.051000000000
21.940455175000,-0.051000000000
21.948142714000,-0.047000000000
21.955830253000,-0.044000000000
21.963517792000,-0.044000000000
21.971205331000,-0.044000000000
21.978892870000,-0.044000000000
21.986580409000,-0.049000000000
21.994267948000,-0.056000000000
22.001955487000,-0.054000000000
22.009643026000,-0.047000000000
22.017330565000,-0.029000000000
22.025018104000,-0.009000000000
22.032705643000,-0.012000000000
22.040393182000,-0.012000000000
22.048080721000,-0.007000000000
22.055768260000,-0.019000000000
22.063455799000,-0.034000000000
22.071143338000,-0.037000000000
22.078830877000,-0.034000000000
22.086518416000,-0.032000000000
22.094205955000,-0.032000000000
22.101893494000,-0.029000000000
22.109581033000,-0.029000000000
22.117268572000,-0.042000000000
22.124956111000,-0.051000000000
22.132643650000,0.014000000000
22.140331189000,0.299000000000
22.148018728000,0.700000000000
22.155706267000,0.702000000000
22.163393806000,0.143000000000
22.171081413000,-0.353000000000
22.178768952000,-0.351000000000
22.186456491000,-0.190000000000
22.194144030000,-0.158000000000
22.201831569000,-0.106000000000
22.209519108000,-0.037000000000
22.217206647000,-0.044000000000
22.224894186000,-0.051000000000
22.232581725000,-0.024000000000
22.240269264000,-0.014000000000
22.247956803000,-0.009000000000
22.255644342000,0.000000000000
22.263331881000,-0.002000000000
22.271019420000,-0.002000000000
22.278706959000,0.009000000000
22.286394498000,0.014000000000
22.294082037000,0.007000000000
22.301769576000,0.009000000000
22.309457115000,0.024000000000
22.317144654000,0.034000000000
22.324832193000,0.039000000000
22.332519732000,0.044000000000
22.340207271000,0.051000000000
22.347894810000,0.066000000000
22.355582349000,0.071000000000
22.363269888000,0.076000000000
22.370957427000,0.091000000000
22.378644966000,0.108000000000
22.386332505000,0.118000000000
22.394020044000,0.121000000000
22.401707583000,0.118000000000
22.409395122000,0.116000000000
22.417082661000,0.123000000000
22.424770200000,0.123000000000
22.432457739000,0.111000000000
22.440145278000,0.091000000000
22.447832817000,0.064000000000
22.455520356000,0.029000000000
22.463207895000,-0.002000000000
22.470895434000,-0.034000000000
22.478582973000,-0.064000000000
22.486270512000,-0.079000000000
22.493958051000,-0.084000000000
22.501645590000,-0.091000000000
22.509333129000,-0.098000000000
22.517020668000,-0.094000000000
22.524708207000,-0.086000000000
22.532395746000,-0.086000000000
22.540083285000,-0.081000000000
22.547770824000,-0.074000000000
22.555458363000,-0.074000000000
22.563145902000,-0.071000000000
22.570833441000,-0.066000000000
22.578520980000,-0.061000000000
22.586208519000,-0.056000000000
22.593896058000,-0.051000000000
22.601583597000,-0.051000000000
22.609271136000,-0.056000000000
22.616958675000,-0.059000000000
22.624646214000,-0.061000000000
22.632333753000,-0.066000000000
22.640021292000,-0.064000000000
22.647708831000,-0.059000000000
22.655396370000,-0.061000000000
22.663083909000,-0.069000000000
22.670771448000,-0.066000000000
22.678458987000,-0.061000000000
22.686146526000,-0.061000000000
22.693834065000,-0.061000000000
22.701521604000,-0.054000000000
22.709209143000,-0.056000000000
22.716896682000,-0.064000000000
22.724584221000,-0.064000000000
22.732271828000,-0.059000000000
22.739959367000,-0.056000000000
22.747646906000,-0.051000000000
22.755334445000,-0.049000000000
22.763021984000,-0.049000000000
22.770709523000,-0.054000000000
22.778397062000,-0.056000000000
22.786084601000,-0.056000000000
22.793772140000,-0.047000000000
22.801459679000,-0.044000000000
22.809147218000,-0.047000000000
22.816834757000,-0.047000000000
22.824522296000,-0.044000000000
22.832209835000,-0.047000000000
22.839897374000,-0.047000000000
22.847584913000,-0.042000000000
22.855272452000,-0.039000000000
22.862959991000,-0.047000000000
22.870647530000,-0.051000000000
22.878335069000,-0.047000000000
22.886022608000,-0.039000000000
22.893710147000,-0.034000000000
22.901397686000,-0.029000000000
22.909085225000,-0.019000000000
22.916772764000,-0.017000000000
22.924460303000,-0.012000000000
22.932147842000,-0.012000000000
22.939835381000,-0.027000000000
22.947522920000,-0.034000000000
22.955210459000,-0.037000000000
22.962897998000,-0.044000000000
22.970585537000,-0.047000000000
22.978273076000,-0.042000000000
22.985960615000,-0.044000000000
22.993648154000,-0.044000000000
23.001335693000,-0.049000000000
23.009023232000,-0.051000000000
23.016710771000,0.056000000000
23.024398310000,0.413000000000
23.032085849000,0.752000000000
23.039773388000,0.566000000000
23.047460927000,-0.039000000000
23.055148466000,-0.408000000000
23.062836005000,-0.316000000000
23.070523544000,-0.178000000000
23.078211083000,-0.160000000000
23.085898622000,-0.096000000000
23.093586161000,-0.039000000000
23.101273700000,-0.059000000000
23.108961239000,-0.059000000000
23.116648778000,-0.029000000000
23.124336317000,-0.019000000000
23.132023856000,-0.019000000000
23.139711395000,-0.014000000000
23.147398934000,-0.007000000000
23.155086473000,-0.004000000000
23.162774012000,0.000000000000
23.170461551000,0.004000000000
23.178149090000,0.009000000000
23.185836629000,0.012000000000
23.193524168000,0.017000000000
23.201211707000,0.024000000000
23.208899246000,0.027000000000
23.216586785000,0.032000000000
23.224274324000,0.039000000000
23.231961863000,0.049000000000
23.239649402000,0.064000000000
23.247336941000,0.081000000000
23.255024480000,0.089000000000
23.262712019000,0.089000000000
23.270399558000,0.101000000000
23.278087097000,0.116000000000
23.285774636000,0.116000000000
23.293462243000,0.106000000000
23.301149782000,0.098000000000
23.308837321000,0.098000000000
23.316524860000,0.089000000000
23.324212399000,0.074000000000
23.331899938000,0.047000000000
23.339587477000,0.002000000000
23.347275016000,-0.037000000000
23.354962555000,-0.054000000000
23.362650094000,-0.066000000000
23.370337633000,-0.089000000000
23.378025172000,-0.111000000000
23.385712711000,-0.113000000000
23.393400250000,-0.108000000000
23.401087789000,-0.106000000000
23.408775328000,-0.106000000000
23.416462867000,-0.098000000000
23.424150406000,-0.091000000000
23.431837945000,-0.094000000000
23.439525484000,-0.091000000000
23.447213023000,-0.074000000000
23.454900562000,-0.069000000000
23.462588101000,-0.081000000000
23.470275640000,-0.079000000000
23.477963179000,-0.071000000000
23.485650718000,-0.069000000000
23.493338257000,-0.071000000000
23.501025796000,-0.076000000000
23.508713335000,-0.076000000000
23.516400874000,-0.074000000000
23.524088413000,-0.074000000000
23.531775952000,-0.074000000000
23.539463491000,-0.074000000000
23.547151030000,-0.081000000000
23.554838569000,-0.084000000000
23.562526108000,-0.076000000000
23.570213647000,-0.074000000000
23.577901186000,-0.076000000000
23.585588725000,-0.076000000000
23.593276264000,-0.071000000000
23.600963803000,-0.066000000000
23.608651342000,-0.066000000000
23.616338881000,-0.071000000000
23.624026420000,-0.071000000000
23.631713959000,-0.066000000000
23.639401498000,-0.061000000000
23.647089037000,-0.061000000000
23.654776576000,-0.059000000000
23.662464115000,-0.059000000000
23.670151654000,-0.059000000000
23.677839193000,-0.054000000000
23.685526732000,-0.054000000000
23.693214271000,-0.059000000000
23.700901810000,-0.059000000000
23.708589349000,-0.059000000000
23.716276888000,-0.059000000000
23.723964427000,-0.064000000000
23.731651966000,-0.069000000000
23.739339505000,-0.064000000000
23.747027044000,-0.051000000000
23.754714583000,-0.032000000000
23.762402122000,-0.022000000000
23.770089661000,-0.027000000000
23.777777200000,-0.024000000000
23.785464739000,-0.024000000000
23.793152278000,-0.044000000000
23.800839817000,-0.054000000000
23.808527356000,-0.051000000000
23.816214895000,-0.051000000000
23.823902434000,-0.049000000000
23.831589973000,-0.051000000000
23.839277512000,-0.054000000000
23.846965051000,-0.051000000000
23.854652658000,-0.059000000000
23.862340197000,-0.059000000000
23.870027736000,0.089000000000
23.877715275000,0.475000000000
23.885402814000,0.749000000000
23.893090353000,0.445000000000
23.900777892000,-0.178000000000
23.908465431000,-0.442000000000
23.916152970000,-0.291000000000
23.923840509000,-0.185000000000
23.931528048000,-0.170000000000
23.939215587000,-0.086000000000
23.946903126000,-0.042000000000
23.954590665000,-0.064000000000
23.962278204000,-0.054000000000
23.969965743000,-0.027000000000
23.977653282000,-0.027000000000
23.985340821000,-0.019000000000
23.993028360000,-0.009000000000
24.000715899000,-0.012000000000
24.008403438000,-0.007000000000
24.016090977000,0.002000000000
24.023778516000,0.002000000000
24.031466055000,0.004000000000
24.039153594000,0.012000000000
24.046841133000,0.017000000000
24.054528672000,0.027000000000
24.062216211000,0.037000000000
24.069903750000,0.044000000000
24.077591289000,0.049000000000
24.085278828000,0.056000000000
24.092966367000,0.069000000000
24.100653906000,0.084000000000
24.108341445000,0.089000000000
24.116028984000,0.096000000000
24.123716523000,0.108000000000
24.131404062000,0.116000000000
24.139091601000,0.118000000000
24.146779140000,0.113000000000
24.154466679000,0.111000000000
24.162154218000,0.106000000000
24.169841757000,0.091000000000
24.177529296000,0.066000000000
24.185216835000,0.029000000000
24.192904374000,-0.012000000000
24.200591913000,-0.039000000000
24.208279452000,-0.059000000000
24.215966991000,-0.091000000000
24.223654530000,-0.111000000000
24.231342069000,-0.116000000000
24.239029608000,-0.128000000000
24.246717147000,-0.131000000000
24.254404686000,-0.121000000000
24.262092225000,-0.113000000000
24.269779764000,-0.108000000000
24.277467303000,-0.096000000000
24.285154842000,-0.094000000000
24.292842381000,-0.096000000000
24.300529920000,-0.084000000000
24.308217459000,-0.071000000000
24.315904998000,-0.079000000000
24.323592537000,-0.094000000000
24.331280076000,-0.089000000000
24.338967615000,-0.074000000000
24.346655154000,-0.084000000000
24.354342693000,-0.094000000000
24.362030232000,-0.086000000000
24.369717771000,-0.084000000000
24.377405310000,-0.086000000000
24.385092849000,-0.084000000000
24.392780388000,-0.084000000000
24.400467927000,-0.086000000000
24.408155466000,-0.084000000000
24.415843077000,-0.086000000000
24.423530616000,-0.084000000000
24.431218155000,-0.079000000000
24.438905694000,-0.079000000000
24.446593233000,-0.079000000000
24.454280772000,-0.081000000000
24.461968311000,-0.076000000000
24.469655850000,-0.069000000000
24.477343389000,-0.074000000000
24.485030928000,-0.076000000000
24.492718467000,-0.069000000000
24.500406006000,-0.064000000000
24.508093545000,-0.071000000000
24.515781084000,-0.074000000000
24.523468623000,-0.069000000000
24.531156162000,-0.066000000000
24.538843701000,-0.061000000000
24.546531240000,-0.056000000000
24.554218779000,-0.054000000000
24.561906318000,-0.061000000000
24.569593857000,-0.069000000000
24.577281396000,-0.066000000000
24.584968935000,-0.066000000000
24.592656474000,-0.064000000000
24.600344013000,-0.042000000000
24.608031552000,-0.022000000000
24.615719091000,-0.032000000000
24.623406630000,-0.029000000000
24.631094169000,-0.019000000000
24.638781708000,-0.034000000000
24.646469247000,-0.051000000000
24.654156786000,-0.047000000000
24.661844325000,-0.047000000000
24.669531864000,-0.059000000000
24.677219403000,-0.059000000000
24.684906942000,-0.047000000000
24.692594481000,-0.039000000000
24.700282020000,-0.044000000000
24.707969559000,-0.044000000000
24.715657098000,0.074000000000
24.723344637000,0.440000000000
24.731032176000,0.744000000000
24.738719715000,0.457000000000
24.746407254000,-0.197000000000
24.754094793000,-0.477000000000
24.761782332000,-0.324000000000
24.769469871000,-0.220000000000
24.777157410000,-0.202000000000
24.784844949000,-0.094000000000
24.792532488000,-0.027000000000
24.800220027000,-0.061000000000
24.807907566000,-0.056000000000
24.815595105000,-0.017000000000
24.823282644000,-0.017000000000
24.830970183000,-0.024000000000
24.838657722000,-0.014000000000
24.846345261000,-0.007000000000
24.854032800000,0.000000000000
24.861720339000,0.007000000000
24.869407878000,0.002000000000
24.877095417000,0.009000000000
24.884782956000,0.029000000000
24.892470495000,0.027000000000
24.900158034000,0.019000000000
24.907845573000,0.027000000000
24.915533112000,0.047000000000
24.923220651000,0.064000000000
24.930908190000,0.071000000000
24.938595729000,0.074000000000
24.946283268000,0.084000000000
24.953970807000,0.101000000000
24.961658346000,0.113000000000
24.969345885000,0.118000000000
24.977033492000,0.131000000000
24.984721031000,0.143000000000
24.992408570000,0.141000000000
25.000096109000,0.131000000000
25.007783648000,0.118000000000
25.015471187000,0.096000000000
25.023158726000,0.074000000000
25.030846265000,0.044000000000
25.038533804000,-0.002000000000
25.046221343000,-0.049000000000
25.053908882000,-0.076000000000
25.061596421000,-0.094000000000
25.069283960000,-0.111000000000
25.076971499000,-0.128000000000
25.084659038000,-0.136000000000
25.092346577000,-0.131000000000
25.100034116000,-0.128000000000
25.107721655000,-0.126000000000
25.115409194000,-0.116000000000
25.123096733000,-0.113000000000
25.130784272000,-0.108000000000
25.138471811000,-0.091000000000
25.146159350000,-0.084000000000
25.153846889000,-0.081000000000
25.161534428000,-0.074000000000
25.169221967000,-0.074000000000
25.176909506000,-0.081000000000
25.184597045000,-0.084000000000
25.192284584000,-0.086000000000
25.199972123000,-0.089000000000
25.207659662000,-0.086000000000
25.215347201000,-0.084000000000
25.223034740000,-0.084000000000
25.230722279000,-0.079000000000
25.238409818000,-0.081000000000
25.246097357000,-0.086000000000
25.253784896000,-0.091000000000
25.261472435000,-0.091000000000
25.269159974000,-0.086000000000
25.276847513000,-0.084000000000
25.284535052000,-0.084000000000
25.292222591000,-0.081000000000
25.299910130000,-0.074000000000
25.307597669000,-0.076000000000
25.315285208000,-0.079000000000
25.322972747000,-0.076000000000
25.330660286000,-0.079000000000
25.338347825000,-0.089000000000
25.346035364000,-0.084000000000
25.353722903000,-0.066000000000
25.361410442000,-0.042000000000
25.369097981000,-0.032000000000
25.376785520000,-0.034000000000
25.384473059000,-0.032000000000
25.392160598000,-0.042000000000
25.399848137000,-0.059000000000
25.407535676000,-0.059000000000
25.415223215000,-0.056000000000
25.422910754000,-0.064000000000
25.430598293000,-0.061000000000
25.438285832000,-0.054000000000
25.445973371000,-0.051000000000
25.453660910000,-0.056000000000
25.461348449000,-0.064000000000
25.469035988000,-0.009000000000
25.476723527000,0.262000000000
25.484411066000,0.687000000000
25.492098605000,0.685000000000
25.499786144000,0.034000000000
25.507473683000,-0.494000000000
25.515161222000,-0.418000000000
25.522848761000,-0.237000000000
25.530536300000,-0.247000000000
25.538223907000,-0.180000000000
25.545911307000,-0.051000000000
25.553598707000,-0.037000000000
25.561286107000,-0.054000000000
25.568973507000,-0.027000000000
25.576660907000,-0.012000000000
25.584348307000,-0.014000000000
25.592035707000,-0.007000000000
25.599723107000,-0.002000000000
25.607410507000,-0.004000000000
25.615097907000,-0.002000000000
25.622785307000,0.009000000000
25.630472707000,0.012000000000
25.638160107000,0.019000000000
25.645847507000,0.029000000000
25.653534907000,0.029000000000
25.661222307000,0.029000000000
25.668909707000,0.039000000000
25.676597107000,0.047000000000
25.684284507000,0.054000000000
25.691971907000,0.069000000000
25.699659307000,0.081000000000
25.707346707000,0.086000000000
25.715034107000,0.101000000000
25.722721507000,0.118000000000
25.730408907000,0.118000000000
25.738096307000,0.118000000000
25.745783707000,0.118000000000
25.753471107000,0.113000000000
25.761158507000,0.106000000000
25.768845907000,0.094000000000
25.776533307000,0.064000000000
25.784220707000,0.024000000000
25.791908107000,-0.019000000000
25.799595507000,-0.064000000000
25.807282907000,-0.098000000000
25.814970307000,-0.121000000000
25.822657707000,-0.141000000000
25.830345107000,-0.165000000000
25.838032507000,-0.175000000000
25.845719907000,-0.173000000000
25.853407307000,-0.168000000000
25.861094707000,-0.165000000000
25.868782107000,-0.158000000000
25.876469507000,-0.148000000000
25.884156907000,-0.141000000000
25.891844307000,-0.143000000000
25.899531707000,-0.143000000000
25.907219107000,-0.136000000000
25.914906507000,-0.131000000000
25.922593907000,-0.133000000000
25.930281307000,-0.136000000000
25.937968707000,-0.131000000000
25.945656107000,-0.136000000000
25.953343507000,-0.148000000000
25.961030907000,-0.143000000000
25.968718307000,-0.141000000000
25.976405707000,-0.153000000000
25.984093107000,-0.155000000000
25.991780507000,-0.148000000000
25.999467907000,-0.150000000000
26.007155307000,-0.155000000000
26.014842707000,-0.158000000000
26.022530107000,-0.153000000000
26.030217507000,-0.153000000000
26.037904907000,-0.158000000000
26.045592307000,-0.155000000000
26.053279707000,-0.150000000000
26.060967107000,-0.150000000000
26.068654507000,-0.150000000000
26.076341907000,-0.150000000000
26.084029307000,-0.153000000000
26.091716707000,-0.158000000000
26.099404152000,-0.163000000000
26.107091761000,-0.158000000000
26.114779370000,-0.136000000000
26.122466979000,-0.116000000000
26.130154588000,-0.123000000000
26.137842197000,-0.123000000000
26.145529806000,-0.108000000000
26.153217415000,-0.113000000000
26.160905024000,-0.136000000000
26.168592633000,-0.141000000000
26.176280242000,-0.138000000000
26.183967851000,-0.143000000000
26.191655460000,-0.136000000000
26.199343069000,-0.126000000000
26.207030678000,-0.133000000000
26.214718287000,-0.145000000000
26.222405896000,-0.148000000000
26.230093505000,-0.091000000000
26.237781114000,0.183000000000
26.245468723000,0.613000000000
26.253156332000,0.677000000000
26.260843941000,0.133000000000
26.268531550000,-0.427000000000
26.276219159000,-0.467000000000
26.283906768000,-0.279000000000
26.291594377000,-0.235000000000
26.299281986000,-0.202000000000
26.306969595000,-0.128000000000
26.314657204000,-0.121000000000
26.322344813000,-0.123000000000
26.330032422000,-0.096000000000
26.337720031000,-0.096000000000
26.345407640000,-0.103000000000
26.353095249000,-0.089000000000
26.360782858000,-0.079000000000
26.368470467000,-0.079000000000
26.376158076000,-0.069000000000
26.383845685000,-0.061000000000
26.391533294000,-0.059000000000
26.399220903000,-0.059000000000
26.406908512000,-0.049000000000
26.414596121000,-0.037000000000
26.422283730000,-0.029000000000
26.429971339000,-0.029000000000
26.437658948000,-0.027000000000
26.445346557000,-0.012000000000
26.453034166000,0.004000000000
26.460721775000,0.012000000000
26.468409384000,0.024000000000
26.476096993000,0.042000000000
26.483784602000,0.051000000000
26.491472211000,0.059000000000
26.499159820000,0.066000000000
26.506847429000,0.069000000000
26.514535038000,0.071000000000
26.522222647000,0.064000000000
26.529910256000,0.051000000000
26.537597865000,0.037000000000
26.545285474000,0.002000000000
26.552973083000,-0.042000000000
26.560660692000,-0.076000000000
26.568348301000,-0.096000000000
26.576035910000,-0.123000000000
26.583723519000,-0.145000000000
26.591411128000,-0.153000000000
26.599098737000,-0.155000000000
26.606786346000,-0.165000000000
26.614473955000,-0.160000000000
26.622161564000,-0.148000000000
26.629849173000,-0.143000000000
26.637536782000,-0.145000000000
26.645224391000,-0.145000000000
26.652912000000,-0.138000000000
26.660599654000,-0.131000000000
26.668287263000,-0.128000000000
26.675974872000,-0.126000000000
26.683662481000,-0.126000000000
26.691350090000,-0.128000000000
26.699037699000,-0.126000000000
26.706725308000,-0.123000000000
26.714412917000,-0.121000000000
26.722100526000,-0.123000000000
26.729788135000,-0.121000000000
26.737475744000,-0.118000000000
26.745163353000,-0.126000000000
26.752850962000,-0.131000000000
26.760538571000,-0.126000000000
26.768226180000,-0.123000000000
26.775913789000,-0.123000000000
26.783601398000,-0.121000000000
26.791289007000,-0.116000000000
26.798976616000,-0.113000000000
26.806664225000,-0.113000000000
26.814351834000,-0.116000000000
26.822039443000,-0.121000000000
26.829727052000,-0.126000000000
26.837414661000,-0.126000000000
26.845102270000,-0.123000000000
26.852789879000,-0.106000000000
26.860477488000,-0.081000000000
26.868165097000,-0.064000000000
26.875852706000,-0.071000000000
26.883540315000,-0.076000000000
26.891227924000,-0.071000000000
26.898915533000,-0.079000000000
26.906603142000,-0.091000000000
26.914290751000,-0.094000000000
26.921978360000,-0.098000000000
26.929665969000,-0.098000000000
26.937353578000,-0.089000000000
26.945041187000,-0.084000000000
26.952728796000,-0.084000000000
26.960416405000,-0.091000000000
26.968104014000,-0.098000000000
26.975791623000,0.012000000000
26.983479232000,0.371000000000
26.991166841000,0.712000000000
26.998854450000,0.517000000000
27.006542059000,-0.108000000000
27.014229668000,-0.470000000000
27.021917277000,-0.366000000000
27.029604886000,-0.227000000000
27.037292495000,-0.197000000000
27.044980104000,-0.121000000000
27.052667713000,-0.066000000000
27.060355322000,-0.086000000000
27.068042931000,-0.084000000000
27.075730540000,-0.054000000000
27.083418149000,-0.049000000000
27.091105758000,-0.049000000000
27.098793367000,-0.034000000000
27.106480976000,-0.029000000000
27.114168585000,-0.032000000000
27.121856194000,-0.032000000000
27.129543803000,-0.024000000000
27.137231412000,-0.012000000000
27.144919021000,0.000000000000
27.152606630000,0.004000000000
27.160294239000,0.009000000000
27.167981848000,0.019000000000
27.175669457000,0.029000000000
27.183357066000,0.034000000000
27.191044675000,0.042000000000
27.198732284000,0.056000000000
27.206419893000,0.069000000000
27.214107502000,0.081000000000
27.221795156000,0.094000000000
27.229482695000,0.108000000000
27.237170234000,0.111000000000
27.244857773000,0.108000000000
27.252545312000,0.113000000000
27.260232851000,0.113000000000
27.267920390000,0.098000000000
27.275607929000,0.076000000000
27.283295468000,0.049000000000
27.290983007000,0.012000000000
27.298670546000,-0.029000000000
27.306358085000,-0.061000000000
27.314045624000,-0.084000000000
27.321733163000,-0.106000000000
27.329420702000,-0.128000000000
27.337108241000,-0.141000000000
27.344795780000,-0.136000000000
27.352483319000,-0.126000000000
27.360170858000,-0.118000000000
27.367858397000,-0.118000000000
27.375545936000,-0.113000000000
27.383233475000,-0.108000000000
27.390921014000,-0.108000000000
27.398608553000,-0.103000000000
27.406296092000,-0.094000000000
27.413983631000,-0.089000000000
27.421671170000,-0.086000000000
27.429358709000,-0.081000000000
27.437046248000,-0.076000000000
27.444733787000,-0.071000000000
27.452421326000,-0.076000000000
27.460108865000,-0.079000000000
27.467796404000,-0.074000000000
27.475483943000,-0.069000000000
27.483171482000,-0.071000000000
27.490859021000,-0.076000000000
27.498546560000,-0.076000000000
27.506234099000,-0.074000000000
27.513921638000,-0.076000000000
27.521609177000,-0.079000000000
27.529296716000,-0.071000000000
27.536984255000,-0.064000000000
27.544671794000,-0.066000000000
27.552359333000,-0.074000000000
27.560046872000,-0.074000000000
27.567734411000,-0.074000000000
27.575421950000,-0.079000000000
27.583109489000,-0.069000000000
27.590797028000,-0.044000000000
27.598484567000,-0.034000000000
27.606172106000,-0.037000000000
27.613859645000,-0.029000000000
27.621547184000,-0.027000000000
27.629234723000,-0.042000000000
27.636922262000,-0.054000000000
27.644609801000,-0.061000000000
27.652297340000,-0.066000000000
27.659984879000,-0.061000000000
27.667672418000,-0.051000000000
27.675359957000,-0.049000000000
27.683047496000,-0.056000000000
27.690735035000,-0.066000000000
27.698422574000,-0.059000000000
27.706110113000,0.086000000000
27.713797652000,0.475000000000
27.721485191000,0.749000000000
27.729172730000,0.385000000000
27.736860269000,-0.289000000000
27.744547808000,-0.504000000000
27.752235347000,-0.309000000000
27.759922886000,-0.215000000000
27.767610425000,-0.190000000000
27.775297964000,-0.074000000000
27.782985571000,-0.019000000000
27.790673110000,-0.039000000000
27.798360649000,-0.017000000000
27.806048188000,0.004000000000
27.813735727000,-0.002000000000
27.821423266000,0.002000000000
27.829110805000,0.014000000000
27.836798344000,0.014000000000
27.844485883000,0.019000000000
27.852173422000,0.027000000000
27.859860961000,0.027000000000
27.867548500000,0.034000000000
27.875236039000,0.047000000000
27.882923578000,0.049000000000
27.890611117000,0.049000000000
27.898298656000,0.066000000000
27.905986195000,0.086000000000
27.913673734000,0.089000000000
27.921361273000,0.091000000000
27.929048812000,0.111000000000
27.936736351000,0.133000000000
27.944423890000,0.143000000000
27.952111429000,0.155000000000
27.959798968000,0.175000000000
27.967486507000,0.183000000000
27.975174046000,0.183000000000
27.982861585000,0.175000000000
27.990549124000,0.163000000000
27.998236663000,0.155000000000
28.005924202000,0.133000000000
28.013611741000,0.094000000000
28.021299280000,0.059000000000
28.028986819000,0.019000000000
28.036674358000,-0.027000000000
28.044361897000,-0.066000000000
28.052049436000,-0.084000000000
28.059736975000,-0.096000000000
28.067424514000,-0.108000000000
28.075112053000,-0.113000000000
28.082799592000,-0.111000000000
28.090487131000,-0.103000000000
28.098174670000,-0.094000000000
28.105862209000,-0.089000000000
28.113549748000,-0.084000000000
28.121237287000,-0.071000000000
28.128924826000,-0.056000000000
28.136612365000,-0.047000000000
28.144299904000,-0.047000000000
28.151987443000,-0.044000000000
28.159674982000,-0.044000000000
28.167362521000,-0.044000000000
28.175050060000,-0.039000000000
28.182737599000,-0.034000000000
28.190425138000,-0.047000000000
28.198112677000,-0.059000000000
28.205800216000,-0.061000000000
28.213487755000,-0.064000000000
28.221175294000,-0.066000000000
28.228862833000,-0.054000000000
28.236550372000,-0.049000000000
28.244237911000,-0.059000000000
28.251925450000,-0.059000000000
28.259612989000,-0.054000000000
28.267300528000,-0.059000000000
28.274988067000,-0.066000000000
28.282675606000,-0.069000000000
28.290363145000,-0.049000000000
28.298050684000,-0.032000000000
28.305738223000,-0.029000000000
28.313425762000,-0.014000000000
28.321113301000,-0.007000000000
28.328800840000,-0.029000000000
28.336488379000,-0.044000000000
28.344175986000,-0.039000000000
28.351863525000,-0.039000000000
28.359551064000,-0.039000000000
28.367238603000,-0.027000000000
28.374926142000,-0.029000000000
28.382613681000,-0.042000000000
28.390301220000,-0.049000000000
28.397988759000,-0.049000000000
28.405676298000,0.029000000000
28.413363837000,0.351000000000
28.421051376000,0.744000000000
28.428738915000,0.628000000000
28.436426454000,-0.049000000000
28.444113993000,-0.494000000000
28.451801532000,-0.371000000000
28.459489071000,-0.207000000000
28.467176610000,-0.205000000000
28.474864149000,-0.113000000000
28.482551688000,-0.012000000000
28.490239227000,-0.027000000000
28.497926766000,-0.029000000000
28.505614305000,0.007000000000
28.513301844000,0.009000000000
28.520989383000,-0.002000000000
28.528676922000,0.014000000000
28.536364461000,0.029000000000
28.544052000000,0.027000000000
28.551739539000,0.027000000000
28.559427078000,0.032000000000
28.567114617000,0.037000000000
28.574802156000,0.047000000000
28.582489695000,0.051000000000
28.590177234000,0.051000000000
28.597864773000,0.056000000000
28.605552312000,0.074000000000
28.613239851000,0.086000000000
28.620927390000,0.094000000000
28.628614929000,0.098000000000
28.636302468000,0.111000000000
28.643990007000,0.128000000000
28.651677546000,0.138000000000
28.659365085000,0.148000000000
28.667052624000,0.160000000000
28.674740163000,0.163000000000
28.682427702000,0.160000000000
28.690115241000,0.160000000000
28.697802780000,0.150000000000
28.705490319000,0.123000000000
28.713177858000,0.091000000000
28.720865397000,0.056000000000
28.728552936000,0.012000000000
28.736240475000,-0.032000000000
28.743928014000,-0.061000000000
28.751615553000,-0.081000000000
28.759303092000,-0.096000000000
28.766990631000,-0.108000000000
28.774678170000,-0.108000000000
28.782365709000,-0.101000000000
28.790053248000,-0.098000000000
28.797740787000,-0.103000000000
28.805428326000,-0.098000000000
28.813115865000,-0.089000000000
28.820803404000,-0.079000000000
28.828490943000,-0.069000000000
28.836178482000,-0.064000000000
28.843866021000,-0.069000000000
28.851553560000,-0.064000000000
28.859241099000,-0.059000000000
28.866928638000,-0.059000000000
28.874616177000,-0.054000000000
28.882303716000,-0.059000000000
28.889991255000,-0.064000000000
28.897678794000,-0.054000000000
28.905366401000,-0.056000000000
28.913053940000,-0.074000000000
28.920741479000,-0.076000000000
28.928429018000,-0.061000000000
28.936116557000,-0.064000000000
28.943804096000,-0.071000000000
28.951491635000,-0.066000000000
28.959179174000,-0.066000000000
28.966866713000,-0.066000000000
28.974554252000,-0.059000000000
28.982241791000,-0.056000000000
28.989929330000,-0.056000000000
28.997616869000,-0.047000000000
29.005304408000,-0.049000000000
29.012991947000,-0.059000000000
29.020679486000,-0.056000000000
29.028367025000,-0.054000000000
29.036054564000,-0.061000000000
29.043742103000,-0.066000000000
29.051429642000,-0.061000000000
29.059117181000,-0.061000000000
29.066804720000,-0.059000000000
29.074492259000,-0.042000000000
29.082179798000,-0.027000000000
29.089867337000,-0.024000000000
29.097554876000,-0.017000000000
29.105242415000,-0.012000000000
29.112929954000,-0.024000000000
29.120617493000,-0.042000000000
29.128305032000,-0.042000000000
29.135992571000,-0.039000000000
29.143680110000,-0.044000000000
29.151367649000,-0.039000000000
29.159055188000,-0.032000000000
29.166742727000,-0.037000000000
29.174430266000,-0.044000000000
29.182117805000,-0.056000000000
29.189805344000,-0.027000000000
29.197492883000,0.215000000000
29.205180422000,0.653000000000
29.212867961000,0.784000000000
29.220555500000,0.282000000000
29.228243039000,-0.314000000000
29.235930578000,-0.395000000000
29.243618117000,-0.205000000000
29.251305656000,-0.158000000000
29.258993195000,-0.131000000000
29.266680734000,-0.049000000000
29.274368273000,-0.044000000000
29.282055812000,-0.061000000000
29.289743351000,-0.034000000000
29.297430890000,-0.019000000000
29.305118429000,-0.024000000000
29.312805968000,-0.014000000000
29.320493507000,-0.004000000000
29.328181046000,-0.007000000000
29.335868585000,-0.007000000000
29.343556124000,0.002000000000
29.351243663000,0.009000000000
29.358931202000,0.009000000000
