time,LSB
0.000000000000,1.435000000000
0.007687888000,1.917000000000
0.015375776000,1.267000000000
0.023063664000,-0.115000000000
0.030751552000,-0.603000000000
0.038439440000,-0.182000000000
0.046127328000,-0.118000000000
0.053815216000,-0.295000000000
0.061503104000,-0.214000000000
0.069190992000,-0.140000000000
0.076878880000,-0.184000000000
0.084566768000,-0.160000000000
0.092254656000,-0.110000000000
0.099942544000,-0.110000000000
0.107630432000,-0.098000000000
0.115318320000,-0.064000000000
0.123006208000,-0.051000000000
0.130694096000,-0.044000000000
0.138381984000,-0.014000000000
0.146069872000,0.017000000000
0.153757760000,0.036000000000
0.161445648000,0.061000000000
0.169133536000,0.096000000000
0.176821424000,0.130000000000
0.184509312000,0.162000000000
0.192197200000,0.206000000000
0.199885088000,0.246000000000
0.207572976000,0.258000000000
0.215260864000,0.260000000000
0.222948752000,0.260000000000
0.230636640000,0.260000000000
0.238324528000,0.246000000000
0.246012416000,0.204000000000
0.253700304000,0.132000000000
0.261388192000,0.051000000000
0.269076080000,-0.039000000000
0.276763968000,-0.123000000000
0.284451856000,-0.182000000000
0.292139744000,-0.221000000000
0.299827632000,-0.251000000000
0.307515520000,-0.258000000000
0.315203408000,-0.248000000000
0.322891296000,-0.248000000000
0.330579184000,-0.241000000000
0.338267072000,-0.219000000000
0.345954960000,-0.206000000000
0.353642848000,-0.201000000000
0.361330736000,-0.184000000000
0.369018624000,-0.169000000000
0.376706512000,-0.164000000000
0.384394400000,-0.160000000000
0.392082288000,-0.147000000000
0.399770176000,-0.145000000000
0.407458064000,-0.145000000000
0.415145978000,-0.135000000000
0.422833587000,-0.132000000000
0.430521196000,-0.130000000000
0.438208805000,-0.120000000000
0.445896414000,-0.118000000000
0.453584023000,-0.123000000000
0.461271632000,-0.120000000000
0.468959241000,-0.125000000000
0.476646850000,-0.125000000000
0.484334459000,-0.115000000000
0.492022068000,-0.115000000000
0.499709677000,-0.115000000000
0.507397286000,-0.105000000000
0.515084895000,-0.096000000000
0.522772504000,-0.103000000000
0.530460113000,-0.115000000000
0.538147722000,-0.103000000000
0.545835331000,-0.093000000000
0.553522940000,-0.108000000000
0.561210549000,-0.118000000000
0.568898158000,-0.110000000000
0.576585767000,-0.103000000000
0.584273376000,-0.083000000000
0.591960985000,-0.071000000000
0.599648594000,-0.081000000000
0.607336203000,-0.071000000000
0.615023812000,-0.046000000000
0.622711421000,-0.066000000000
0.630399030000,-0.098000000000
0.638086639000,-0.098000000000
0.645774248000,-0.091000000000
0.653461857000,-0.081000000000
0.661149466000,-0.071000000000
0.668837075000,-0.078000000000
0.676524684000,-0.083000000000
0.684212293000,-0.071000000000
0.691899902000,-0.081000000000
0.699587511000,-0.130000000000
0.707275120000,-0.211000000000
0.714962729000,-0.236000000000
0.722650338000,0.110000000000
0.730337947000,0.935000000000
0.738025556000,1.765000000000
0.745713165000,1.819000000000
0.753400774000,0.691000000000
0.761088383000,-0.499000000000
0.768775992000,-0.465000000000
0.776463601000,-0.081000000000
0.784151210000,-0.201000000000
0.791838819000,-0.258000000000
0.799526428000,-0.135000000000
0.807214037000,-0.147000000000
0.814901646000,-0.174000000000
0.822589255000,-0.118000000000
0.830276864000,-0.093000000000
0.837964473000,-0.096000000000
0.845652082000,-0.073000000000
0.853339691000,-0.049000000000
0.861027300000,-0.027000000000
0.868714909000,-0.002000000000
0.876402518000,0.012000000000
0.884090127000,0.034000000000
0.891777736000,0.071000000000
0.899465345000,0.100000000000
0.907152954000,0.120000000000
0.914840563000,0.155000000000
0.922528172000,0.196000000000
0.930215781000,0.231000000000
0.937903390000,0.256000000000
0.945590999000,0.268000000000
0.953278608000,0.275000000000
0.960966217000,0.273000000000
0.968653826000,0.256000000000
0.976341476000,0.224000000000
0.984029434000,0.167000000000
0.991717392000,0.088000000000
0.999405350000,-0.007000000000
1.007093308000,-0.103000000000
1.014781266000,-0.182000000000
1.022469224000,-0.231000000000
1.030157182000,-0.253000000000
1.037845140000,-0.265000000000
1.045533098000,-0.270000000000
1.053221056000,-0.263000000000
1.060909014000,-0.256000000000
1.068596972000,-0.246000000000
1.076284930000,-0.226000000000
1.083972888000,-0.216000000000
1.091660846000,-0.211000000000
1.099348804000,-0.196000000000
1.107036762000,-0.184000000000
1.114724720000,-0.179000000000
1.122412678000,-0.172000000000
1.130100636000,-0.167000000000
1.137788594000,-0.160000000000
1.145476552000,-0.152000000000
1.153164510000,-0.147000000000
1.160852468000,-0.142000000000
1.168540426000,-0.140000000000
1.176228384000,-0.140000000000
1.183916342000,-0.140000000000
1.191604300000,-0.135000000000
1.199292258000,-0.135000000000
1.206980216000,-0.135000000000
1.214668174000,-0.132000000000
1.222356132000,-0.130000000000
1.230044090000,-0.130000000000
1.237732048000,-0.132000000000
1.245420006000,-0.135000000000
1.253107964000,-0.128000000000
1.260795922000,-0.120000000000
1.268483880000,-0.123000000000
1.276171838000,-0.125000000000
1.283859796000,-0.125000000000
1.291547754000,-0.128000000000
1.299235712000,-0.132000000000
1.306923670000,-0.130000000000
1.314611628000,-0.115000000000
1.322299586000,-0.103000000000
1.329987544000,-0.100000000000
1.337675502000,-0.093000000000
1.345363460000,-0.078000000000
1.353051418000,-0.078000000000
1.360739376000,-0.098000000000
1.368427334000,-0.118000000000
1.376115292000,-0.115000000000
1.383803250000,-0.103000000000
1.391491208000,-0.100000000000
1.399179166000,-0.100000000000
1.406867124000,-0.096000000000
1.414555082000,-0.096000000000
1.422243040000,-0.108000000000
1.429930998000,-0.150000000000
1.437618956000,-0.236000000000
1.445306914000,-0.251000000000
1.452994872000,0.123000000000
1.460682830000,0.942000000000
1.468370788000,1.750000000000
1.476058746000,1.787000000000
1.483746704000,0.640000000000
1.491434662000,-0.526000000000
1.499122620000,-0.465000000000
1.506810578000,-0.091000000000
1.514498536000,-0.226000000000
1.522186494000,-0.292000000000
1.529874452000,-0.164000000000
1.537562413000,-0.169000000000
1.545250092000,-0.199000000000
1.552937771000,-0.147000000000
1.560625450000,-0.123000000000
1.568313129000,-0.125000000000
1.576000808000,-0.098000000000
1.583688487000,-0.071000000000
1.591376166000,-0.064000000000
1.599063845000,-0.044000000000
1.606751524000,-0.017000000000
1.614439203000,0.002000000000
1.622126882000,0.024000000000
1.629814561000,0.054000000000
1.637502240000,0.083000000000
1.645189919000,0.113000000000
1.652877598000,0.147000000000
1.660565277000,0.184000000000
1.668252956000,0.209000000000
1.675940635000,0.224000000000
1.683628314000,0.231000000000
1.691315993000,0.224000000000
1.699003672000,0.206000000000
1.706691351000,0.187000000000
1.714379030000,0.147000000000
1.722066709000,0.071000000000
1.729754388000,-0.022000000000
1.737442067000,-0.110000000000
1.745129746000,-0.177000000000
1.752817425000,-0.224000000000
1.760505104000,-0.251000000000
1.768192783000,-0.260000000000
1.775880462000,-0.260000000000
1.783568141000,-0.253000000000
1.791255820000,-0.241000000000
1.798943499000,-0.233000000000
1.806631178000,-0.224000000000
1.814318857000,-0.211000000000
1.822006536000,-0.199000000000
1.829694215000,-0.189000000000
1.837381894000,-0.179000000000
1.845069573000,-0.167000000000
1.852757252000,-0.160000000000
1.860444931000,-0.155000000000
1.868132610000,-0.150000000000
1.875820289000,-0.145000000000
1.883507968000,-0.145000000000
1.891195647000,-0.140000000000
1.898883326000,-0.137000000000
1.906571005000,-0.140000000000
1.914258684000,-0.137000000000
1.921946363000,-0.130000000000
1.929634042000,-0.130000000000
1.937321721000,-0.132000000000
1.945009400000,-0.125000000000
1.952697079000,-0.125000000000
1.960384758000,-0.128000000000
1.968072437000,-0.125000000000
1.975760116000,-0.120000000000
1.983447795000,-0.118000000000
1.991135474000,-0.115000000000
1.998823153000,-0.113000000000
2.006510832000,-0.108000000000
2.014198511000,-0.108000000000
2.021886190000,-0.115000000000
2.029573869000,-0.123000000000
2.037261548000,-0.123000000000
2.044949227000,-0.113000000000
2.052636906000,-0.098000000000
2.060324585000,-0.088000000000
2.068012264000,-0.088000000000
2.075699943000,-0.076000000000
2.083387622000,-0.064000000000
2.091075301000,-0.076000000000
2.098763002000,-0.098000000000
2.106450611000,-0.105000000000
2.114138220000,-0.098000000000
2.121825829000,-0.093000000000
2.129513438000,-0.088000000000
2.137201047000,-0.086000000000
2.144888656000,-0.083000000000
2.152576265000,-0.083000000000
2.160263874000,-0.105000000000
2.167951483000,-0.174000000000
2.175639092000,-0.258000000000
2.183326701000,-0.128000000000
2.191014310000,0.480000000000
2.198701919000,1.371000000000
2.206389528000,1.910000000000
2.214077137000,1.351000000000
2.221764746000,-0.024000000000
2.229452355000,-0.615000000000
2.237139964000,-0.224000000000
2.244827573000,-0.110000000000
2.252515182000,-0.288000000000
2.260202791000,-0.226000000000
2.267890400000,-0.145000000000
2.275578009000,-0.184000000000
2.283265618000,-0.167000000000
2.290953227000,-0.118000000000
2.298640836000,-0.115000000000
2.306328445000,-0.108000000000
2.314016054000,-0.076000000000
2.321703663000,-0.056000000000
2.329391272000,-0.044000000000
2.337078881000,-0.024000000000
2.344766490000,0.000000000000
2.352454099000,0.022000000000
2.360141708000,0.049000000000
2.367829317000,0.083000000000
2.375516926000,0.115000000000
2.383204535000,0.147000000000
2.390892144000,0.182000000000
2.398579753000,0.216000000000
2.406267362000,0.241000000000
2.413954971000,0.253000000000
2.421642580000,0.253000000000
2.429330189000,0.243000000000
2.437017798000,0.224000000000
2.444705407000,0.189000000000
2.452393016000,0.128000000000
2.460080625000,0.041000000000
2.467768234000,-0.049000000000
2.475455843000,-0.130000000000
2.483143452000,-0.196000000000
2.490831061000,-0.236000000000
2.498518670000,-0.253000000000
2.506206279000,-0.256000000000
2.513893888000,-0.258000000000
2.521581497000,-0.248000000000
2.529269106000,-0.233000000000
2.536956715000,-0.224000000000
2.544644324000,-0.214000000000
2.552331933000,-0.201000000000
2.560019542000,-0.192000000000
2.567707151000,-0.182000000000
2.575394760000,-0.172000000000
2.583082369000,-0.162000000000
2.590769978000,-0.157000000000
2.598457587000,-0.152000000000
2.606145196000,-0.147000000000
2.613832805000,-0.145000000000
2.621520414000,-0.142000000000
2.629208023000,-0.140000000000
2.636895632000,-0.137000000000
2.644583241000,-0.137000000000
2.652270850000,-0.135000000000
2.659958504000,-0.135000000000
2.667646252000,-0.132000000000
2.675334000000,-0.132000000000
2.683021748000,-0.130000000000
2.690709496000,-0.128000000000
2.698397244000,-0.123000000000
2.706084992000,-0.123000000000
2.713772740000,-0.123000000000
2.721460488000,-0.120000000000
2.729148236000,-0.115000000000
2.736835984000,-0.110000000000
2.744523732000,-0.113000000000
2.752211480000,-0.110000000000
2.759899228000,-0.113000000000
2.767586976000,-0.120000000000
2.775274724000,-0.125000000000
2.782962472000,-0.120000000000
2.790650220000,-0.103000000000
2.798337968000,-0.093000000000
2.806025716000,-0.091000000000
2.813713464000,-0.081000000000
2.821401212000,-0.066000000000
2.829088960000,-0.068000000000
2.836776708000,-0.096000000000
2.844464456000,-0.113000000000
2.852152204000,-0.105000000000
2.859839952000,-0.098000000000
2.867527700000,-0.096000000000
2.875215448000,-0.091000000000
2.882903196000,-0.091000000000
2.890590944000,-0.091000000000
2.898278692000,-0.103000000000
2.905966440000,-0.147000000000
2.913654188000,-0.236000000000
2.921341936000,-0.231000000000
2.929029684000,0.189000000000
2.936717432000,1.029000000000
2.944405180000,1.789000000000
2.952092928000,1.693000000000
2.959780676000,0.470000000000
2.967468424000,-0.568000000000
2.975156172000,-0.403000000000
2.982843920000,-0.083000000000
2.990531668000,-0.236000000000
2.998219416000,-0.273000000000
3.005907164000,-0.160000000000
3.013594912000,-0.174000000000
3.021282660000,-0.189000000000
3.028970408000,-0.135000000000
3.036658156000,-0.115000000000
3.044345904000,-0.115000000000
3.052033652000,-0.088000000000
3.059721400000,-0.066000000000
3.067409148000,-0.054000000000
3.075096896000,-0.032000000000
3.082784644000,-0.009000000000
3.090472392000,0.007000000000
3.098160140000,0.039000000000
3.105847888000,0.071000000000
3.113535636000,0.096000000000
3.121223384000,0.128000000000
3.128911132000,0.167000000000
3.136598880000,0.201000000000
3.144286628000,0.231000000000
3.151974376000,0.248000000000
3.159662124000,0.251000000000
3.167349872000,0.246000000000
3.175037620000,0.233000000000
3.182725368000,0.204000000000
3.190413116000,0.155000000000
3.198100864000,0.078000000000
3.205788612000,-0.017000000000
3.213476360000,-0.108000000000
3.221164176000,-0.174000000000
3.228852064000,-0.221000000000
3.236539952000,-0.251000000000
3.244227840000,-0.260000000000
3.251915728000,-0.260000000000
3.259603616000,-0.258000000000
3.267291504000,-0.251000000000
3.274979392000,-0.238000000000
3.282667280000,-0.224000000000
3.290355168000,-0.214000000000
3.298043056000,-0.201000000000
3.305730944000,-0.189000000000
3.313418832000,-0.182000000000
3.321106720000,-0.172000000000
3.328794608000,-0.164000000000
3.336482496000,-0.157000000000
3.344170384000,-0.152000000000
3.351858272000,-0.147000000000
3.359546160000,-0.142000000000
3.367234048000,-0.140000000000
3.374921936000,-0.140000000000
3.382609824000,-0.140000000000
3.390297712000,-0.137000000000
3.397985600000,-0.135000000000
3.405673488000,-0.135000000000
3.413361376000,-0.132000000000
3.421049264000,-0.132000000000
3.428737152000,-0.125000000000
3.436425040000,-0.118000000000
3.444112928000,-0.120000000000
3.451800816000,-0.120000000000
3.459488704000,-0.115000000000
3.467176592000,-0.110000000000
3.474864480000,-0.108000000000
3.482552368000,-0.110000000000
3.490240256000,-0.108000000000
3.497928144000,-0.103000000000
3.505616032000,-0.103000000000
3.513303920000,-0.113000000000
3.520991808000,-0.115000000000
3.528679696000,-0.103000000000
3.536367584000,-0.091000000000
3.544055472000,-0.088000000000
3.551743360000,-0.086000000000
3.559431248000,-0.071000000000
3.567119136000,-0.054000000000
3.574807024000,-0.064000000000
3.582494912000,-0.091000000000
3.590182800000,-0.103000000000
3.597870688000,-0.100000000000
3.605558576000,-0.093000000000
3.613246464000,-0.088000000000
3.620934352000,-0.086000000000
3.628622240000,-0.083000000000
3.636310128000,-0.083000000000
3.643998016000,-0.096000000000
3.651685904000,-0.142000000000
3.659373792000,-0.226000000000
3.667061680000,-0.194000000000
3.674749568000,0.258000000000
3.682437456000,1.112000000000
3.690125344000,1.841000000000
3.697813232000,1.641000000000
3.705501120000,0.349000000000
3.713189008000,-0.598000000000
3.720876896000,-0.349000000000
3.728564784000,-0.073000000000
3.736252672000,-0.246000000000
3.743940560000,-0.251000000000
3.751628448000,-0.140000000000
3.759316336000,-0.172000000000
3.767004224000,-0.177000000000
3.774692112000,-0.118000000000
3.782380026000,-0.108000000000
3.790067635000,-0.110000000000
3.797755244000,-0.083000000000
3.805442853000,-0.059000000000
3.813130462000,-0.039000000000
3.820818071000,-0.014000000000
3.828505680000,0.007000000000
3.836193289000,0.024000000000
3.843880898000,0.049000000000
3.851568507000,0.078000000000
3.859256116000,0.108000000000
3.866943725000,0.147000000000
3.874631334000,0.189000000000
3.882318943000,0.219000000000
3.890006552000,0.241000000000
3.897694161000,0.256000000000
3.905381770000,0.263000000000
3.913069379000,0.260000000000
3.920756988000,0.236000000000
3.928444597000,0.209000000000
3.936132206000,0.169000000000
3.943819815000,0.086000000000
3.951507424000,-0.014000000000
3.959195033000,-0.098000000000
3.966882642000,-0.169000000000
3.974570251000,-0.224000000000
3.982257860000,-0.248000000000
3.989945469000,-0.258000000000
3.997633078000,-0.260000000000
4.005320687000,-0.251000000000
4.013008296000,-0.236000000000
4.020695905000,-0.216000000000
4.028383514000,-0.214000000000
4.036071123000,-0.214000000000
4.043758732000,-0.192000000000
4.051446341000,-0.172000000000
4.059133950000,-0.179000000000
4.066821559000,-0.174000000000
4.074509168000,-0.152000000000
4.082196777000,-0.145000000000
4.089884386000,-0.142000000000
4.097571995000,-0.130000000000
4.105259604000,-0.130000000000
4.112947213000,-0.137000000000
4.120634822000,-0.132000000000
4.128322431000,-0.128000000000
4.136010040000,-0.128000000000
4.143697649000,-0.123000000000
4.151385258000,-0.120000000000
4.159072867000,-0.120000000000
4.166760476000,-0.120000000000
4.174448085000,-0.120000000000
4.182135694000,-0.123000000000
4.189823303000,-0.120000000000
4.197510912000,-0.113000000000
4.205198521000,-0.110000000000
4.212886130000,-0.110000000000
4.220573739000,-0.100000000000
4.228261348000,-0.100000000000
4.235948957000,-0.115000000000
4.243636566000,-0.123000000000
4.251324175000,-0.110000000000
4.259011784000,-0.091000000000
4.266699393000,-0.081000000000
4.274387002000,-0.076000000000
4.282074611000,-0.064000000000
4.289762220000,-0.061000000000
4.297449829000,-0.081000000000
4.305137438000,-0.093000000000
4.312825047000,-0.096000000000
4.320512656000,-0.103000000000
4.328200265000,-0.105000000000
4.335887874000,-0.093000000000
4.343575528000,-0.083000000000
4.351263137000,-0.071000000000
4.358950746000,-0.071000000000
4.366638355000,-0.105000000000
4.374325964000,-0.169000000000
4.382013573000,-0.258000000000
4.389701182000,-0.182000000000
4.397388791000,0.374000000000
4.405076400000,1.280000000000
4.412764009000,1.912000000000
4.420451618000,1.509000000000
4.428139227000,0.132000000000
4.435826836000,-0.640000000000
4.443514445000,-0.280000000000
4.451202054000,-0.086000000000
4.458889663000,-0.273000000000
4.466577272000,-0.226000000000
4.474264881000,-0.123000000000
4.481952490000,-0.164000000000
4.489640099000,-0.150000000000
4.497327708000,-0.096000000000
4.505015317000,-0.115000000000
4.512702926000,-0.108000000000
4.520390535000,-0.044000000000
4.528078144000,-0.032000000000
4.535765753000,-0.039000000000
4.543453362000,0.002000000000
4.551140971000,0.039000000000
4.558828580000,0.056000000000
4.566516189000,0.081000000000
4.574203798000,0.113000000000
4.581891407000,0.145000000000
4.589579016000,0.179000000000
4.597266625000,0.221000000000
4.604954234000,0.260000000000
4.612641843000,0.290000000000
4.620329452000,0.315000000000
4.628017061000,0.315000000000
4.635704670000,0.285000000000
4.643392279000,0.258000000000
4.651079888000,0.231000000000
4.658767497000,0.162000000000
4.666455106000,0.066000000000
4.674142715000,-0.024000000000
4.681830324000,-0.115000000000
4.689517933000,-0.196000000000
4.697205542000,-0.243000000000
4.704893151000,-0.258000000000
4.712580760000,-0.265000000000
4.720268369000,-0.270000000000
4.727955978000,-0.253000000000
4.735643587000,-0.236000000000
4.743331196000,-0.228000000000
4.751018805000,-0.221000000000
4.758706414000,-0.214000000000
4.766394023000,-0.196000000000
4.774081632000,-0.179000000000
4.781769241000,-0.179000000000
4.789456850000,-0.179000000000
4.797144459000,-0.157000000000
4.804832068000,-0.147000000000
4.812519677000,-0.157000000000
4.820207286000,-0.150000000000
4.827894895000,-0.130000000000
4.835582504000,-0.128000000000
4.843270113000,-0.130000000000
4.850957722000,-0.135000000000
4.858645331000,-0.135000000000
4.866332940000,-0.125000000000
4.874020549000,-0.120000000000
4.881708158000,-0.130000000000
4.889395767000,-0.132000000000
4.897083376000,-0.128000000000
4.904771030000,-0.128000000000
4.912458918000,-0.125000000000
4.920146806000,-0.125000000000
4.927834694000,-0.123000000000
4.935522582000,-0.123000000000
4.943210470000,-0.130000000000
4.950898358000,-0.130000000000
4.958586246000,-0.110000000000
4.966274134000,-0.100000000000
4.973962022000,-0.096000000000
4.981649910000,-0.083000000000
4.989337798000,-0.083000000000
4.997025686000,-0.100000000000
5.004713574000,-0.120000000000
5.012401462000,-0.125000000000
5.020089350000,-0.115000000000
5.027777238000,-0.110000000000
5.035465126000,-0.110000000000
5.043153014000,-0.105000000000
5.050840902000,-0.100000000000
5.058528790000,-0.110000000000
5.066216678000,-0.147000000000
5.073904566000,-0.233000000000
5.081592454000,-0.270000000000
5.089280342000,0.064000000000
5.096968230000,0.878000000000
5.104656118000,1.703000000000
5.112344006000,1.794000000000
5.120031894000,0.721000000000
5.127719782000,-0.492000000000
5.135407670000,-0.514000000000
5.143095558000,-0.123000000000
5.150783446000,-0.228000000000
5.158471334000,-0.292000000000
5.166159222000,-0.167000000000
5.173847110000,-0.172000000000
5.181534998000,-0.201000000000
5.189222886000,-0.150000000000
5.196910774000,-0.128000000000
5.204598662000,-0.135000000000
5.212286550000,-0.108000000000
5.219974438000,-0.076000000000
5.227662326000,-0.061000000000
5.235350214000,-0.046000000000
5.243038102000,-0.022000000000
5.250725990000,0.002000000000
5.258413878000,0.027000000000
5.266101766000,0.054000000000
5.273789654000,0.086000000000
5.281477542000,0.118000000000
5.289165430000,0.152000000000
5.296853318000,0.182000000000
5.304541206000,0.209000000000
5.312229094000,0.228000000000
5.319916982000,0.233000000000
5.327604870000,0.219000000000
5.335292758000,0.199000000000
5.342980646000,0.179000000000
5.350668534000,0.132000000000
5.358356422000,0.049000000000
5.366044310000,-0.049000000000
5.373732198000,-0.135000000000
5.381420086000,-0.204000000000
5.389107974000,-0.248000000000
5.396795862000,-0.275000000000
5.404483750000,-0.283000000000
5.412171638000,-0.280000000000
5.419859526000,-0.275000000000
5.427547414000,-0.268000000000
5.435235302000,-0.256000000000
5.442923190000,-0.243000000000
5.450611078000,-0.231000000000
5.458298966000,-0.219000000000
5.465986876000,-0.209000000000
5.473674415000,-0.196000000000
5.481361954000,-0.187000000000
5.489049493000,-0.179000000000
5.496737032000,-0.172000000000
5.504424571000,-0.167000000000
5.512112110000,-0.164000000000
5.519799649000,-0.157000000000
5.527487188000,-0.155000000000
5.535174727000,-0.152000000000
5.542862266000,-0.150000000000
5.550549805000,-0.147000000000
5.558237344000,-0.147000000000
5.565924883000,-0.147000000000
5.573612422000,-0.145000000000
5.581299961000,-0.145000000000
5.588987500000,-0.142000000000
5.596675039000,-0.140000000000
5.604362578000,-0.142000000000
5.612050117000,-0.140000000000
5.619737656000,-0.132000000000
5.627425195000,-0.130000000000
5.635112734000,-0.132000000000
5.642800273000,-0.135000000000
5.650487812000,-0.142000000000
5.658175351000,-0.145000000000
5.665862890000,-0.135000000000
5.673550429000,-0.118000000000
5.681237968000,-0.113000000000
5.688925507000,-0.113000000000
5.696613046000,-0.103000000000
5.704300585000,-0.086000000000
5.711988124000,-0.088000000000
5.719675663000,-0.110000000000
5.727363202000,-0.128000000000
5.735050741000,-0.120000000000
5.742738280000,-0.110000000000
5.750425819000,-0.110000000000
5.758113358000,-0.110000000000
5.765800897000,-0.105000000000
5.773488436000,-0.105000000000
5.781175975000,-0.125000000000
5.788863514000,-0.184000000000
5.796551053000,-0.270000000000
5.804238592000,-0.196000000000
5.811926131000,0.339000000000
5.819613670000,1.228000000000
5.827301209000,1.893000000000
5.834988748000,1.555000000000
5.842676287000,0.196000000000
5.850363826000,-0.642000000000
5.858051365000,-0.322000000000
5.865738904000,-0.098000000000
5.873426443000,-0.290000000000
5.881113982000,-0.275000000000
5.888801521000,-0.169000000000
5.896489060000,-0.199000000000
5.904176599000,-0.199000000000
5.911864138000,-0.145000000000
5.919551677000,-0.132000000000
5.927239216000,-0.130000000000
5.934926755000,-0.103000000000
5.942614294000,-0.081000000000
5.950301833000,-0.064000000000
5.957989372000,-0.041000000000
5.965676911000,-0.019000000000
5.973364450000,0.000000000000
5.981051989000,0.027000000000
5.988739528000,0.056000000000
5.996427067000,0.088000000000
6.004114606000,0.123000000000
6.011802145000,0.160000000000
6.019489684000,0.192000000000
6.027177291000,0.214000000000
6.034865248000,0.228000000000
6.042553205000,0.231000000000
6.050241162000,0.226000000000
6.057929119000,0.209000000000
6.065617076000,0.177000000000
6.073305033000,0.123000000000
6.080992990000,0.039000000000
6.088680947000,-0.056000000000
6.096368904000,-0.137000000000
6.104056861000,-0.201000000000
6.111744818000,-0.246000000000
6.119432775000,-0.270000000000
6.127120732000,-0.278000000000
6.134808689000,-0.275000000000
6.142496646000,-0.265000000000
6.150184603000,-0.256000000000
6.157872560000,-0.243000000000
6.165560517000,-0.231000000000
6.173248474000,-0.219000000000
6.180936431000,-0.206000000000
6.188624388000,-0.196000000000
6.196312345000,-0.184000000000
6.204000302000,-0.179000000000
6.211688259000,-0.174000000000
6.219376216000,-0.167000000000
6.227064173000,-0.160000000000
6.234752130000,-0.155000000000
6.242440087000,-0.155000000000
6.250128044000,-0.152000000000
6.257816001000,-0.147000000000
6.265503958000,-0.145000000000
6.273191915000,-0.142000000000
6.280879872000,-0.142000000000
6.288567829000,-0.145000000000
6.296255786000,-0.145000000000
6.303943743000,-0.140000000000
6.311631700000,-0.137000000000
6.319319657000,-0.137000000000
6.327007614000,-0.132000000000
6.334695571000,-0.130000000000
6.342383528000,-0.130000000000
6.350071485000,-0.125000000000
6.357759442000,-0.125000000000
6.365447399000,-0.128000000000
6.373135356000,-0.132000000000
6.380823313000,-0.137000000000
6.388511270000,-0.132000000000
6.396199227000,-0.118000000000
6.403887184000,-0.108000000000
6.411575141000,-0.103000000000
6.419263098000,-0.093000000000
6.426951055000,-0.078000000000
6.434639012000,-0.083000000000
6.442326969000,-0.108000000000
6.450014926000,-0.120000000000
6.457702883000,-0.113000000000
6.465390840000,-0.108000000000
6.473078797000,-0.108000000000
6.480766754000,-0.105000000000
6.488454711000,-0.098000000000
6.496142668000,-0.100000000000
6.503830625000,-0.115000000000
6.511518582000,-0.162000000000
6.519206539000,-0.253000000000
6.526894496000,-0.214000000000
6.534582453000,0.265000000000
6.542270410000,1.132000000000
6.549958367000,1.846000000000
6.557646324000,1.629000000000
6.565334281000,0.327000000000
6.573022238000,-0.615000000000
6.580710195000,-0.364000000000
6.588398224000,-0.088000000000
6.596085763000,-0.265000000000
6.603773302000,-0.278000000000
6.611460841000,-0.167000000000
6.619148380000,-0.189000000000
6.626835919000,-0.196000000000
6.634523458000,-0.145000000000
6.642210997000,-0.130000000000
6.649898536000,-0.125000000000
6.657586075000,-0.098000000000
6.665273614000,-0.076000000000
6.672961153000,-0.064000000000
6.680648692000,-0.041000000000
6.688336231000,-0.017000000000
6.696023770000,0.004000000000
6.703711309000,0.029000000000
6.711398848000,0.056000000000
6.719086387000,0.088000000000
6.726773926000,0.125000000000
6.734461465000,0.160000000000
6.742149004000,0.194000000000
6.749836543000,0.224000000000
6.757524082000,0.241000000000
6.765211621000,0.243000000000
6.772899160000,0.236000000000
6.780586699000,0.219000000000
6.788274238000,0.187000000000
6.795961777000,0.132000000000
6.803649316000,0.049000000000
6.811336855000,-0.046000000000
6.819024394000,-0.132000000000
6.826711933000,-0.199000000000
6.834399472000,-0.243000000000
6.842087011000,-0.268000000000
6.849774550000,-0.275000000000
6.857462089000,-0.273000000000
6.865149628000,-0.268000000000
6.872837167000,-0.256000000000
6.880524706000,-0.243000000000
6.888212245000,-0.231000000000
6.895899784000,-0.221000000000
6.903587323000,-0.209000000000
6.911274862000,-0.199000000000
6.918962401000,-0.189000000000
6.926649940000,-0.179000000000
6.934337479000,-0.172000000000
6.942025018000,-0.167000000000
6.949712557000,-0.164000000000
6.957400096000,-0.160000000000
6.965087635000,-0.155000000000
6.972775174000,-0.150000000000
6.980462713000,-0.147000000000
6.988150252000,-0.150000000000
6.995837791000,-0.147000000000
7.003525330000,-0.145000000000
7.011212869000,-0.142000000000
7.018900408000,-0.142000000000
7.026587947000,-0.140000000000
7.034275486000,-0.137000000000
7.041963025000,-0.135000000000
7.049650564000,-0.132000000000
7.057338103000,-0.128000000000
7.065025642000,-0.125000000000
7.072713181000,-0.125000000000
7.080400720000,-0.125000000000
7.088088259000,-0.120000000000
7.095775798000,-0.118000000000
7.103463337000,-0.115000000000
7.111150876000,-0.115000000000
7.118838415000,-0.120000000000
7.126525954000,-0.128000000000
7.134213493000,-0.128000000000
7.141901032000,-0.115000000000
7.149588639000,-0.100000000000
7.157276597000,-0.093000000000
7.164964555000,-0.088000000000
7.172652513000,-0.078000000000
7.180340471000,-0.068000000000
7.188028429000,-0.086000000000
7.195716387000,-0.110000000000
7.203404345000,-0.113000000000
7.211092303000,-0.103000000000
7.218780261000,-0.100000000000
7.226468219000,-0.100000000000
7.234156177000,-0.096000000000
7.241844135000,-0.091000000000
7.249532093000,-0.096000000000
7.257220051000,-0.125000000000
7.264908009000,-0.199000000000
7.272595967000,-0.265000000000
7.280283925000,-0.078000000000
7.287971883000,0.588000000000
7.295659841000,1.469000000000
7.303347799000,1.893000000000
7.311035757000,1.152000000000
7.318723715000,-0.211000000000
7.326411673000,-0.595000000000
7.334099631000,-0.172000000000
7.341787589000,-0.147000000000
7.349475547000,-0.302000000000
7.357163505000,-0.211000000000
7.364851463000,-0.160000000000
7.372539421000,-0.199000000000
7.380227379000,-0.167000000000
7.387915337000,-0.125000000000
7.395603295000,-0.123000000000
7.403291253000,-0.108000000000
7.410979211000,-0.081000000000
7.418667169000,-0.066000000000
7.426355127000,-0.051000000000
7.434043085000,-0.027000000000
7.441731043000,-0.002000000000
7.449419001000,0.017000000000
7.457106959000,0.044000000000
7.464794917000,0.076000000000
7.472482875000,0.108000000000
7.480170833000,0.140000000000
7.487858791000,0.177000000000
7.495546749000,0.211000000000
7.503234707000,0.231000000000
7.510922665000,0.243000000000
7.518610623000,0.246000000000
7.526298581000,0.238000000000
7.533986539000,0.216000000000
7.541674497000,0.179000000000
7.549362455000,0.118000000000
7.557050413000,0.032000000000
7.564738371000,-0.059000000000
7.572426329000,-0.140000000000
7.580114287000,-0.196000000000
7.587802245000,-0.238000000000
7.595490203000,-0.260000000000
7.603178161000,-0.265000000000
7.610866119000,-0.260000000000
7.618554077000,-0.251000000000
7.626242035000,-0.243000000000
7.633929993000,-0.231000000000
7.641617951000,-0.216000000000
7.649305909000,-0.201000000000
7.656993867000,-0.192000000000
7.664681825000,-0.184000000000
7.672369783000,-0.177000000000
7.680057741000,-0.167000000000
7.687745699000,-0.160000000000
7.695433657000,-0.155000000000
7.703121615000,-0.152000000000
7.710809576000,-0.150000000000
7.718497185000,-0.145000000000
7.726184794000,-0.142000000000
7.733872403000,-0.142000000000
7.741560012000,-0.140000000000
7.749247621000,-0.140000000000
7.756935230000,-0.142000000000
7.764622839000,-0.140000000000
7.772310448000,-0.137000000000
7.779998057000,-0.135000000000
7.787685666000,-0.130000000000
7.795373275000,-0.128000000000
7.803060884000,-0.128000000000
7.810748493000,-0.125000000000
7.818436102000,-0.123000000000
7.826123711000,-0.118000000000
7.833811320000,-0.118000000000
7.841498929000,-0.120000000000
7.849186538000,-0.113000000000
7.856874147000,-0.108000000000
7.864561756000,-0.115000000000
7.872249365000,-0.123000000000
7.879936974000,-0.120000000000
7.887624583000,-0.108000000000
7.895312192000,-0.088000000000
7.902999801000,-0.081000000000
7.910687410000,-0.083000000000
7.918375019000,-0.076000000000
7.926062628000,-0.064000000000
7.933750237000,-0.073000000000
7.941437846000,-0.096000000000
7.949125455000,-0.100000000000
7.956813064000,-0.096000000000
7.964500673000,-0.093000000000
7.972188282000,-0.086000000000
7.979875891000,-0.078000000000
7.987563500000,-0.081000000000
7.995251109000,-0.088000000000
8.002938718000,-0.108000000000
8.010626327000,-0.167000000000
8.018313936000,-0.251000000000
8.026001545000,-0.142000000000
8.033689154000,0.430000000000
8.041376763000,1.314000000000
8.049064372000,1.900000000000
8.056751981000,1.420000000000
8.064439590000,0.049000000000
8.072127199000,-0.612000000000
8.079814808000,-0.238000000000
8.087502417000,-0.100000000000
8.095190026000,-0.280000000000
8.102877635000,-0.221000000000
8.110565244000,-0.137000000000
8.118252853000,-0.177000000000
8.125940462000,-0.160000000000
8.133628071000,-0.108000000000
8.141315680000,-0.105000000000
8.149003289000,-0.100000000000
8.156690898000,-0.071000000000
8.164378507000,-0.046000000000
8.172066116000,-0.032000000000
8.179753725000,-0.007000000000
8.187441334000,0.017000000000
8.195128943000,0.036000000000
8.202816552000,0.059000000000
8.210504161000,0.091000000000
8.218191770000,0.123000000000
8.225879379000,0.160000000000
8.233566988000,0.196000000000
8.241254597000,0.228000000000
8.248942206000,0.253000000000
8.256629815000,0.270000000000
8.264317424000,0.263000000000
8.272005078000,0.253000000000
8.279692966000,0.241000000000
8.287380854000,0.209000000000
8.295068742000,0.150000000000
8.302756630000,0.068000000000
8.310444518000,-0.024000000000
8.318132406000,-0.118000000000
8.325820294000,-0.182000000000
8.333508182000,-0.219000000000
8.341196070000,-0.251000000000
8.348883958000,-0.260000000000
8.356571846000,-0.253000000000
8.364259734000,-0.253000000000
8.371947622000,-0.246000000000
8.379635510000,-0.224000000000
8.387323398000,-0.211000000000
8.395011286000,-0.206000000000
8.402699174000,-0.192000000000
8.410387062000,-0.174000000000
8.418074950000,-0.169000000000
8.425762838000,-0.167000000000
8.433450726000,-0.152000000000
8.441138614000,-0.142000000000
8.448826502000,-0.142000000000
8.456514390000,-0.137000000000
8.464202278000,-0.135000000000
8.471890166000,-0.132000000000
8.479578054000,-0.128000000000
8.487265942000,-0.123000000000
8.494953830000,-0.130000000000
8.502641718000,-0.130000000000
8.510329606000,-0.123000000000
8.518017494000,-0.118000000000
8.525705382000,-0.123000000000
8.533393270000,-0.123000000000
8.541081158000,-0.113000000000
8.548769046000,-0.113000000000
8.556456934000,-0.120000000000
8.564144822000,-0.105000000000
8.571832710000,-0.098000000000
8.579520598000,-0.113000000000
8.587208486000,-0.115000000000
8.594896374000,-0.108000000000
8.602584262000,-0.115000000000
8.610272150000,-0.115000000000
8.617960038000,-0.086000000000
8.625647926000,-0.073000000000
8.633335814000,-0.076000000000
8.641023702000,-0.066000000000
8.648711590000,-0.066000000000
8.656399478000,-0.083000000000
8.664087366000,-0.105000000000
8.671775254000,-0.108000000000
8.679463142000,-0.091000000000
8.687151030000,-0.083000000000
8.694838918000,-0.091000000000
8.702526806000,-0.091000000000
8.710214694000,-0.076000000000
8.717902582000,-0.086000000000
8.725590470000,-0.123000000000
8.733278358000,-0.199000000000
8.740966246000,-0.258000000000
8.748654134000,-0.009000000000
8.756342022000,0.733000000000
8.764029910000,1.595000000000
8.771717798000,1.875000000000
8.779405686000,0.987000000000
8.787093574000,-0.339000000000
8.794781462000,-0.563000000000
8.802469350000,-0.123000000000
8.810157238000,-0.157000000000
8.817845126000,-0.283000000000
8.825533014000,-0.174000000000
8.833220924000,-0.150000000000
8.840908463000,-0.189000000000
8.848596002000,-0.145000000000
8.856283541000,-0.100000000000
8.863971080000,-0.100000000000
8.871658619000,-0.091000000000
8.879346158000,-0.061000000000
8.887033697000,-0.044000000000
8.894721236000,-0.029000000000
8.902408775000,-0.002000000000
8.910096314000,0.022000000000
8.917783853000,0.039000000000
8.925471392000,0.071000000000
8.933158931000,0.105000000000
8.940846470000,0.135000000000
8.948534009000,0.169000000000
8.956221548000,0.204000000000
8.963909087000,0.228000000000
8.971596626000,0.248000000000
8.979284165000,0.258000000000
8.986971704000,0.251000000000
8.994659243000,0.231000000000
9.002346782000,0.209000000000
9.010034321000,0.169000000000
9.017721860000,0.098000000000
9.025409399000,0.004000000000
9.033096938000,-0.096000000000
9.040784477000,-0.174000000000
9.048472016000,-0.224000000000
9.056159555000,-0.258000000000
9.063847094000,-0.275000000000
9.071534633000,-0.278000000000
9.079222172000,-0.273000000000
9.086909711000,-0.263000000000
9.094597250000,-0.251000000000
9.102284789000,-0.241000000000
9.109972328000,-0.228000000000
9.117659867000,-0.216000000000
9.125347406000,-0.209000000000
9.133034945000,-0.199000000000
9.140722484000,-0.187000000000
9.148410023000,-0.177000000000
9.156097562000,-0.172000000000
9.163785101000,-0.167000000000
9.171472640000,-0.162000000000
9.179160179000,-0.157000000000
9.186847718000,-0.152000000000
9.194535257000,-0.150000000000
9.202222796000,-0.147000000000
9.209910335000,-0.147000000000
9.217597874000,-0.145000000000
9.225285413000,-0.145000000000
9.232972952000,-0.142000000000
9.240660491000,-0.137000000000
9.248348030000,-0.137000000000
9.256035569000,-0.142000000000
9.263723108000,-0.140000000000
9.271410647000,-0.132000000000
9.279098186000,-0.132000000000
9.286785725000,-0.135000000000
9.294473264000,-0.137000000000
9.302160803000,-0.145000000000
9.309848342000,-0.145000000000
9.317535881000,-0.132000000000
9.325223420000,-0.118000000000
9.332910959000,-0.113000000000
9.340598498000,-0.108000000000
9.348286037000,-0.096000000000
9.355973576000,-0.091000000000
9.363661115000,-0.105000000000
9.371348654000,-0.125000000000
9.379036193000,-0.125000000000
9.386723732000,-0.118000000000
9.394411339000,-0.115000000000
9.402099157000,-0.113000000000
9.409786975000,-0.108000000000
9.417474793000,-0.105000000000
9.425162611000,-0.118000000000
9.432850429000,-0.152000000000
9.440538247000,-0.233000000000
9.448226065000,-0.275000000000
9.455913883000,0.032000000000
9.463601701000,0.809000000000
9.471289519000,1.646000000000
9.478977337000,1.824000000000
9.486665155000,0.807000000000
9.494352973000,-0.457000000000
9.502040791000,-0.536000000000
9.509728609000,-0.115000000000
9.517416427000,-0.201000000000
9.525104245000,-0.310000000000
9.532792063000,-0.192000000000
9.540479881000,-0.172000000000
9.548167699000,-0.209000000000
9.555855517000,-0.164000000000
9.563543335000,-0.132000000000
9.571231153000,-0.135000000000
9.578918971000,-0.110000000000
9.586606789000,-0.086000000000
9.594294607000,-0.073000000000
9.601982425000,-0.054000000000
9.609670243000,-0.032000000000
9.617358061000,-0.012000000000
9.625045879000,0.012000000000
9.632733697000,0.039000000000
9.640421515000,0.066000000000
9.648109333000,0.100000000000
9.655797151000,0.135000000000
9.663484969000,0.167000000000
9.671172787000,0.194000000000
9.678860605000,0.211000000000
9.686548423000,0.219000000000
9.694236241000,0.211000000000
9.701924059000,0.199000000000
9.709611877000,0.182000000000
9.717299695000,0.137000000000
9.724987513000,0.064000000000
9.732675331000,-0.024000000000
9.740363149000,-0.108000000000
9.748050967000,-0.179000000000
9.755738785000,-0.228000000000
9.763426603000,-0.256000000000
9.771114421000,-0.268000000000
9.778802239000,-0.270000000000
9.786490057000,-0.263000000000
9.794177875000,-0.253000000000
9.801865693000,-0.246000000000
9.809553511000,-0.233000000000
9.817241329000,-0.219000000000
9.824929147000,-0.209000000000
9.832616965000,-0.201000000000
9.840304783000,-0.192000000000
9.847992601000,-0.182000000000
9.855680419000,-0.174000000000
9.863368237000,-0.169000000000
9.871056055000,-0.164000000000
9.878743873000,-0.160000000000
9.886431691000,-0.155000000000
9.894119509000,-0.152000000000
9.901807327000,-0.152000000000
9.909495145000,-0.150000000000
9.917182963000,-0.145000000000
9.924870781000,-0.142000000000
9.932558599000,-0.145000000000
9.940246417000,-0.145000000000
9.947934235000,-0.140000000000
9.955622102000,-0.137000000000
9.963309781000,-0.137000000000
9.970997460000,-0.135000000000
9.978685139000,-0.132000000000
9.986372818000,-0.130000000000
9.994060497000,-0.132000000000
10.001748176000,-0.137000000000
10.009435855000,-0.145000000000
10.017123534000,-0.140000000000
10.024811213000,-0.125000000000
10.032498892000,-0.113000000000
10.040186571000,-0.110000000000
10.047874250000,-0.105000000000
10.055561929000,-0.091000000000
10.063249608000,-0.083000000000
10.070937287000,-0.100000000000
10.078624966000,-0.120000000000
10.086312645000,-0.123000000000
10.094000324000,-0.113000000000
10.101688003000,-0.113000000000
10.109375682000,-0.108000000000
10.117063361000,-0.103000000000
10.124751040000,-0.103000000000
10.132438719000,-0.110000000000
10.140126398000,-0.147000000000
10.147814077000,-0.233000000000
10.155501756000,-0.260000000000
10.163189435000,0.078000000000
10.170877114000,0.871000000000
10.178564793000,1.691000000000
10.186252472000,1.784000000000
10.193940151000,0.694000000000
10.201627830000,-0.494000000000
10.209315509000,-0.489000000000
10.217003188000,-0.103000000000
10.224690867000,-0.216000000000
10.232378546000,-0.297000000000
10.240066225000,-0.182000000000
10.247753904000,-0.172000000000
10.255441583000,-0.201000000000
10.263129262000,-0.152000000000
10.270816941000,-0.125000000000
10.278504620000,-0.125000000000
10.286192299000,-0.103000000000
10.293879978000,-0.076000000000
10.301567657000,-0.064000000000
10.309255336000,-0.046000000000
10.316943015000,-0.027000000000
10.324630694000,-0.004000000000
10.332318373000,0.017000000000
10.340006052000,0.044000000000
10.347693731000,0.076000000000
10.355381410000,0.110000000000
10.363069089000,0.145000000000
10.370756768000,0.179000000000
10.378444447000,0.204000000000
10.386132126000,0.224000000000
10.393819805000,0.231000000000
10.401507484000,0.224000000000
10.409195163000,0.209000000000
10.416882842000,0.187000000000
10.424570521000,0.145000000000
10.432258200000,0.068000000000
10.439945879000,-0.024000000000
10.447633558000,-0.113000000000
10.455321237000,-0.182000000000
10.463008916000,-0.228000000000
10.470696595000,-0.256000000000
10.478384274000,-0.268000000000
10.486071953000,-0.270000000000
10.493759632000,-0.263000000000
10.501447311000,-0.253000000000
10.509134990000,-0.241000000000
10.516822687000,-0.228000000000
10.524510226000,-0.219000000000
10.532197765000,-0.206000000000
10.539885304000,-0.196000000000
10.547572843000,-0.187000000000
10.555260382000,-0.177000000000
10.562947921000,-0.172000000000
10.570635460000,-0.169000000000
10.578322999000,-0.164000000000
10.586010538000,-0.160000000000
10.593698077000,-0.157000000000
10.601385616000,-0.155000000000
10.609073155000,-0.150000000000
10.616760694000,-0.147000000000
10.624448233000,-0.145000000000
10.632135772000,-0.145000000000
10.639823311000,-0.147000000000
10.647510850000,-0.147000000000
10.655198389000,-0.145000000000
10.662885928000,-0.140000000000
10.670573467000,-0.135000000000
10.678261006000,-0.135000000000
10.685948545000,-0.132000000000
10.693636084000,-0.130000000000
10.701323623000,-0.125000000000
10.709011162000,-0.125000000000
10.716698701000,-0.132000000000
10.724386240000,-0.137000000000
10.732073779000,-0.132000000000
10.739761318000,-0.118000000000
10.747448857000,-0.103000000000
10.755136396000,-0.103000000000
10.762823935000,-0.093000000000
10.770511474000,-0.078000000000
10.778199013000,-0.081000000000
10.785886552000,-0.103000000000
10.793574091000,-0.118000000000
10.801261630000,-0.113000000000
10.808949169000,-0.105000000000
10.816636708000,-0.105000000000
10.824324247000,-0.103000000000
10.832011786000,-0.098000000000
10.839699325000,-0.098000000000
10.847386864000,-0.113000000000
10.855074403000,-0.169000000000
10.862761942000,-0.260000000000
10.870449481000,-0.204000000000
10.878137020000,0.297000000000
10.885824559000,1.164000000000
10.893512098000,1.834000000000
10.901199637000,1.531000000000
10.908887176000,0.216000000000
10.916574715000,-0.617000000000
10.924262254000,-0.320000000000
10.931949793000,-0.091000000000
10.939637332000,-0.268000000000
10.947324871000,-0.256000000000
10.955012410000,-0.157000000000
10.962699949000,-0.182000000000
10.970387488000,-0.179000000000
10.978075027000,-0.128000000000
10.985762566000,-0.118000000000
10.993450105000,-0.118000000000
11.001137644000,-0.091000000000
11.008825183000,-0.066000000000
11.016512722000,-0.049000000000
11.024200261000,-0.027000000000
11.031887800000,-0.007000000000
11.039575339000,0.012000000000
11.047262878000,0.039000000000
11.054950417000,0.068000000000
11.062637956000,0.100000000000
11.070325495000,0.135000000000
11.078013102000,0.169000000000
11.085701060000,0.199000000000
11.093389018000,0.226000000000
11.101076976000,0.241000000000
11.108764934000,0.238000000000
11.116452892000,0.226000000000
11.124140850000,0.216000000000
11.131828808000,0.194000000000
11.139516766000,0.140000000000
11.147204724000,0.056000000000
11.154892682000,-0.036000000000
11.162580640000,-0.123000000000
11.170268598000,-0.187000000000
11.177956556000,-0.226000000000
11.185644514000,-0.243000000000
11.193332472000,-0.251000000000
11.201020430000,-0.248000000000
11.208708388000,-0.243000000000
11.216396346000,-0.236000000000
11.224084304000,-0.221000000000
11.231772262000,-0.206000000000
11.239460220000,-0.196000000000
11.247148178000,-0.184000000000
11.254836136000,-0.172000000000
11.262524094000,-0.164000000000
11.270212052000,-0.160000000000
11.277900010000,-0.150000000000
11.285587968000,-0.142000000000
11.293275926000,-0.140000000000
11.300963884000,-0.137000000000
11.308651842000,-0.135000000000
11.316339800000,-0.128000000000
11.324027758000,-0.123000000000
11.331715716000,-0.128000000000
11.339403674000,-0.132000000000
11.347091632000,-0.125000000000
11.354779590000,-0.120000000000
11.362467548000,-0.128000000000
11.370155506000,-0.128000000000
11.377843464000,-0.113000000000
11.385531422000,-0.108000000000
11.393219380000,-0.110000000000
11.400907338000,-0.110000000000
11.408595296000,-0.115000000000
11.416283254000,-0.113000000000
11.423971212000,-0.108000000000
11.431659170000,-0.118000000000
11.439347128000,-0.120000000000
11.447035086000,-0.098000000000
11.454723044000,-0.083000000000
11.462411002000,-0.086000000000
11.470098960000,-0.073000000000
11.477786918000,-0.061000000000
11.485474876000,-0.076000000000
11.493162834000,-0.096000000000
11.500850792000,-0.098000000000
11.508538750000,-0.093000000000
11.516226708000,-0.088000000000
11.523914666000,-0.083000000000
11.531602624000,-0.081000000000
11.539290582000,-0.078000000000
11.546978540000,-0.081000000000
11.554666498000,-0.108000000000
11.562354456000,-0.182000000000
11.570042414000,-0.258000000000
11.577730372000,-0.088000000000
11.585418330000,0.568000000000
11.593106288000,1.457000000000
11.600794246000,1.917000000000
11.608482204000,1.228000000000
11.616170162000,-0.164000000000
11.623858120000,-0.608000000000
11.631546078000,-0.167000000000
11.639234039000,-0.110000000000
11.646921578000,-0.278000000000
11.654609117000,-0.199000000000
11.662296656000,-0.130000000000
11.669984195000,-0.169000000000
11.677671734000,-0.155000000000
11.685359273000,-0.110000000000
11.693046812000,-0.098000000000
11.700734351000,-0.086000000000
11.708421890000,-0.061000000000
11.716109429000,-0.041000000000
11.723796968000,-0.024000000000
11.731484507000,-0.002000000000
11.739172046000,0.017000000000
11.746859585000,0.046000000000
11.754547124000,0.073000000000
11.762234663000,0.098000000000
11.769922202000,0.132000000000
11.777609741000,0.167000000000
11.785297280000,0.201000000000
11.792984819000,0.231000000000
11.800672358000,0.253000000000
11.808359897000,0.258000000000
11.816047436000,0.253000000000
11.823734975000,0.246000000000
11.831422514000,0.221000000000
11.839110053000,0.187000000000
11.846797592000,0.120000000000
11.854485131000,0.019000000000
11.862172670000,-0.068000000000
11.869860209000,-0.140000000000
11.877547748000,-0.206000000000
11.885235287000,-0.243000000000
11.892922826000,-0.248000000000
11.900610365000,-0.248000000000
11.908297904000,-0.248000000000
11.915985443000,-0.243000000000
11.923672982000,-0.238000000000
11.931360521000,-0.231000000000
11.939048060000,-0.211000000000
11.946735599000,-0.192000000000
11.954423138000,-0.189000000000
11.962110677000,-0.184000000000
11.969798216000,-0.167000000000
11.977485755000,-0.160000000000
11.985173294000,-0.155000000000
11.992860833000,-0.142000000000
12.000548372000,-0.137000000000
12.008235911000,-0.130000000000
12.015923450000,-0.125000000000
12.023610989000,-0.137000000000
12.031298528000,-0.135000000000
12.038986067000,-0.120000000000
12.046673606000,-0.123000000000
12.054361145000,-0.132000000000
12.062048684000,-0.125000000000
12.069736223000,-0.118000000000
12.077423762000,-0.123000000000
12.085111301000,-0.125000000000
12.092798840000,-0.120000000000
12.100486379000,-0.118000000000
12.108173918000,-0.123000000000
12.115861457000,-0.135000000000
12.123548996000,-0.132000000000
12.131236535000,-0.118000000000
12.138924074000,-0.105000000000
12.146611613000,-0.103000000000
12.154299152000,-0.098000000000
12.161986691000,-0.091000000000
12.169674230000,-0.083000000000
12.177361769000,-0.088000000000
12.185049308000,-0.103000000000
12.192736847000,-0.115000000000
12.200424454000,-0.113000000000
12.208112202000,-0.108000000000
12.215799950000,-0.103000000000
12.223487698000,-0.098000000000
12.231175446000,-0.093000000000
12.238863194000,-0.098000000000
12.246550942000,-0.123000000000
12.254238690000,-0.192000000000
12.261926438000,-0.270000000000
12.269614186000,-0.135000000000
12.277301934000,0.484000000000
12.284989682000,1.373000000000
12.292677430000,1.893000000000
12.300365178000,1.299000000000
12.308052926000,-0.086000000000
12.315740674000,-0.640000000000
12.323428422000,-0.228000000000
12.331116170000,-0.132000000000
12.338803918000,-0.300000000000
12.346491666000,-0.226000000000
12.354179414000,-0.160000000000
12.361867162000,-0.201000000000
12.369554910000,-0.177000000000
12.377242658000,-0.130000000000
12.384930406000,-0.130000000000
12.392618154000,-0.115000000000
12.400305902000,-0.086000000000
12.407993650000,-0.071000000000
12.415681398000,-0.056000000000
12.423369146000,-0.029000000000
12.431056894000,-0.009000000000
12.438744642000,0.004000000000
12.446432390000,0.034000000000
12.454120138000,0.066000000000
12.461807886000,0.093000000000
12.469495634000,0.128000000000
12.477183382000,0.162000000000
12.484871130000,0.187000000000
12.492558878000,0.204000000000
12.500246626000,0.211000000000
12.507934374000,0.211000000000
12.515622122000,0.199000000000
12.523309870000,0.179000000000
12.530997618000,0.145000000000
12.538685366000,0.086000000000
12.546373114000,0.002000000000
12.554060862000,-0.088000000000
12.561748610000,-0.162000000000
12.569436358000,-0.214000000000
12.577124106000,-0.243000000000
12.584811854000,-0.260000000000
12.592499602000,-0.260000000000
12.600187350000,-0.258000000000
12.607875098000,-0.251000000000
12.615562846000,-0.241000000000
12.623250594000,-0.228000000000
12.630938342000,-0.216000000000
12.638626090000,-0.209000000000
12.646313838000,-0.196000000000
12.654001586000,-0.184000000000
12.661689334000,-0.174000000000
12.669377082000,-0.169000000000
12.677064830000,-0.162000000000
12.684752578000,-0.152000000000
12.692440326000,-0.147000000000
12.700128074000,-0.147000000000
12.707815822000,-0.145000000000
12.715503570000,-0.137000000000
12.723191318000,-0.135000000000
12.730879066000,-0.137000000000
12.738566814000,-0.137000000000
12.746254562000,-0.135000000000
12.753942310000,-0.132000000000
12.761630130000,-0.132000000000
12.769317878000,-0.132000000000
12.777005626000,-0.130000000000
12.784693374000,-0.125000000000
12.792381122000,-0.125000000000
12.800068870000,-0.123000000000
12.807756618000,-0.120000000000
12.815444366000,-0.120000000000
12.823132114000,-0.125000000000
12.830819862000,-0.132000000000
12.838507610000,-0.132000000000
12.846195358000,-0.125000000000
12.853883106000,-0.113000000000
12.861570854000,-0.103000000000
12.869258602000,-0.103000000000
12.876946350000,-0.093000000000
12.884634098000,-0.081000000000
12.892321846000,-0.088000000000
12.900009594000,-0.113000000000
12.907697342000,-0.120000000000
12.915385090000,-0.110000000000
12.923072838000,-0.105000000000
12.930760586000,-0.105000000000
12.938448334000,-0.103000000000
12.946136082000,-0.098000000000
12.953823830000,-0.103000000000
12.961511578000,-0.132000000000
12.969199326000,-0.209000000000
12.976887074000,-0.268000000000
12.984574822000,-0.041000000000
12.992262570000,0.667000000000
12.999950318000,1.553000000000
13.007638066000,1.898000000000
13.015325814000,1.041000000000
13.023013562000,-0.310000000000
13.030701310000,-0.583000000000
13.038389058000,-0.147000000000
13.046076806000,-0.167000000000
13.053764554000,-0.305000000000
13.061452302000,-0.201000000000
13.069140050000,-0.162000000000
13.076827798000,-0.201000000000
13.084515546000,-0.164000000000
13.092203294000,-0.128000000000
13.099891042000,-0.130000000000
13.107578790000,-0.108000000000
13.115266538000,-0.081000000000
13.122954286000,-0.066000000000
13.130642034000,-0.051000000000
13.138329782000,-0.027000000000
13.146017530000,-0.004000000000
13.153705278000,0.017000000000
13.161393026000,0.041000000000
13.169080774000,0.071000000000
13.176768522000,0.103000000000
13.184456270000,0.135000000000
13.192144018000,0.172000000000
13.199831766000,0.201000000000
13.207519514000,0.221000000000
13.215207262000,0.226000000000
13.222895010000,0.224000000000
13.230582758000,0.214000000000
13.238270506000,0.192000000000
13.245958254000,0.152000000000
13.253646002000,0.088000000000
13.261333750000,0.004000000000
13.269021498000,-0.083000000000
13.276709246000,-0.157000000000
13.284396994000,-0.211000000000
13.292084742000,-0.241000000000
13.299772490000,-0.258000000000
13.307460238000,-0.263000000000
13.315147986000,-0.256000000000
13.322835802000,-0.246000000000
13.330523341000,-0.236000000000
13.338210880000,-0.224000000000
13.345898419000,-0.211000000000
13.353585958000,-0.201000000000
13.361273497000,-0.189000000000
13.368961036000,-0.179000000000
13.376648575000,-0.174000000000
13.384336114000,-0.167000000000
13.392023653000,-0.160000000000
13.399711192000,-0.157000000000
13.407398731000,-0.157000000000
13.415086270000,-0.150000000000
13.422773809000,-0.145000000000
13.430461348000,-0.147000000000
13.438148887000,-0.145000000000
13.445836426000,-0.140000000000
13.453523965000,-0.137000000000
13.461211504000,-0.137000000000
13.468899043000,-0.137000000000
13.476586582000,-0.135000000000
13.484274121000,-0.132000000000
13.491961660000,-0.130000000000
13.499649199000,-0.128000000000
13.507336738000,-0.128000000000
13.515024277000,-0.125000000000
13.522711816000,-0.120000000000
13.530399355000,-0.118000000000
13.538086894000,-0.123000000000
13.545774433000,-0.132000000000
13.553461972000,-0.132000000000
13.561149511000,-0.120000000000
13.568837050000,-0.108000000000
13.576524589000,-0.103000000000
13.584212128000,-0.098000000000
13.591899667000,-0.083000000000
13.599587206000,-0.076000000000
13.607274745000,-0.088000000000
13.614962284000,-0.108000000000
13.622649823000,-0.113000000000
13.630337362000,-0.105000000000
13.638024901000,-0.100000000000
13.645712440000,-0.100000000000
13.653399979000,-0.096000000000
13.661087518000,-0.093000000000
13.668775057000,-0.098000000000
13.676462596000,-0.128000000000
13.684150135000,-0.204000000000
13.691837674000,-0.268000000000
13.699525213000,-0.049000000000
13.707212752000,0.649000000000
13.714900291000,1.528000000000
13.722587830000,1.888000000000
13.730275369000,1.061000000000
13.737962908000,-0.288000000000
13.745650447000,-0.583000000000
13.753337986000,-0.152000000000
13.761025525000,-0.162000000000
13.768713064000,-0.302000000000
13.776400603000,-0.204000000000
13.784088142000,-0.160000000000
13.791775681000,-0.196000000000
13.799463220000,-0.162000000000
13.807150759000,-0.125000000000
13.814838298000,-0.123000000000
13.822525837000,-0.105000000000
13.830213376000,-0.081000000000
13.837900915000,-0.066000000000
13.845588454000,-0.049000000000
13.853275993000,-0.024000000000
13.860963532000,-0.004000000000
13.868651071000,0.017000000000
13.876338610000,0.044000000000
13.884026217000,0.076000000000
13.891714175000,0.105000000000
13.899402133000,0.140000000000
13.907090091000,0.174000000000
13.914778049000,0.201000000000
13.922466007000,0.221000000000
13.930153965000,0.231000000000
13.937841923000,0.228000000000
13.945529881000,0.216000000000
13.953217839000,0.194000000000
13.960905797000,0.162000000000
13.968593755000,0.096000000000
13.976281713000,0.007000000000
13.983969671000,-0.081000000000
13.991657629000,-0.152000000000
13.999345587000,-0.211000000000
14.007033545000,-0.246000000000
14.014721503000,-0.256000000000
14.022409461000,-0.260000000000
14.030097419000,-0.258000000000
14.037785377000,-0.248000000000
14.045473335000,-0.233000000000
14.053161293000,-0.224000000000
14.060849251000,-0.214000000000
14.068537209000,-0.199000000000
14.076225167000,-0.187000000000
14.083913125000,-0.179000000000
14.091601083000,-0.172000000000
14.099289041000,-0.162000000000
14.106976999000,-0.157000000000
14.114664957000,-0.152000000000
14.122352915000,-0.150000000000
14.130040873000,-0.145000000000
14.137728831000,-0.142000000000
14.145416789000,-0.142000000000
14.153104747000,-0.140000000000
14.160792705000,-0.137000000000
14.168480663000,-0.137000000000
14.176168621000,-0.135000000000
14.183856579000,-0.132000000000
14.191544537000,-0.130000000000
14.199232495000,-0.130000000000
14.206920453000,-0.128000000000
14.214608411000,-0.123000000000
14.222296369000,-0.120000000000
14.229984327000,-0.120000000000
14.237672285000,-0.118000000000
14.245360243000,-0.115000000000
14.253048201000,-0.113000000000
14.260736159000,-0.118000000000
14.268424117000,-0.123000000000
14.276112075000,-0.125000000000
14.283800033000,-0.115000000000
14.291487991000,-0.100000000000
14.299175949000,-0.096000000000
14.306863907000,-0.091000000000
14.314551865000,-0.078000000000
14.322239823000,-0.068000000000
14.329927781000,-0.081000000000
14.337615739000,-0.105000000000
14.345303697000,-0.110000000000
14.352991655000,-0.100000000000
14.360679613000,-0.096000000000
14.368367571000,-0.096000000000
14.376055529000,-0.093000000000
14.383743487000,-0.091000000000
14.391431445000,-0.096000000000
14.399119403000,-0.125000000000
14.406807361000,-0.201000000000
14.414495319000,-0.265000000000
14.422183277000,-0.041000000000
14.429871235000,0.667000000000
14.437559193000,1.541000000000
14.445247154000,1.868000000000
14.452934693000,1.021000000000
14.460622232000,-0.300000000000
14.468309771000,-0.563000000000
14.475997310000,-0.140000000000
14.483684849000,-0.162000000000
14.491372388000,-0.295000000000
14.499059927000,-0.194000000000
14.506747466000,-0.160000000000
14.514435005000,-0.196000000000
14.522122544000,-0.157000000000
14.529810083000,-0.120000000000
14.537497622000,-0.115000000000
14.545185161000,-0.093000000000
14.552872700000,-0.066000000000
14.560560239000,-0.051000000000
14.568247778000,-0.036000000000
14.575935317000,-0.019000000000
14.583622856000,0.000000000000
14.591310395000,0.029000000000
14.598997934000,0.059000000000
14.606685473000,0.086000000000
14.614373012000,0.118000000000
14.622060551000,0.152000000000
14.629748090000,0.184000000000
14.637435629000,0.214000000000
14.645123168000,0.233000000000
14.652810707000,0.241000000000
14.660498246000,0.241000000000
14.668185785000,0.226000000000
14.675873324000,0.204000000000
14.683560863000,0.177000000000
14.691248402000,0.113000000000
14.698935941000,0.019000000000
14.706623480000,-0.061000000000
14.714311019000,-0.130000000000
14.721998558000,-0.192000000000
14.729686097000,-0.226000000000
14.737373636000,-0.238000000000
14.745061175000,-0.246000000000
14.752748714000,-0.246000000000
14.760436253000,-0.233000000000
14.768123792000,-0.219000000000
14.775811331000,-0.209000000000
14.783498870000,-0.196000000000
14.791186409000,-0.182000000000
14.798873948000,-0.174000000000
14.806561487000,-0.169000000000
14.814249026000,-0.152000000000
14.821936565000,-0.142000000000
14.829624104000,-0.147000000000
14.837311643000,-0.137000000000
14.844999182000,-0.125000000000
14.852686721000,-0.132000000000
14.860374260000,-0.135000000000
14.868061799000,-0.123000000000
14.875749338000,-0.118000000000
14.883436877000,-0.118000000000
14.891124416000,-0.123000000000
14.898811955000,-0.123000000000
14.906499494000,-0.118000000000
14.914187033000,-0.113000000000
14.921874572000,-0.113000000000
14.929562111000,-0.115000000000
14.937249650000,-0.108000000000
14.944937189000,-0.103000000000
14.952624728000,-0.105000000000
14.960312267000,-0.103000000000
14.967999806000,-0.096000000000
14.975687345000,-0.103000000000
14.983374884000,-0.110000000000
14.991062423000,-0.110000000000
14.998749962000,-0.103000000000
15.006437569000,-0.091000000000
15.014125526000,-0.078000000000
15.021813483000,-0.073000000000
15.029501440000,-0.073000000000
15.037189397000,-0.064000000000
15.044877354000,-0.059000000000
15.052565311000,-0.073000000000
15.060253268000,-0.096000000000
15.067941225000,-0.098000000000
15.075629182000,-0.088000000000
15.083317139000,-0.076000000000
15.091005096000,-0.071000000000
15.098693053000,-0.071000000000
15.106381010000,-0.076000000000
15.114068967000,-0.088000000000
15.121756924000,-0.140000000000
15.129444881000,-0.238000000000
15.137132838000,-0.189000000000
15.144820795000,0.327000000000
15.152508752000,1.213000000000
15.160196709000,1.885000000000
15.167884666000,1.563000000000
15.175572623000,0.224000000000
15.183260580000,-0.600000000000
15.190948537000,-0.290000000000
15.198636494000,-0.081000000000
15.206324451000,-0.253000000000
15.214012408000,-0.226000000000
15.221700365000,-0.132000000000
15.229388322000,-0.162000000000
15.237076279000,-0.155000000000
15.244764236000,-0.108000000000
15.252452193000,-0.093000000000
15.260140150000,-0.083000000000
15.267828107000,-0.064000000000
15.275516064000,-0.051000000000
15.283204021000,-0.032000000000
15.290891978000,0.000000000000
15.298579935000,0.022000000000
15.306267892000,0.036000000000
15.313955849000,0.066000000000
15.321643806000,0.103000000000
15.329331763000,0.132000000000
15.337019720000,0.155000000000
15.344707677000,0.192000000000
15.352395634000,0.228000000000
15.360083591000,0.241000000000
15.367771548000,0.253000000000
15.375459505000,0.268000000000
15.383147462000,0.260000000000
15.390835419000,0.236000000000
15.398523376000,0.201000000000
15.406211333000,0.157000000000
15.413899290000,0.081000000000
15.421587247000,-0.019000000000
15.429275204000,-0.113000000000
15.436963161000,-0.177000000000
15.444651118000,-0.211000000000
15.452339075000,-0.238000000000
15.460027032000,-0.253000000000
15.467714989000,-0.248000000000
15.475402946000,-0.238000000000
15.483090903000,-0.226000000000
15.490778860000,-0.216000000000
15.498466817000,-0.209000000000
15.506154774000,-0.199000000000
15.513842731000,-0.179000000000
15.521530688000,-0.169000000000
15.529218645000,-0.167000000000
15.536906602000,-0.152000000000
15.544594559000,-0.142000000000
15.552282516000,-0.142000000000
15.559970473000,-0.130000000000
15.567658502000,-0.123000000000
15.575346041000,-0.123000000000
15.583033580000,-0.118000000000
15.590721119000,-0.115000000000
15.598408658000,-0.120000000000
15.606096197000,-0.118000000000
15.613783736000,-0.113000000000
15.621471275000,-0.108000000000
15.629158814000,-0.113000000000
15.636846353000,-0.123000000000
15.644533892000,-0.118000000000
15.652221431000,-0.110000000000
15.659908970000,-0.105000000000
15.667596509000,-0.103000000000
15.675284048000,-0.115000000000
15.682971587000,-0.120000000000
15.690659126000,-0.110000000000
15.698346665000,-0.100000000000
15.706034204000,-0.093000000000
15.713721743000,-0.093000000000
15.721409282000,-0.083000000000
15.729096821000,-0.071000000000
15.736784360000,-0.071000000000
15.744471899000,-0.078000000000
15.752159438000,-0.100000000000
15.759846977000,-0.110000000000
15.767534516000,-0.098000000000
15.775222055000,-0.093000000000
15.782909594000,-0.091000000000
15.790597133000,-0.086000000000
15.798284672000,-0.086000000000
15.805972211000,-0.098000000000
15.813659750000,-0.130000000000
15.821347289000,-0.214000000000
15.829034828000,-0.253000000000
15.836722367000,0.064000000000
15.844409906000,0.859000000000
15.852097445000,1.683000000000
15.859784984000,1.799000000000
15.867472523000,0.745000000000
15.875160062000,-0.475000000000
15.882847601000,-0.497000000000
15.890535140000,-0.103000000000
15.898222679000,-0.211000000000
15.905910218000,-0.283000000000
15.913597757000,-0.152000000000
15.921285296000,-0.152000000000
15.928972835000,-0.192000000000
15.936660374000,-0.147000000000
15.944347913000,-0.115000000000
15.952035452000,-0.113000000000
15.959722991000,-0.091000000000
15.967410530000,-0.064000000000
15.975098069000,-0.051000000000
15.982785608000,-0.029000000000
15.990473147000,-0.007000000000
15.998160686000,0.004000000000
16.005848225000,0.029000000000
16.013535764000,0.064000000000
16.021223303000,0.093000000000
16.028910842000,0.118000000000
16.036598381000,0.150000000000
16.044285920000,0.184000000000
16.051973459000,0.204000000000
16.059660998000,0.214000000000
16.067348537000,0.221000000000
16.075036076000,0.214000000000
16.082723615000,0.196000000000
16.090411154000,0.174000000000
16.098098693000,0.130000000000
16.105786232000,0.056000000000
16.113473771000,-0.029000000000
16.121161310000,-0.110000000000
16.128848917000,-0.177000000000
16.136536735000,-0.221000000000
16.144224553000,-0.246000000000
16.151912371000,-0.263000000000
16.159600189000,-0.265000000000
16.167288007000,-0.258000000000
16.174975825000,-0.248000000000
16.182663643000,-0.238000000000
16.190351461000,-0.224000000000
16.198039279000,-0.214000000000
16.205727097000,-0.201000000000
16.213414915000,-0.189000000000
16.221102733000,-0.179000000000
16.228790551000,-0.174000000000
16.236478369000,-0.167000000000
16.244166187000,-0.160000000000
16.251854005000,-0.152000000000
16.259541823000,-0.147000000000
16.267229641000,-0.142000000000
16.274917459000,-0.145000000000
16.282605277000,-0.145000000000
16.290293095000,-0.140000000000
16.297980913000,-0.132000000000
16.305668731000,-0.135000000000
16.313356549000,-0.135000000000
16.321044367000,-0.132000000000
16.328732185000,-0.132000000000
16.336420003000,-0.132000000000
16.344107821000,-0.130000000000
16.351795639000,-0.128000000000
16.359483457000,-0.128000000000
16.367171275000,-0.123000000000
16.374859093000,-0.120000000000
16.382546911000,-0.125000000000
16.390234729000,-0.137000000000
16.397922547000,-0.140000000000
16.405610365000,-0.132000000000
16.413298183000,-0.115000000000
16.420986001000,-0.108000000000
16.428673819000,-0.105000000000
16.436361637000,-0.096000000000
16.444049455000,-0.083000000000
16.451737273000,-0.086000000000
16.459425091000,-0.105000000000
16.467112909000,-0.120000000000
16.474800727000,-0.118000000000
16.482488545000,-0.108000000000
16.490176363000,-0.105000000000
16.497864181000,-0.103000000000
16.505551999000,-0.096000000000
16.513239817000,-0.096000000000
16.520927635000,-0.118000000000
16.528615453000,-0.179000000000
16.536303271000,-0.263000000000
16.543991089000,-0.172000000000
16.551678907000,0.386000000000
16.559366725000,1.272000000000
16.567054543000,1.888000000000
16.574742361000,1.464000000000
16.582430179000,0.096000000000
16.590117997000,-0.640000000000
16.597805815000,-0.288000000000
16.605493633000,-0.105000000000
16.613181451000,-0.288000000000
16.620869269000,-0.251000000000
16.628557087000,-0.157000000000
16.636244905000,-0.194000000000
16.643932723000,-0.187000000000
16.651620541000,-0.132000000000
16.659308359000,-0.125000000000
16.666996177000,-0.120000000000
16.674683995000,-0.091000000000
16.682371813000,-0.071000000000
16.690059680000,-0.059000000000
16.697747359000,-0.036000000000
16.705435038000,-0.014000000000
16.713122717000,0.004000000000
16.720810396000,0.029000000000
16.728498075000,0.056000000000
16.736185754000,0.083000000000
16.743873433000,0.115000000000
16.751561112000,0.147000000000
16.759248791000,0.172000000000
16.766936470000,0.194000000000
16.774624149000,0.206000000000
16.782311828000,0.204000000000
16.789999507000,0.196000000000
16.797687186000,0.182000000000
16.805374865000,0.155000000000
16.813062544000,0.103000000000
16.820750223000,0.027000000000
16.828437902000,-0.056000000000
16.836125581000,-0.132000000000
16.843813260000,-0.189000000000
16.851500939000,-0.228000000000
16.859188618000,-0.251000000000
16.866876297000,-0.258000000000
16.874563976000,-0.256000000000
16.882251655000,-0.251000000000
16.889939334000,-0.238000000000
16.897627013000,-0.226000000000
16.905314692000,-0.216000000000
16.913002371000,-0.206000000000
16.920690050000,-0.194000000000
16.928377729000,-0.184000000000
16.936065408000,-0.174000000000
16.943753087000,-0.167000000000
16.951440766000,-0.162000000000
16.959128445000,-0.160000000000
16.966816124000,-0.152000000000
16.974503803000,-0.147000000000
16.982191482000,-0.147000000000
16.989879161000,-0.145000000000
16.997566840000,-0.142000000000
17.005254519000,-0.142000000000
17.012942198000,-0.142000000000
17.020629877000,-0.137000000000
17.028317556000,-0.135000000000
17.036005235000,-0.135000000000
17.043692914000,-0.132000000000
17.051380593000,-0.130000000000
17.059068272000,-0.128000000000
17.066755951000,-0.125000000000
17.074443630000,-0.123000000000
17.082131309000,-0.120000000000
17.089818988000,-0.123000000000
17.097506667000,-0.130000000000
17.105194346000,-0.135000000000
17.112882025000,-0.132000000000
17.120569704000,-0.118000000000
17.128257383000,-0.103000000000
17.135945062000,-0.103000000000
17.143632741000,-0.100000000000
17.151320420000,-0.083000000000
17.159008099000,-0.081000000000
17.166695778000,-0.098000000000
17.174383457000,-0.115000000000
17.182071136000,-0.113000000000
17.189758815000,-0.105000000000
17.197446494000,-0.103000000000
17.205134173000,-0.103000000000
17.212821852000,-0.098000000000
17.220509531000,-0.096000000000
17.228197210000,-0.108000000000
17.235884889000,-0.152000000000
17.243572568000,-0.246000000000
17.251260265000,-0.238000000000
17.258948223000,0.169000000000
17.266636181000,0.999000000000
17.274324139000,1.774000000000
17.282012097000,1.710000000000
17.289700055000,0.487000000000
17.297388013000,-0.580000000000
17.305075971000,-0.418000000000
17.312763929000,-0.086000000000
17.320451887000,-0.246000000000
17.328139845000,-0.283000000000
17.335827803000,-0.162000000000
17.343515761000,-0.179000000000
17.351203719000,-0.194000000000
17.358891677000,-0.142000000000
17.366579635000,-0.125000000000
17.374267593000,-0.125000000000
17.381955551000,-0.098000000000
17.389643509000,-0.073000000000
17.397331467000,-0.064000000000
17.405019425000,-0.044000000000
17.412707383000,-0.019000000000
17.420395341000,0.000000000000
17.428083299000,0.024000000000
17.435771257000,0.051000000000
17.443459215000,0.078000000000
17.451147173000,0.110000000000
17.458835131000,0.145000000000
17.466523089000,0.177000000000
17.474211047000,0.201000000000
17.481899005000,0.214000000000
17.489586963000,0.216000000000
17.497274921000,0.206000000000
17.504962879000,0.192000000000
17.512650837000,0.169000000000
17.520338795000,0.125000000000
17.528026753000,0.054000000000
17.535714711000,-0.032000000000
17.543402669000,-0.113000000000
17.551090627000,-0.177000000000
17.558778585000,-0.221000000000
17.566466543000,-0.246000000000
17.574154501000,-0.258000000000
17.581842459000,-0.258000000000
17.589530417000,-0.251000000000
17.597218375000,-0.241000000000
17.604906333000,-0.231000000000
17.612594291000,-0.219000000000
17.620282249000,-0.206000000000
17.627970207000,-0.194000000000
17.635658165000,-0.184000000000
17.643346123000,-0.177000000000
17.651034081000,-0.172000000000
17.658722039000,-0.164000000000
17.666409997000,-0.160000000000
17.674097955000,-0.155000000000
17.681785913000,-0.150000000000
17.689473871000,-0.147000000000
17.697161829000,-0.145000000000
17.704849787000,-0.145000000000
17.712537745000,-0.142000000000
17.720225703000,-0.142000000000
17.727913661000,-0.140000000000
17.735601619000,-0.137000000000
17.743289577000,-0.137000000000
17.750977535000,-0.135000000000
17.758665493000,-0.130000000000
17.766353451000,-0.130000000000
17.774041409000,-0.128000000000
17.781729367000,-0.123000000000
17.789417325000,-0.120000000000
17.797105283000,-0.118000000000
17.804793241000,-0.118000000000
17.812481202000,-0.120000000000
17.820168811000,-0.128000000000
17.827856420000,-0.130000000000
17.835544029000,-0.125000000000
17.843231638000,-0.108000000000
17.850919247000,-0.098000000000
17.858606856000,-0.098000000000
17.866294465000,-0.088000000000
17.873982074000,-0.073000000000
17.881669683000,-0.083000000000
17.889357292000,-0.108000000000
17.897044901000,-0.118000000000
17.904732510000,-0.110000000000
17.912420119000,-0.105000000000
17.920107728000,-0.103000000000
17.927795337000,-0.098000000000
17.935482946000,-0.096000000000
17.943170555000,-0.098000000000
17.950858164000,-0.120000000000
17.958545773000,-0.187000000000
17.966233382000,-0.273000000000
17.973920991000,-0.145000000000
17.981608600000,0.457000000000
17.989296209000,1.341000000000
17.996983818000,1.875000000000
18.004671427000,1.314000000000
18.012359036000,-0.059000000000
18.020046645000,-0.627000000000
18.027734254000,-0.226000000000
18.035421863000,-0.120000000000
18.043109472000,-0.292000000000
18.050797081000,-0.226000000000
18.058484690000,-0.152000000000
18.066172299000,-0.194000000000
18.073859908000,-0.174000000000
18.081547517000,-0.123000000000
18.089235126000,-0.120000000000
18.096922735000,-0.110000000000
18.104610344000,-0.083000000000
18.112297953000,-0.066000000000
18.119985562000,-0.051000000000
18.127673171000,-0.027000000000
18.135360780000,-0.007000000000
18.143048389000,0.012000000000
18.150735998000,0.039000000000
18.158423607000,0.066000000000
18.166111216000,0.093000000000
18.173798825000,0.125000000000
18.181486434000,0.160000000000
18.189174043000,0.189000000000
18.196861652000,0.206000000000
18.204549261000,0.216000000000
18.212236870000,0.214000000000
18.219924479000,0.206000000000
18.227612088000,0.189000000000
18.235299697000,0.160000000000
18.242987306000,0.108000000000
18.250674915000,0.029000000000
18.258362524000,-0.054000000000
18.266050133000,-0.130000000000
18.273737742000,-0.189000000000
18.281425351000,-0.226000000000
18.289112960000,-0.248000000000
18.296800569000,-0.253000000000
18.304488178000,-0.248000000000
18.312175787000,-0.241000000000
18.319863396000,-0.233000000000
18.327551005000,-0.219000000000
18.335238614000,-0.209000000000
18.342926223000,-0.196000000000
18.350613832000,-0.187000000000
18.358301441000,-0.177000000000
18.365989050000,-0.167000000000
18.373676704000,-0.162000000000
18.381364592000,-0.157000000000
18.389052480000,-0.150000000000
18.396740368000,-0.150000000000
18.404428256000,-0.150000000000
18.412116144000,-0.145000000000
18.419804032000,-0.142000000000
18.427491920000,-0.142000000000
18.435179808000,-0.142000000000
18.442867696000,-0.142000000000
18.450555584000,-0.140000000000
18.458243472000,-0.137000000000
18.465931360000,-0.135000000000
18.473619248000,-0.135000000000
18.481307136000,-0.135000000000
18.488995024000,-0.128000000000
18.496682912000,-0.128000000000
18.504370800000,-0.125000000000
18.512058688000,-0.120000000000
18.519746576000,-0.115000000000
18.527434464000,-0.118000000000
18.535122352000,-0.125000000000
18.542810240000,-0.130000000000
18.550498128000,-0.130000000000
18.558186016000,-0.118000000000
18.565873904000,-0.103000000000
18.573561792000,-0.098000000000
18.581249680000,-0.096000000000
18.588937568000,-0.078000000000
18.596625456000,-0.071000000000
18.604313344000,-0.086000000000
18.612001232000,-0.110000000000
18.619689120000,-0.110000000000
18.627377008000,-0.103000000000
18.635064896000,-0.100000000000
18.642752784000,-0.098000000000
18.650440672000,-0.093000000000
18.658128560000,-0.088000000000
18.665816448000,-0.096000000000
18.673504336000,-0.128000000000
18.681192224000,-0.206000000000
18.688880112000,-0.268000000000
18.696568000000,-0.034000000000
18.704255888000,0.681000000000
18.711943776000,1.545000000000
18.719631664000,1.846000000000
18.727319552000,0.962000000000
18.735007440000,-0.342000000000
18.742695328000,-0.553000000000
18.750383216000,-0.130000000000
18.758071104000,-0.167000000000
18.765758992000,-0.292000000000
18.773446880000,-0.184000000000
18.781134768000,-0.152000000000
18.788822656000,-0.192000000000
18.796510544000,-0.150000000000
18.804198432000,-0.115000000000
18.811886320000,-0.118000000000
18.819574208000,-0.100000000000
18.827262096000,-0.071000000000
18.834949984000,-0.059000000000
18.842637872000,-0.044000000000
18.850325760000,-0.017000000000
18.858013648000,0.002000000000
18.865701536000,0.024000000000
18.873389424000,0.049000000000
18.881077312000,0.073000000000
18.888765200000,0.103000000000
18.896453088000,0.135000000000
18.904140976000,0.167000000000
18.911828864000,0.192000000000
18.919516752000,0.209000000000
18.927204640000,0.216000000000
18.934892550000,0.211000000000
18.942580298000,0.199000000000
18.950268046000,0.179000000000
18.957955794000,0.142000000000
18.965643542000,0.086000000000
18.973331290000,0.009000000000
18.981019038000,-0.073000000000
18.988706786000,-0.147000000000
18.996394534000,-0.199000000000
19.004082282000,-0.233000000000
19.011770030000,-0.251000000000
19.019457778000,-0.248000000000
19.027145526000,-0.241000000000
19.034833274000,-0.236000000000
19.042521022000,-0.228000000000
19.050208770000,-0.216000000000
19.057896518000,-0.201000000000
19.065584266000,-0.182000000000
19.073272014000,-0.177000000000
19.080959762000,-0.177000000000
19.088647510000,-0.167000000000
19.096335258000,-0.157000000000
19.104023006000,-0.147000000000
19.111710754000,-0.142000000000
19.119398502000,-0.142000000000
19.127086250000,-0.137000000000
19.134773998000,-0.135000000000
19.142461746000,-0.132000000000
19.150149494000,-0.128000000000
19.157837242000,-0.130000000000
19.165524990000,-0.137000000000
19.173212738000,-0.132000000000
19.180900486000,-0.125000000000
19.188588234000,-0.128000000000
19.196275982000,-0.125000000000
19.203963730000,-0.115000000000
19.211651478000,-0.115000000000
19.219339226000,-0.118000000000
19.227026974000,-0.113000000000
19.234714722000,-0.115000000000
19.242402470000,-0.115000000000
19.250090218000,-0.115000000000
19.257777966000,-0.115000000000
19.265465714000,-0.110000000000
19.273153462000,-0.100000000000
19.280841210000,-0.091000000000
19.288528958000,-0.073000000000
19.296216706000,-0.059000000000
19.303904454000,-0.068000000000
19.311592202000,-0.093000000000
19.319279950000,-0.105000000000
19.326967698000,-0.098000000000
19.334655446000,-0.091000000000
19.342343194000,-0.088000000000
19.350030942000,-0.083000000000
19.357718690000,-0.078000000000
19.365406438000,-0.076000000000
19.373094186000,-0.103000000000
19.380781934000,-0.177000000000
19.388469682000,-0.260000000000
19.396157430000,-0.113000000000
19.403845178000,0.524000000000
19.411532926000,1.417000000000
19.419220674000,1.883000000000
19.426908422000,1.216000000000
19.434596170000,-0.142000000000
19.442283918000,-0.595000000000
19.449971666000,-0.169000000000
19.457659414000,-0.110000000000
19.465347162000,-0.283000000000
19.473034910000,-0.206000000000
19.480722658000,-0.132000000000
19.488410406000,-0.167000000000
19.496098226000,-0.152000000000
19.503785974000,-0.105000000000
19.511473722000,-0.093000000000
19.519161470000,-0.086000000000
19.526849218000,-0.059000000000
19.534536966000,-0.039000000000
19.542224714000,-0.029000000000
19.549912462000,-0.007000000000
19.557600210000,0.027000000000
19.565287958000,0.049000000000
19.572975706000,0.068000000000
19.580663454000,0.098000000000
19.588351202000,0.128000000000
19.596038950000,0.157000000000
19.603726698000,0.192000000000
19.611414446000,0.228000000000
19.619102194000,0.243000000000
19.626789942000,0.241000000000
19.634477690000,0.238000000000
19.642165438000,0.231000000000
19.649853186000,0.211000000000
19.657540934000,0.179000000000
19.665228682000,0.123000000000
19.672916430000,0.034000000000
19.680604178000,-0.061000000000
19.688291926000,-0.140000000000
19.695979674000,-0.189000000000
19.703667422000,-0.221000000000
19.711355170000,-0.241000000000
19.719042918000,-0.248000000000
19.726730666000,-0.246000000000
19.734418414000,-0.233000000000
19.742106162000,-0.224000000000
19.749793910000,-0.211000000000
19.757481658000,-0.204000000000
19.765169406000,-0.194000000000
19.772857154000,-0.174000000000
19.780544902000,-0.157000000000
19.788232650000,-0.157000000000
19.795920398000,-0.157000000000
19.803608146000,-0.145000000000
19.811295894000,-0.142000000000
19.818983642000,-0.130000000000
19.826671390000,-0.120000000000
19.834359138000,-0.128000000000
19.842046886000,-0.128000000000
19.849734634000,-0.120000000000
19.857422382000,-0.120000000000
19.865110130000,-0.125000000000
19.872797878000,-0.123000000000
19.880485626000,-0.118000000000
19.888173374000,-0.115000000000
19.895861122000,-0.108000000000
19.903548870000,-0.110000000000
19.911236618000,-0.123000000000
19.918924366000,-0.130000000000
19.926612114000,-0.132000000000
19.934299862000,-0.118000000000
19.941987610000,-0.098000000000
19.949675358000,-0.098000000000
19.957363106000,-0.103000000000
19.965050854000,-0.091000000000
19.972738602000,-0.073000000000
19.980426350000,-0.068000000000
19.988114098000,-0.088000000000
19.995801846000,-0.115000000000
20.003489594000,-0.108000000000
20.011177342000,-0.091000000000
20.018865090000,-0.096000000000
20.026552838000,-0.091000000000
20.034240586000,-0.078000000000
20.041928334000,-0.088000000000
20.049616082000,-0.110000000000
20.057303898000,-0.147000000000
20.064991786000,-0.231000000000
20.072679674000,-0.201000000000
20.080367562000,0.285000000000
20.088055450000,1.147000000000
20.095743338000,1.811000000000
20.103431226000,1.545000000000
20.111119114000,0.268000000000
20.118807002000,-0.610000000000
20.126494890000,-0.339000000000
20.134182778000,-0.088000000000
20.141870666000,-0.253000000000
20.149558554000,-0.243000000000
20.157246442000,-0.145000000000
20.164934330000,-0.172000000000
20.172622218000,-0.167000000000
20.180310106000,-0.115000000000
20.187997994000,-0.108000000000
20.195685882000,-0.105000000000
20.203373770000,-0.081000000000
20.211061658000,-0.059000000000
20.218749546000,-0.041000000000
20.226437434000,-0.022000000000
20.234125322000,-0.002000000000
20.241813210000,0.017000000000
20.249501098000,0.046000000000
20.257188986000,0.076000000000
20.264876874000,0.105000000000
20.272564762000,0.132000000000
20.280252650000,0.162000000000
20.287940538000,0.189000000000
20.295628426000,0.206000000000
20.303316314000,0.216000000000
20.311004202000,0.214000000000
20.318692090000,0.196000000000
20.326379978000,0.174000000000
20.334067866000,0.150000000000
20.341755754000,0.100000000000
20.349443642000,0.027000000000
20.357131530000,-0.056000000000
20.364819418000,-0.132000000000
20.372507306000,-0.192000000000
20.380195194000,-0.226000000000
20.387883082000,-0.246000000000
20.395570970000,-0.253000000000
20.403258858000,-0.248000000000
20.410946746000,-0.241000000000
20.418634634000,-0.233000000000
20.426322522000,-0.221000000000
20.434010410000,-0.209000000000
20.441698298000,-0.201000000000
20.449386186000,-0.189000000000
20.457074074000,-0.177000000000
20.464761962000,-0.169000000000
20.472449850000,-0.160000000000
20.480137738000,-0.150000000000
20.487825626000,-0.147000000000
20.495513514000,-0.145000000000
20.503201402000,-0.137000000000
20.510889290000,-0.132000000000
20.518577178000,-0.135000000000
20.526265066000,-0.135000000000
20.533952954000,-0.130000000000
20.541640842000,-0.128000000000
20.549328730000,-0.130000000000
20.557016618000,-0.130000000000
20.564704506000,-0.130000000000
20.572392394000,-0.128000000000
20.580080282000,-0.128000000000
20.587768170000,-0.125000000000
20.595456058000,-0.125000000000
20.603143946000,-0.128000000000
20.610831834000,-0.132000000000
20.618519748000,-0.135000000000
20.626207357000,-0.125000000000
20.633894966000,-0.108000000000
20.641582575000,-0.105000000000
20.649270184000,-0.105000000000
20.656957793000,-0.096000000000
20.664645402000,-0.086000000000
20.672333011000,-0.093000000000
20.680020620000,-0.115000000000
20.687708229000,-0.120000000000
20.695395838000,-0.108000000000
20.703083447000,-0.103000000000
20.710771056000,-0.103000000000
20.718458665000,-0.098000000000
20.726146274000,-0.096000000000
20.733833883000,-0.105000000000
20.741521492000,-0.145000000000
20.749209101000,-0.231000000000
20.756896710000,-0.263000000000
20.764584319000,0.061000000000
20.772271928000,0.849000000000
20.779959537000,1.681000000000
20.787647146000,1.809000000000
20.795334755000,0.743000000000
20.803022364000,-0.480000000000
20.810709973000,-0.502000000000
20.818397582000,-0.100000000000
20.826085191000,-0.209000000000
20.833772800000,-0.300000000000
20.841460409000,-0.179000000000
20.849148018000,-0.169000000000
20.856835627000,-0.201000000000
20.864523236000,-0.155000000000
20.872210845000,-0.125000000000
20.879898454000,-0.125000000000
20.887586063000,-0.103000000000
20.895273672000,-0.078000000000
20.902961281000,-0.066000000000
20.910648890000,-0.049000000000
20.918336499000,-0.027000000000
20.926024108000,-0.004000000000
20.933711717000,0.019000000000
20.941399326000,0.046000000000
20.949086935000,0.076000000000
20.956774544000,0.105000000000
20.964462153000,0.132000000000
20.972149762000,0.167000000000
20.979837371000,0.194000000000
20.987524980000,0.204000000000
20.995212589000,0.204000000000
21.002900198000,0.201000000000
21.010587807000,0.189000000000
21.018275416000,0.167000000000
21.025963025000,0.125000000000
21.033650634000,0.059000000000
21.041338243000,-0.024000000000
21.049025852000,-0.105000000000
21.056713461000,-0.167000000000
21.064401070000,-0.211000000000
21.072088679000,-0.236000000000
21.079776288000,-0.241000000000
21.087463897000,-0.243000000000
21.095151506000,-0.238000000000
21.102839115000,-0.228000000000
21.110526724000,-0.214000000000
21.118214333000,-0.199000000000
21.125901942000,-0.192000000000
21.133589551000,-0.182000000000
21.141277160000,-0.172000000000
21.148964769000,-0.162000000000
21.156652378000,-0.157000000000
21.164339987000,-0.147000000000
21.172027596000,-0.142000000000
21.179715246000,-0.140000000000
21.187403204000,-0.135000000000
21.195091162000,-0.132000000000
21.202779120000,-0.135000000000
21.210467078000,-0.132000000000
21.218155036000,-0.128000000000
21.225842994000,-0.128000000000
21.233530952000,-0.125000000000
21.241218910000,-0.125000000000
21.248906868000,-0.125000000000
21.256594826000,-0.123000000000
21.264282784000,-0.120000000000
21.271970742000,-0.120000000000
21.279658700000,-0.123000000000
21.287346658000,-0.130000000000
21.295034616000,-0.132000000000
21.302722574000,-0.123000000000
21.310410532000,-0.105000000000
21.318098490000,-0.100000000000
21.325786448000,-0.100000000000
21.333474406000,-0.086000000000
21.341162364000,-0.071000000000
21.348850322000,-0.078000000000
21.356538280000,-0.103000000000
21.364226238000,-0.113000000000
21.371914196000,-0.105000000000
21.379602154000,-0.098000000000
21.387290112000,-0.096000000000
21.394978070000,-0.096000000000
21.402666028000,-0.093000000000
21.410353986000,-0.098000000000
21.418041944000,-0.130000000000
21.425729902000,-0.214000000000
21.433417860000,-0.268000000000
21.441105818000,-0.002000000000
21.448793776000,0.743000000000
21.456481734000,1.605000000000
21.464169692000,1.843000000000
21.471857650000,0.886000000000
21.479545608000,-0.393000000000
21.487233566000,-0.534000000000
21.494921524000,-0.115000000000
21.502609482000,-0.177000000000
21.510297440000,-0.290000000000
21.517985398000,-0.182000000000
21.525673356000,-0.155000000000
21.533361314000,-0.189000000000
21.541049272000,-0.147000000000
21.548737230000,-0.113000000000
21.556425188000,-0.115000000000
21.564113146000,-0.096000000000
21.571801104000,-0.071000000000
21.579489062000,-0.056000000000
21.587177020000,-0.039000000000
21.594864978000,-0.014000000000
21.602552936000,0.004000000000
21.610240894000,0.024000000000
21.617928852000,0.054000000000
21.625616810000,0.086000000000
21.633304768000,0.115000000000
21.640992726000,0.145000000000
21.648680684000,0.174000000000
21.656368642000,0.201000000000
21.664056600000,0.216000000000
21.671744558000,0.221000000000
21.679432516000,0.216000000000
21.687120474000,0.201000000000
21.694808432000,0.179000000000
21.702496390000,0.137000000000
21.710184348000,0.066000000000
21.717872306000,-0.022000000000
21.725560264000,-0.100000000000
21.733248222000,-0.164000000000
21.740936183000,-0.211000000000
21.748623862000,-0.241000000000
21.756311541000,-0.251000000000
21.763999220000,-0.248000000000
21.771686899000,-0.243000000000
21.779374578000,-0.233000000000
21.787062257000,-0.224000000000
21.794749936000,-0.211000000000
21.802437615000,-0.201000000000
21.810125294000,-0.192000000000
21.817812973000,-0.179000000000
21.825500652000,-0.172000000000
21.833188331000,-0.164000000000
21.840876010000,-0.157000000000
21.848563689000,-0.152000000000
21.856251368000,-0.147000000000
21.863939047000,-0.142000000000
21.871626726000,-0.140000000000
21.879314405000,-0.140000000000
21.887002084000,-0.140000000000
21.894689763000,-0.137000000000
21.902377442000,-0.135000000000
21.910065121000,-0.135000000000
21.917752800000,-0.132000000000
21.925440479000,-0.130000000000
21.933128158000,-0.130000000000
21.940815837000,-0.128000000000
21.948503516000,-0.123000000000
21.956191195000,-0.123000000000
21.963878874000,-0.130000000000
21.971566553000,-0.135000000000
21.979254232000,-0.135000000000
21.986941911000,-0.128000000000
21.994629590000,-0.110000000000
22.002317269000,-0.100000000000
22.010004948000,-0.100000000000
22.017692627000,-0.091000000000
22.025380306000,-0.073000000000
22.033067985000,-0.086000000000
22.040755664000,-0.113000000000
22.048443343000,-0.118000000000
22.056131022000,-0.105000000000
22.063818701000,-0.100000000000
22.071506380000,-0.100000000000
22.079194059000,-0.098000000000
22.086881738000,-0.096000000000
22.094569417000,-0.100000000000
22.102257096000,-0.132000000000
22.109944775000,-0.216000000000
22.117632454000,-0.273000000000
22.125320133000,-0.017000000000
22.133007812000,0.718000000000
22.140695491000,1.582000000000
22.148383170000,1.834000000000
22.156070849000,0.893000000000
22.163758528000,-0.388000000000
22.171446207000,-0.546000000000
22.179133886000,-0.130000000000
22.186821565000,-0.182000000000
22.194509244000,-0.295000000000
22.202196923000,-0.187000000000
22.209884602000,-0.164000000000
22.217572281000,-0.199000000000
22.225259960000,-0.157000000000
22.232947639000,-0.125000000000
22.240635318000,-0.128000000000
22.248322997000,-0.108000000000
22.256010676000,-0.081000000000
22.263698355000,-0.068000000000
22.271386034000,-0.051000000000
22.279073713000,-0.027000000000
22.286761392000,-0.007000000000
22.294449071000,0.014000000000
22.302136772000,0.039000000000
22.309824381000,0.066000000000
22.317511990000,0.096000000000
22.325199599000,0.130000000000
22.332887208000,0.160000000000
22.340574817000,0.187000000000
22.348262426000,0.201000000000
22.355950035000,0.201000000000
22.363637644000,0.196000000000
22.371325253000,0.184000000000
22.379012862000,0.160000000000
22.386700471000,0.118000000000
22.394388080000,0.054000000000
22.402075689000,-0.029000000000
22.409763298000,-0.113000000000
22.417450907000,-0.182000000000
22.425138516000,-0.228000000000
22.432826125000,-0.256000000000
22.440513734000,-0.265000000000
22.448201343000,-0.265000000000
22.455888952000,-0.260000000000
22.463576561000,-0.251000000000
22.471264170000,-0.236000000000
22.478951779000,-0.226000000000
22.486639388000,-0.216000000000
22.494326997000,-0.206000000000
22.502014606000,-0.194000000000
22.509702215000,-0.182000000000
22.517389824000,-0.177000000000
22.525077433000,-0.169000000000
22.532765042000,-0.162000000000
22.540452651000,-0.160000000000
22.548140260000,-0.157000000000
22.555827869000,-0.152000000000
22.563515478000,-0.152000000000
22.571203087000,-0.150000000000
22.578890696000,-0.147000000000
22.586578305000,-0.145000000000
22.594265914000,-0.142000000000
22.601953523000,-0.140000000000
22.609641132000,-0.137000000000
22.617328741000,-0.140000000000
22.625016350000,-0.140000000000
22.632703959000,-0.135000000000
22.640391568000,-0.132000000000
22.648079177000,-0.132000000000
22.655766786000,-0.137000000000
22.663454395000,-0.142000000000
22.671142004000,-0.137000000000
22.678829613000,-0.123000000000
22.686517222000,-0.110000000000
22.694204831000,-0.105000000000
22.701892440000,-0.100000000000
22.709580049000,-0.083000000000
22.717267658000,-0.086000000000
22.724955267000,-0.113000000000
22.732642876000,-0.118000000000
22.740330485000,-0.108000000000
22.748018094000,-0.110000000000
22.755705703000,-0.118000000000
22.763393312000,-0.105000000000
22.771080921000,-0.096000000000
22.778768530000,-0.098000000000
22.786456139000,-0.120000000000
22.794143748000,-0.179000000000
22.801831357000,-0.263000000000
22.809518966000,-0.164000000000
22.817206575000,0.403000000000
22.824894184000,1.294000000000
22.832581793000,1.878000000000
22.840269402000,1.363000000000
22.847957011000,-0.012000000000
22.855644620000,-0.635000000000
22.863332274000,-0.238000000000
22.871020022000,-0.105000000000
22.878707770000,-0.288000000000
22.886395518000,-0.226000000000
22.894083266000,-0.142000000000
22.901771014000,-0.189000000000
22.909458762000,-0.172000000000
22.917146510000,-0.113000000000
22.924834258000,-0.118000000000
22.932522006000,-0.118000000000
22.940209754000,-0.083000000000
22.947897502000,-0.064000000000
22.955585250000,-0.051000000000
22.963272998000,-0.019000000000
22.970960746000,0.002000000000
22.978648494000,0.012000000000
22.986336242000,0.044000000000
22.994023990000,0.078000000000
23.001711738000,0.096000000000
23.009399486000,0.123000000000
23.017087234000,0.172000000000
23.024774982000,0.199000000000
23.032462730000,0.211000000000
23.040150478000,0.221000000000
23.047838226000,0.216000000000
23.055525974000,0.204000000000
23.063213722000,0.192000000000
23.070901470000,0.155000000000
23.078589218000,0.093000000000
23.086276966000,0.012000000000
23.093964714000,-0.081000000000
23.101652462000,-0.152000000000
23.109340210000,-0.196000000000
23.117027958000,-0.236000000000
23.124715706000,-0.258000000000
23.132403454000,-0.256000000000
23.140091202000,-0.246000000000
23.147778950000,-0.246000000000
23.155466698000,-0.236000000000
23.163154446000,-0.221000000000
23.170842194000,-0.214000000000
23.178529942000,-0.206000000000
23.186217690000,-0.192000000000
23.193905438000,-0.182000000000
23.201593186000,-0.164000000000
23.209280934000,-0.152000000000
23.216968682000,-0.152000000000
23.224656430000,-0.155000000000
23.232344178000,-0.145000000000
23.240031926000,-0.140000000000
23.247719674000,-0.145000000000
23.255407422000,-0.145000000000
23.263095170000,-0.135000000000
23.270782918000,-0.137000000000
23.278470666000,-0.140000000000
23.286158414000,-0.132000000000
23.293846162000,-0.123000000000
23.301533910000,-0.120000000000
23.309221658000,-0.123000000000
23.316909406000,-0.135000000000
23.324597154000,-0.147000000000
23.332284902000,-0.142000000000
23.339972650000,-0.132000000000
23.347660398000,-0.123000000000
23.355348146000,-0.110000000000
23.363035894000,-0.103000000000
23.370723642000,-0.091000000000
23.378411390000,-0.076000000000
23.386099138000,-0.088000000000
23.393786886000,-0.118000000000
23.401474634000,-0.120000000000
23.409162382000,-0.118000000000
23.416850130000,-0.115000000000
23.424537946000,-0.108000000000
23.432225834000,-0.100000000000
23.439913722000,-0.093000000000
23.447601610000,-0.093000000000
23.455289498000,-0.118000000000
23.462977386000,-0.189000000000
23.470665274000,-0.275000000000
23.478353162000,-0.152000000000
23.486041050000,0.443000000000
23.493728938000,1.336000000000
23.501416826000,1.883000000000
23.509104714000,1.314000000000
23.516792602000,-0.068000000000
23.524480490000,-0.630000000000
23.532168378000,-0.228000000000
23.539856266000,-0.130000000000
23.547544154000,-0.290000000000
23.555232042000,-0.206000000000
23.562919930000,-0.140000000000
23.570607818000,-0.189000000000
23.578295706000,-0.160000000000
23.585983594000,-0.105000000000
23.593671482000,-0.110000000000
23.601359370000,-0.103000000000
23.609047258000,-0.071000000000
23.616735146000,-0.056000000000
23.624423034000,-0.044000000000
23.632110922000,-0.012000000000
23.639798810000,0.014000000000
23.647486698000,0.032000000000
23.655174586000,0.061000000000
23.662862474000,0.091000000000
23.670550362000,0.118000000000
23.678238250000,0.160000000000
23.685926138000,0.192000000000
23.693614026000,0.204000000000
23.701301914000,0.221000000000
23.708989802000,0.236000000000
23.716677690000,0.231000000000
23.724365578000,0.206000000000
23.732053466000,0.184000000000
23.739741354000,0.152000000000
23.747429242000,0.083000000000
23.755117130000,-0.012000000000
23.762805018000,-0.096000000000
23.770492906000,-0.167000000000
23.778180794000,-0.224000000000
23.785868682000,-0.251000000000
23.793556570000,-0.260000000000
23.801244458000,-0.265000000000
23.808932346000,-0.263000000000
23.816620234000,-0.248000000000
23.824308122000,-0.241000000000
23.831996010000,-0.238000000000
23.839683898000,-0.221000000000
23.847371786000,-0.206000000000
23.855059674000,-0.201000000000
23.862747562000,-0.192000000000
23.870435450000,-0.182000000000
23.878123338000,-0.174000000000
23.885811226000,-0.167000000000
23.893499114000,-0.160000000000
23.901187002000,-0.155000000000
23.908874890000,-0.147000000000
23.916562778000,-0.140000000000
23.924250666000,-0.140000000000
23.931938554000,-0.145000000000
23.939626442000,-0.142000000000
23.947314330000,-0.142000000000
23.955002218000,-0.142000000000
23.962690106000,-0.140000000000
23.970377994000,-0.135000000000
23.978065882000,-0.135000000000
23.985753796000,-0.140000000000
23.993441405000,-0.147000000000
24.001129014000,-0.147000000000
24.008816623000,-0.145000000000
24.016504232000,-0.135000000000
24.024191841000,-0.123000000000
24.031879450000,-0.118000000000
24.039567059000,-0.115000000000
24.047254668000,-0.100000000000
24.054942277000,-0.091000000000
24.062629886000,-0.110000000000
24.070317495000,-0.132000000000
24.078005104000,-0.130000000000
24.085692713000,-0.118000000000
24.093380322000,-0.118000000000
24.101067931000,-0.118000000000
24.108755540000,-0.110000000000
24.116443149000,-0.108000000000
24.124130758000,-0.123000000000
24.131818367000,-0.172000000000
24.139505976000,-0.260000000000
24.147193585000,-0.224000000000
24.154881194000,0.251000000000
24.162568803000,1.110000000000
24.170256412000,1.809000000000
24.177944021000,1.577000000000
24.185631630000,0.283000000000
24.193319239000,-0.632000000000
24.201006848000,-0.366000000000
24.208694457000,-0.096000000000
24.216382066000,-0.268000000000
24.224069675000,-0.268000000000
24.231757284000,-0.160000000000
24.239444893000,-0.187000000000
24.247132502000,-0.189000000000
24.254820111000,-0.135000000000
24.262507720000,-0.125000000000
24.270195329000,-0.125000000000
24.277882938000,-0.096000000000
24.285570547000,-0.073000000000
24.293258156000,-0.064000000000
24.300945765000,-0.041000000000
24.308633374000,-0.017000000000
24.316320983000,0.000000000000
24.324008592000,0.022000000000
24.331696201000,0.054000000000
24.339383810000,0.083000000000
24.347071419000,0.110000000000
24.354759028000,0.142000000000
24.362446637000,0.172000000000
24.370134246000,0.189000000000
24.377821855000,0.196000000000
24.385509464000,0.194000000000
24.393197073000,0.182000000000
24.400884682000,0.164000000000
24.408572291000,0.137000000000
24.416259900000,0.086000000000
24.423947509000,0.007000000000
24.431635118000,-0.081000000000
24.439322727000,-0.152000000000
24.447010336000,-0.199000000000
24.454697945000,-0.233000000000
24.462385554000,-0.256000000000
24.470073163000,-0.256000000000
24.477760772000,-0.251000000000
24.485448381000,-0.243000000000
24.493135990000,-0.233000000000
24.500823599000,-0.221000000000
24.508511208000,-0.209000000000
24.516198817000,-0.196000000000
24.523886426000,-0.184000000000
24.531574035000,-0.177000000000
24.539261644000,-0.167000000000
24.546949294000,-0.157000000000
24.554637252000,-0.155000000000
24.562325210000,-0.150000000000
24.570013168000,-0.142000000000
24.577701126000,-0.140000000000
24.585389084000,-0.140000000000
24.593077042000,-0.135000000000
24.600765000000,-0.130000000000
24.608452958000,-0.130000000000
24.616140916000,-0.135000000000
24.623828874000,-0.132000000000
24.631516832000,-0.130000000000
24.639204790000,-0.130000000000
24.646892748000,-0.128000000000
24.654580706000,-0.125000000000
24.662268664000,-0.123000000000
24.669956622000,-0.125000000000
24.677644580000,-0.130000000000
24.685332538000,-0.135000000000
24.693020496000,-0.130000000000
24.700708454000,-0.118000000000
24.708396412000,-0.105000000000
24.716084370000,-0.105000000000
24.723772328000,-0.098000000000
24.731460286000,-0.081000000000
24.739148244000,-0.073000000000
24.746836202000,-0.096000000000
24.754524160000,-0.115000000000
24.762212118000,-0.113000000000
24.769900076000,-0.103000000000
24.777588034000,-0.100000000000
24.785275992000,-0.093000000000
24.792963950000,-0.091000000000
24.800651908000,-0.096000000000
24.808339866000,-0.105000000000
24.816027824000,-0.150000000000
24.823715782000,-0.243000000000
24.831403740000,-0.231000000000
24.839091698000,0.199000000000
24.846779656000,1.046000000000
24.854467614000,1.794000000000
24.862155572000,1.654000000000
24.869843530000,0.398000000000
24.877531488000,-0.590000000000
24.885219446000,-0.381000000000
24.892907404000,-0.081000000000
24.900595362000,-0.248000000000
24.908283320000,-0.268000000000
24.915971278000,-0.155000000000
24.923659236000,-0.174000000000
24.931347194000,-0.189000000000
24.939035152000,-0.137000000000
24.946723110000,-0.120000000000
24.954411068000,-0.115000000000
24.962099026000,-0.091000000000
24.969786984000,-0.068000000000
24.977474942000,-0.054000000000
24.985162900000,-0.034000000000
24.992850858000,-0.017000000000
25.000538816000,0.002000000000
25.008226774000,0.029000000000
25.015914732000,0.059000000000
25.023602690000,0.088000000000
25.031290648000,0.118000000000
25.038978606000,0.150000000000
25.046666564000,0.182000000000
25.054354522000,0.204000000000
25.062042480000,0.214000000000
25.069730438000,0.211000000000
25.077418396000,0.201000000000
25.085106354000,0.184000000000
25.092794312000,0.155000000000
25.100482270000,0.105000000000
25.108170231000,0.027000000000
25.115857770000,-0.061000000000
25.123545309000,-0.135000000000
25.131232848000,-0.194000000000
25.138920387000,-0.231000000000
25.146607926000,-0.251000000000
25.154295465000,-0.256000000000
25.161983004000,-0.256000000000
25.169670543000,-0.248000000000
25.177358082000,-0.236000000000
25.185045621000,-0.224000000000
25.192733160000,-0.211000000000
25.200420699000,-0.201000000000
25.208108238000,-0.192000000000
25.215795777000,-0.182000000000
25.223483316000,-0.174000000000
25.231170855000,-0.164000000000
25.238858394000,-0.162000000000
25.246545933000,-0.160000000000
25.254233472000,-0.152000000000
25.261921011000,-0.147000000000
25.269608550000,-0.147000000000
25.277296089000,-0.145000000000
25.284983628000,-0.142000000000
25.292671167000,-0.140000000000
25.300358706000,-0.140000000000
25.308046245000,-0.137000000000
25.315733784000,-0.135000000000
25.323421323000,-0.135000000000
25.331108862000,-0.135000000000
25.338796401000,-0.130000000000
25.346483940000,-0.125000000000
25.354171479000,-0.125000000000
25.361859018000,-0.132000000000
25.369546557000,-0.137000000000
25.377234096000,-0.140000000000
25.384921635000,-0.128000000000
25.392609174000,-0.113000000000
25.400296713000,-0.108000000000
25.407984252000,-0.105000000000
25.415671791000,-0.093000000000
25.423359330000,-0.081000000000
25.431046869000,-0.088000000000
25.438734408000,-0.115000000000
25.446421947000,-0.128000000000
25.454109486000,-0.115000000000
25.461797025000,-0.108000000000
25.469484564000,-0.108000000000
25.477172103000,-0.103000000000
25.484859642000,-0.098000000000
25.492547181000,-0.108000000000
25.500234720000,-0.140000000000
25.507922259000,-0.221000000000
25.515609798000,-0.273000000000
25.523297337000,-0.012000000000
25.530984876000,0.713000000000
25.538672415000,1.570000000000
25.546359954000,1.824000000000
25.554047493000,0.873000000000
25.561735032000,-0.401000000000
25.569422571000,-0.539000000000
25.577110110000,-0.125000000000
25.584797649000,-0.189000000000
25.592485188000,-0.297000000000
25.600172727000,-0.187000000000
25.607860266000,-0.162000000000
25.615547805000,-0.196000000000
25.623235344000,-0.157000000000
25.630922883000,-0.125000000000
25.638610422000,-0.125000000000
25.646297961000,-0.103000000000
25.653985500000,-0.078000000000
25.661673039000,-0.064000000000
25.669360646000,-0.046000000000
25.677048394000,-0.024000000000
25.684736142000,0.000000000000
25.692423890000,0.022000000000
25.700111638000,0.046000000000
25.707799386000,0.073000000000
25.715487134000,0.105000000000
25.723174882000,0.137000000000
25.730862630000,0.169000000000
25.738550378000,0.196000000000
25.746238126000,0.211000000000
25.753925874000,0.211000000000
25.761613622000,0.206000000000
25.769301370000,0.192000000000
25.776989118000,0.167000000000
25.784676866000,0.123000000000
25.792364614000,0.054000000000
25.800052362000,-0.032000000000
25.807740110000,-0.113000000000
25.815427858000,-0.179000000000
25.823115606000,-0.224000000000
25.830803354000,-0.253000000000
25.838491102000,-0.263000000000
25.846178850000,-0.260000000000
25.853866598000,-0.256000000000
25.861554346000,-0.246000000000
25.869242094000,-0.231000000000
25.876929842000,-0.221000000000
25.884617590000,-0.209000000000
25.892305338000,-0.199000000000
25.899993086000,-0.194000000000
25.907680834000,-0.182000000000
25.915368582000,-0.169000000000
25.923056330000,-0.164000000000
25.930744078000,-0.160000000000
25.938431826000,-0.162000000000
25.946119574000,-0.164000000000
25.953807322000,-0.157000000000
25.961495070000,-0.142000000000
25.969182818000,-0.142000000000
25.976870566000,-0.150000000000
25.984558314000,-0.152000000000
25.992246062000,-0.147000000000
25.999933810000,-0.142000000000
26.007621558000,-0.140000000000
26.015309306000,-0.132000000000
26.022997054000,-0.130000000000
26.030684802000,-0.130000000000
26.038372550000,-0.128000000000
26.046060298000,-0.132000000000
26.053748046000,-0.142000000000
26.061435794000,-0.142000000000
26.069123542000,-0.137000000000
26.076811290000,-0.128000000000
26.084499038000,-0.110000000000
26.092186786000,-0.103000000000
26.099874534000,-0.098000000000
26.107562282000,-0.083000000000
26.115250030000,-0.078000000000
26.122937778000,-0.100000000000
26.130625526000,-0.123000000000
26.138313274000,-0.115000000000
26.146001022000,-0.100000000000
26.153688770000,-0.108000000000
26.161376518000,-0.105000000000
26.169064266000,-0.091000000000
26.176752014000,-0.088000000000
26.184439762000,-0.108000000000
26.192127510000,-0.157000000000
26.199815258000,-0.248000000000
26.207503006000,-0.241000000000
26.215190754000,0.189000000000
26.222878502000,1.043000000000
26.230566322000,1.794000000000
26.238253931000,1.659000000000
26.245941540000,0.408000000000
26.253629149000,-0.585000000000
26.261316758000,-0.381000000000
26.269004367000,-0.083000000000
26.276691976000,-0.243000000000
26.284379585000,-0.256000000000
26.292067194000,-0.147000000000
26.299754803000,-0.174000000000
26.307442412000,-0.182000000000
26.315130021000,-0.125000000000
26.322817630000,-0.118000000000
26.330505239000,-0.118000000000
26.338192848000,-0.076000000000
26.345880457000,-0.049000000000
26.353568066000,-0.046000000000
26.361255675000,-0.032000000000
26.368943284000,0.000000000000
26.376630893000,0.027000000000
26.384318502000,0.051000000000
26.392006111000,0.071000000000
26.399693720000,0.096000000000
26.407381329000,0.130000000000
26.415068938000,0.169000000000
26.422756547000,0.206000000000
26.430444156000,0.221000000000
26.438131765000,0.226000000000
26.445819374000,0.228000000000
26.453506983000,0.214000000000
26.461194592000,0.196000000000
26.468882201000,0.179000000000
26.476569810000,0.128000000000
26.484257419000,0.036000000000
26.491945028000,-0.054000000000
26.499632637000,-0.118000000000
26.507320246000,-0.179000000000
26.515007855000,-0.233000000000
26.522695464000,-0.251000000000
26.530383073000,-0.253000000000
26.538070682000,-0.248000000000
26.545758291000,-0.236000000000
26.553445900000,-0.231000000000
26.561133509000,-0.228000000000
26.568821118000,-0.214000000000
26.576508727000,-0.194000000000
26.584196336000,-0.182000000000
26.591883945000,-0.174000000000
26.599571554000,-0.167000000000
26.607259163000,-0.162000000000
26.614946772000,-0.152000000000
26.622634381000,-0.137000000000
26.630321990000,-0.135000000000
26.638009599000,-0.142000000000
26.645697208000,-0.140000000000
26.653384817000,-0.125000000000
26.661072426000,-0.118000000000
26.668760035000,-0.125000000000
26.676447644000,-0.125000000000
26.684135253000,-0.120000000000
26.691822862000,-0.123000000000
26.699510471000,-0.130000000000
26.707198080000,-0.128000000000
26.714885689000,-0.115000000000
26.722573298000,-0.110000000000
26.730260907000,-0.115000000000
26.737948516000,-0.118000000000
26.745636125000,-0.120000000000
26.753323734000,-0.120000000000
26.761011343000,-0.113000000000
26.768698952000,-0.100000000000
26.776386561000,-0.098000000000
26.784074170000,-0.088000000000
26.791761824000,-0.073000000000
26.799449503000,-0.071000000000
26.807137182000,-0.088000000000
26.814824861000,-0.103000000000
26.822512540000,-0.100000000000
26.830200219000,-0.096000000000
26.837887898000,-0.100000000000
26.845575577000,-0.100000000000
26.853263256000,-0.093000000000
26.860950935000,-0.091000000000
26.868638614000,-0.103000000000
26.876326293000,-0.155000000000
26.884013972000,-0.253000000000
26.891701651000,-0.206000000000
26.899389330000,0.312000000000
26.907077009000,1.198000000000
26.914764688000,1.853000000000
26.922452367000,1.511000000000
26.930140046000,0.174000000000
26.937827725000,-0.632000000000
26.945515404000,-0.307000000000
26.953203083000,-0.093000000000
26.960890762000,-0.268000000000
26.968578441000,-0.238000000000
26.976266120000,-0.145000000000
26.983953799000,-0.174000000000
26.991641478000,-0.169000000000
26.999329157000,-0.128000000000
27.007016836000,-0.118000000000
27.014704515000,-0.105000000000
27.022392194000,-0.078000000000
27.030079873000,-0.059000000000
27.037767552000,-0.046000000000
27.045455231000,-0.024000000000
27.053142910000,0.000000000000
27.060830589000,0.019000000000
27.068518268000,0.041000000000
27.076205947000,0.068000000000
27.083893626000,0.096000000000
27.091581305000,0.128000000000
27.099268984000,0.162000000000
27.106956663000,0.184000000000
27.114644342000,0.199000000000
27.122332021000,0.211000000000
27.130019700000,0.209000000000
27.137707379000,0.189000000000
27.145395058000,0.169000000000
27.153082737000,0.140000000000
27.160770416000,0.078000000000
27.168458095000,-0.002000000000
27.176145774000,-0.081000000000
27.183833453000,-0.152000000000
27.191521132000,-0.211000000000
27.199208811000,-0.243000000000
27.206896490000,-0.258000000000
27.214584169000,-0.265000000000
27.222271848000,-0.263000000000
27.229959527000,-0.251000000000
27.237647206000,-0.241000000000
27.245334885000,-0.231000000000
27.253022564000,-0.219000000000
27.260710243000,-0.209000000000
27.268397922000,-0.199000000000
27.276085601000,-0.187000000000
27.283773280000,-0.179000000000
27.291460959000,-0.174000000000
27.299148638000,-0.167000000000
27.306836317000,-0.162000000000
27.314523996000,-0.155000000000
27.322211675000,-0.150000000000
27.329899354000,-0.150000000000
27.337587033000,-0.147000000000
27.345274712000,-0.145000000000
27.352962409000,-0.145000000000
27.360649948000,-0.140000000000
27.368337487000,-0.137000000000
27.376025026000,-0.137000000000
27.383712565000,-0.137000000000
27.391400104000,-0.137000000000
27.399087643000,-0.140000000000
27.406775182000,-0.135000000000
27.414462721000,-0.132000000000
27.422150260000,-0.137000000000
27.429837799000,-0.145000000000
27.437525338000,-0.142000000000
27.445212877000,-0.135000000000
27.452900416000,-0.120000000000
27.460587955000,-0.113000000000
27.468275494000,-0.115000000000
27.475963033000,-0.103000000000
27.483650572000,-0.088000000000
27.491338111000,-0.098000000000
27.499025650000,-0.120000000000
27.506713189000,-0.128000000000
27.514400728000,-0.118000000000
27.522088267000,-0.113000000000
27.529775806000,-0.110000000000
27.537463345000,-0.105000000000
27.545150884000,-0.103000000000
27.552838423000,-0.110000000000
27.560525962000,-0.142000000000
27.568213501000,-0.226000000000
27.575901040000,-0.285000000000
27.583588579000,-0.032000000000
27.591276118000,0.699000000000
27.598963657000,1.563000000000
27.606651196000,1.856000000000
27.614338735000,0.952000000000
27.622026274000,-0.366000000000
27.629713813000,-0.568000000000
27.637401352000,-0.132000000000
27.645088891000,-0.177000000000
27.652776430000,-0.310000000000
27.660463969000,-0.199000000000
27.668151508000,-0.164000000000
27.675839047000,-0.201000000000
27.683526586000,-0.162000000000
27.691214125000,-0.125000000000
27.698901664000,-0.128000000000
27.706589203000,-0.113000000000
27.714276742000,-0.083000000000
27.721964281000,-0.071000000000
27.729651820000,-0.054000000000
27.737339359000,-0.029000000000
27.745026898000,-0.009000000000
27.752714437000,0.012000000000
27.760401976000,0.039000000000
27.768089515000,0.068000000000
27.775777054000,0.096000000000
27.783464593000,0.128000000000
27.791152132000,0.157000000000
27.798839671000,0.182000000000
27.806527210000,0.196000000000
27.814214749000,0.201000000000
27.821902288000,0.194000000000
27.829589827000,0.179000000000
27.837277366000,0.157000000000
27.844964905000,0.118000000000
27.852652444000,0.054000000000
27.860339983000,-0.029000000000
27.868027522000,-0.113000000000
27.875715061000,-0.177000000000
27.883402600000,-0.221000000000
27.891090139000,-0.248000000000
27.898777678000,-0.258000000000
27.906465217000,-0.256000000000
27.914152824000,-0.251000000000
27.921840782000,-0.243000000000
27.929528740000,-0.233000000000
27.937216698000,-0.219000000000
27.944904656000,-0.209000000000
27.952592614000,-0.199000000000
27.960280572000,-0.189000000000
27.967968530000,-0.179000000000
27.975656488000,-0.172000000000
27.983344446000,-0.167000000000
27.991032404000,-0.160000000000
27.998720362000,-0.155000000000
28.006408320000,-0.152000000000
28.014096278000,-0.147000000000
28.021784236000,-0.147000000000
28.029472194000,-0.147000000000
28.037160152000,-0.145000000000
28.044848110000,-0.142000000000
28.052536068000,-0.140000000000
28.060224026000,-0.137000000000
28.067911984000,-0.135000000000
28.075599942000,-0.135000000000
28.083287900000,-0.132000000000
28.090975858000,-0.130000000000
28.098663816000,-0.128000000000
28.106351774000,-0.125000000000
28.114039732000,-0.120000000000
28.121727690000,-0.120000000000
28.129415648000,-0.128000000000
28.137103606000,-0.132000000000
28.144791564000,-0.130000000000
28.152479522000,-0.120000000000
28.160167480000,-0.105000000000
28.167855438000,-0.100000000000
28.175543396000,-0.098000000000
28.183231354000,-0.088000000000
28.190919312000,-0.076000000000
28.198607270000,-0.083000000000
28.206295228000,-0.108000000000
28.213983186000,-0.115000000000
28.221671144000,-0.108000000000
28.229359102000,-0.103000000000
28.237047060000,-0.100000000000
28.244735018000,-0.096000000000
28.252422976000,-0.093000000000
28.260110934000,-0.105000000000
28.267798892000,-0.142000000000
28.275486850000,-0.226000000000
28.283174808000,-0.256000000000
28.290862766000,0.066000000000
28.298550724000,0.846000000000
28.306238682000,1.678000000000
28.313926640000,1.787000000000
28.321614598000,0.701000000000
28.329302556000,-0.492000000000
28.336990514000,-0.487000000000
28.344678472000,-0.098000000000
28.352366430000,-0.211000000000
28.360054388000,-0.292000000000
28.367742346000,-0.172000000000
28.375430304000,-0.167000000000
28.383118262000,-0.196000000000
28.390806220000,-0.147000000000
28.398494178000,-0.120000000000
28.406182136000,-0.120000000000
28.413870094000,-0.098000000000
28.421558052000,-0.076000000000
28.429246010000,-0.064000000000
28.436933968000,-0.044000000000
28.444621926000,-0.022000000000
28.452309884000,-0.004000000000
28.459997842000,0.017000000000
28.467685800000,0.046000000000
28.475373761000,0.073000000000
28.483061300000,0.103000000000
28.490748839000,0.135000000000
28.498436378000,0.164000000000
28.506123917000,0.187000000000
28.513811456000,0.201000000000
28.521498995000,0.204000000000
28.529186534000,0.196000000000
28.536874073000,0.182000000000
28.544561612000,0.157000000000
28.552249151000,0.115000000000
28.559936690000,0.049000000000
28.567624229000,-0.032000000000
28.575311768000,-0.110000000000
28.582999307000,-0.174000000000
28.590686846000,-0.219000000000
28.598374385000,-0.246000000000
28.606061924000,-0.256000000000
28.613749463000,-0.253000000000
28.621437002000,-0.248000000000
28.629124541000,-0.241000000000
28.636812080000,-0.226000000000
28.644499619000,-0.214000000000
28.652187158000,-0.201000000000
28.659874697000,-0.192000000000
28.667562236000,-0.182000000000
28.675249775000,-0.172000000000
28.682937314000,-0.167000000000
28.690624853000,-0.162000000000
28.698312392000,-0.155000000000
28.705999931000,-0.150000000000
28.713687470000,-0.147000000000
28.721375009000,-0.145000000000
28.729062548000,-0.142000000000
28.736750087000,-0.140000000000
28.744437626000,-0.137000000000
28.752125165000,-0.137000000000
28.759812704000,-0.135000000000
28.767500243000,-0.135000000000
28.775187782000,-0.132000000000
28.782875321000,-0.132000000000
28.790562860000,-0.130000000000
28.798250399000,-0.125000000000
28.805937938000,-0.123000000000
28.813625477000,-0.123000000000
28.821313016000,-0.120000000000
28.829000555000,-0.123000000000
28.836688094000,-0.132000000000
28.844375633000,-0.132000000000
28.852063172000,-0.123000000000
28.859750711000,-0.108000000000
28.867438250000,-0.100000000000
28.875125789000,-0.100000000000
28.882813328000,-0.091000000000
28.890500867000,-0.078000000000
28.898188406000,-0.083000000000
28.905875945000,-0.105000000000
28.913563484000,-0.115000000000
28.921251023000,-0.105000000000
28.928938562000,-0.103000000000
28.936626101000,-0.103000000000
28.944313640000,-0.098000000000
28.952001179000,-0.093000000000
28.959688718000,-0.098000000000
28.967376257000,-0.128000000000
28.975063796000,-0.204000000000
28.982751335000,-0.275000000000
28.990438874000,-0.083000000000
28.998126413000,0.593000000000
29.005813952000,1.472000000000
29.013501491000,1.861000000000
29.021189030000,1.080000000000
29.028876569000,-0.260000000000
29.036564176000,-0.585000000000
29.044251924000,-0.157000000000
29.051939672000,-0.147000000000
29.059627420000,-0.292000000000
29.067315168000,-0.201000000000
29.075002916000,-0.155000000000
29.082690664000,-0.194000000000
29.090378412000,-0.162000000000
29.098066160000,-0.120000000000
29.105753908000,-0.123000000000
29.113441656000,-0.105000000000
29.121129404000,-0.078000000000
29.128817152000,-0.066000000000
29.136504900000,-0.051000000000
29.144192648000,-0.027000000000
29.151880396000,-0.007000000000
29.159568144000,0.012000000000
29.167255892000,0.039000000000
29.174943640000,0.066000000000
29.182631388000,0.098000000000
29.190319136000,0.125000000000
29.198006884000,0.155000000000
29.205694632000,0.182000000000
29.213382380000,0.199000000000
29.221070128000,0.201000000000
29.228757876000,0.196000000000
29.236445624000,0.187000000000
29.244133372000,0.164000000000
29.251821120000,0.125000000000
29.259508868000,0.068000000000
29.267196616000,-0.007000000000
29.274884364000,-0.091000000000
29.282572112000,-0.160000000000
29.290259860000,-0.209000000000
29.297947608000,-0.236000000000
29.305635356000,-0.251000000000
29.313323104000,-0.251000000000
29.321010852000,-0.248000000000
29.328698600000,-0.241000000000
