time,LSB
0.000000000000,1.843000000000
0.007687654000,1.568000000000
0.015375263000,0.256000000000
0.023062872000,-0.608000000000
0.030750481000,-0.324000000000
0.038438090000,-0.088000000000
0.046125699000,-0.265000000000
0.053813308000,-0.258000000000
0.061500917000,-0.157000000000
0.069188526000,-0.184000000000
0.076876135000,-0.187000000000
0.084563744000,-0.135000000000
0.092251353000,-0.120000000000
0.099938962000,-0.115000000000
0.107626571000,-0.091000000000
0.115314180000,-0.071000000000
0.123001789000,-0.054000000000
0.130689398000,-0.034000000000
0.138377007000,-0.012000000000
0.146064616000,0.009000000000
0.153752225000,0.034000000000
0.161439834000,0.064000000000
0.169127443000,0.096000000000
0.176815052000,0.130000000000
0.184502661000,0.162000000000
0.192190270000,0.194000000000
0.199877879000,0.216000000000
0.207565488000,0.226000000000
0.215253097000,0.226000000000
0.222940706000,0.216000000000
0.230628315000,0.199000000000
0.238315924000,0.164000000000
0.246003533000,0.105000000000
0.253691142000,0.027000000000
0.261378751000,-0.064000000000
0.269066360000,-0.142000000000
0.276753969000,-0.199000000000
0.284441578000,-0.241000000000
0.292129187000,-0.258000000000
0.299816796000,-0.260000000000
0.307504405000,-0.260000000000
0.315192014000,-0.256000000000
0.322879623000,-0.241000000000
0.330567232000,-0.231000000000
0.338254841000,-0.219000000000
0.345942450000,-0.204000000000
0.353630059000,-0.194000000000
0.361317668000,-0.187000000000
0.369005277000,-0.179000000000
0.376692886000,-0.169000000000
0.384380495000,-0.162000000000
0.392068104000,-0.160000000000
0.399755713000,-0.160000000000
0.407443322000,-0.152000000000
0.415130931000,-0.147000000000
0.422818540000,-0.145000000000
0.430506149000,-0.145000000000
0.438193758000,-0.142000000000
0.445881367000,-0.140000000000
0.453568976000,-0.140000000000
0.461256585000,-0.137000000000
0.468944194000,-0.135000000000
0.476631803000,-0.132000000000
0.484319412000,-0.132000000000
0.492007021000,-0.128000000000
0.499694630000,-0.128000000000
0.507382239000,-0.125000000000
0.515069848000,-0.120000000000
0.522757457000,-0.118000000000
0.530445066000,-0.118000000000
0.538132675000,-0.115000000000
0.545820284000,-0.110000000000
0.553507893000,-0.113000000000
0.561195502000,-0.110000000000
0.568883152000,-0.108000000000
0.576570761000,-0.115000000000
0.584258370000,-0.123000000000
0.591945979000,-0.118000000000
0.599633588000,-0.105000000000
0.607321197000,-0.093000000000
0.615008806000,-0.086000000000
0.622696415000,-0.078000000000
0.630384024000,-0.066000000000
0.638071633000,-0.068000000000
0.645759242000,-0.096000000000
0.653446851000,-0.113000000000
0.661134460000,-0.108000000000
0.668822069000,-0.098000000000
0.676509678000,-0.098000000000
0.684197287000,-0.093000000000
0.691884896000,-0.088000000000
0.699572505000,-0.088000000000
0.707260114000,-0.096000000000
0.714947723000,-0.130000000000
0.722635332000,-0.221000000000
0.730322941000,-0.251000000000
0.738010550000,0.098000000000
0.745698159000,0.901000000000
0.753385768000,1.713000000000
0.761073377000,1.777000000000
0.768760986000,0.667000000000
0.776448595000,-0.494000000000
0.784136204000,-0.457000000000
0.791823813000,-0.088000000000
0.799511422000,-0.209000000000
0.807199031000,-0.275000000000
0.814886640000,-0.155000000000
0.822574249000,-0.157000000000
0.830261858000,-0.182000000000
0.837949467000,-0.132000000000
0.845637076000,-0.108000000000
0.853324685000,-0.105000000000
0.861012294000,-0.086000000000
0.868699903000,-0.064000000000
0.876387512000,-0.049000000000
0.884075121000,-0.022000000000
0.891762730000,0.009000000000
0.899450339000,0.029000000000
0.907137948000,0.054000000000
0.914825557000,0.083000000000
0.922513166000,0.105000000000
0.930200775000,0.132000000000
0.937888384000,0.172000000000
0.945575993000,0.209000000000
0.953263602000,0.241000000000
0.960951211000,0.253000000000
0.968638820000,0.251000000000
0.976326429000,0.248000000000
0.984014038000,0.233000000000
0.991701647000,0.201000000000
0.999389256000,0.155000000000
1.007076865000,0.071000000000
1.014764474000,-0.027000000000
1.022452083000,-0.100000000000
1.030139692000,-0.164000000000
1.037827301000,-0.221000000000
1.045514910000,-0.246000000000
1.053202519000,-0.248000000000
1.060890128000,-0.248000000000
1.068577737000,-0.243000000000
1.076265346000,-0.233000000000
1.083952955000,-0.214000000000
1.091640564000,-0.211000000000
1.099328173000,-0.209000000000
1.107015782000,-0.184000000000
1.114703391000,-0.164000000000
1.122391000000,-0.169000000000
1.130078658000,-0.169000000000
1.137766546000,-0.150000000000
1.145454434000,-0.140000000000
1.153142322000,-0.147000000000
1.160830210000,-0.147000000000
1.168518098000,-0.135000000000
1.176205986000,-0.128000000000
1.183893874000,-0.137000000000
1.191581762000,-0.142000000000
1.199269650000,-0.128000000000
1.206957538000,-0.123000000000
1.214645426000,-0.125000000000
1.222333314000,-0.125000000000
1.230021202000,-0.128000000000
1.237709090000,-0.125000000000
1.245396978000,-0.113000000000
1.253084866000,-0.113000000000
1.260772754000,-0.125000000000
1.268460642000,-0.128000000000
1.276148530000,-0.113000000000
1.283836418000,-0.105000000000
1.291524306000,-0.105000000000
1.299212194000,-0.113000000000
1.306900082000,-0.123000000000
1.314587970000,-0.118000000000
1.322275858000,-0.110000000000
1.329963746000,-0.098000000000
1.337651634000,-0.086000000000
1.345339522000,-0.078000000000
1.353027410000,-0.064000000000
1.360715298000,-0.054000000000
1.368403186000,-0.081000000000
1.376091074000,-0.113000000000
1.383778962000,-0.108000000000
1.391466850000,-0.096000000000
1.399154738000,-0.100000000000
1.406842626000,-0.091000000000
1.414530514000,-0.078000000000
1.422218402000,-0.081000000000
1.429906290000,-0.091000000000
1.437594178000,-0.120000000000
1.445282066000,-0.196000000000
1.452969954000,-0.265000000000
1.460657842000,-0.034000000000
1.468345730000,0.696000000000
1.476033618000,1.580000000000
1.483721506000,1.902000000000
1.491409394000,1.036000000000
1.499097282000,-0.312000000000
1.506785170000,-0.566000000000
1.514473058000,-0.125000000000
1.522160946000,-0.142000000000
1.529848834000,-0.273000000000
1.537536722000,-0.169000000000
1.545224610000,-0.137000000000
1.552912498000,-0.174000000000
1.560600386000,-0.135000000000
1.568288274000,-0.098000000000
1.575976162000,-0.088000000000
1.583664050000,-0.064000000000
1.591351938000,-0.046000000000
1.599039826000,-0.036000000000
1.606727714000,-0.004000000000
1.614415602000,0.032000000000
1.622103490000,0.051000000000
1.629791378000,0.078000000000
1.637479266000,0.108000000000
1.645167154000,0.130000000000
1.652855042000,0.172000000000
1.660542930000,0.219000000000
1.668230818000,0.248000000000
1.675918706000,0.263000000000
1.683606594000,0.292000000000
1.691294504000,0.320000000000
1.698982043000,0.292000000000
1.706669582000,0.248000000000
1.714357121000,0.241000000000
1.722044660000,0.201000000000
1.729732199000,0.093000000000
1.737419738000,-0.012000000000
1.745107277000,-0.093000000000
1.752794816000,-0.172000000000
1.760482355000,-0.228000000000
1.768169894000,-0.251000000000
1.775857433000,-0.253000000000
1.783544972000,-0.243000000000
1.791232511000,-0.238000000000
1.798920050000,-0.251000000000
1.806607589000,-0.243000000000
1.814295128000,-0.214000000000
1.821982667000,-0.201000000000
1.829670206000,-0.204000000000
1.837357745000,-0.184000000000
1.845045284000,-0.162000000000
1.852732823000,-0.152000000000
1.860420362000,-0.152000000000
1.868107901000,-0.157000000000
1.875795440000,-0.150000000000
1.883482979000,-0.135000000000
1.891170518000,-0.128000000000
1.898858057000,-0.130000000000
1.906545596000,-0.132000000000
1.914233135000,-0.128000000000
1.921920674000,-0.123000000000
1.929608213000,-0.123000000000
1.937295752000,-0.120000000000
1.944983291000,-0.123000000000
1.952670830000,-0.132000000000
1.960358369000,-0.125000000000
1.968045908000,-0.120000000000
1.975733447000,-0.125000000000
1.983420986000,-0.123000000000
1.991108525000,-0.118000000000
1.998796064000,-0.125000000000
2.006483603000,-0.128000000000
2.014171142000,-0.115000000000
2.021858681000,-0.105000000000
2.029546220000,-0.108000000000
2.037233759000,-0.108000000000
2.044921298000,-0.091000000000
2.052608837000,-0.076000000000
2.060296376000,-0.093000000000
2.067983915000,-0.120000000000
2.075671454000,-0.115000000000
2.083358993000,-0.105000000000
2.091046532000,-0.115000000000
2.098734071000,-0.110000000000
2.106421610000,-0.103000000000
2.114109149000,-0.108000000000
2.121796688000,-0.103000000000
2.129484227000,-0.110000000000
2.137171766000,-0.172000000000
2.144859305000,-0.265000000000
2.152546844000,-0.216000000000
2.160234383000,0.270000000000
2.167921922000,1.139000000000
2.175609461000,1.819000000000
2.183297000000,1.563000000000
2.190984539000,0.283000000000
2.198672078000,-0.625000000000
2.206359617000,-0.374000000000
2.214047156000,-0.113000000000
2.221734695000,-0.273000000000
2.229422234000,-0.258000000000
2.237109773000,-0.155000000000
2.244797312000,-0.189000000000
2.252484919000,-0.192000000000
2.260172458000,-0.137000000000
2.267859997000,-0.125000000000
2.275547536000,-0.120000000000
2.283235075000,-0.096000000000
2.290922614000,-0.078000000000
2.298610153000,-0.061000000000
2.306297692000,-0.036000000000
2.313985231000,-0.017000000000
2.321672770000,0.004000000000
2.329360309000,0.029000000000
2.337047848000,0.059000000000
2.344735387000,0.088000000000
2.352422926000,0.120000000000
2.360110465000,0.152000000000
2.367798004000,0.182000000000
2.375485543000,0.199000000000
2.383173082000,0.206000000000
2.390860621000,0.204000000000
2.398548160000,0.192000000000
2.406235699000,0.172000000000
2.413923238000,0.135000000000
2.421610777000,0.068000000000
2.429298316000,-0.012000000000
2.436985855000,-0.096000000000
2.444673394000,-0.169000000000
2.452360933000,-0.224000000000
2.460048472000,-0.253000000000
2.467736011000,-0.265000000000
2.475423550000,-0.270000000000
2.483111089000,-0.268000000000
2.490798628000,-0.258000000000
2.498486167000,-0.243000000000
2.506173706000,-0.233000000000
2.513861245000,-0.224000000000
2.521548784000,-0.214000000000
2.529236323000,-0.201000000000
2.536923862000,-0.192000000000
2.544611401000,-0.182000000000
2.552298940000,-0.172000000000
2.559986479000,-0.169000000000
2.567674018000,-0.162000000000
2.575361557000,-0.157000000000
2.583049096000,-0.155000000000
2.590736635000,-0.147000000000
2.598424174000,-0.142000000000
2.606111713000,-0.142000000000
2.613799252000,-0.140000000000
2.621486791000,-0.135000000000
2.629174330000,-0.137000000000
2.636861869000,-0.140000000000
2.644549408000,-0.140000000000
2.652236947000,-0.140000000000
2.659924486000,-0.140000000000
2.667612025000,-0.135000000000
2.675299564000,-0.132000000000
2.682987103000,-0.130000000000
2.690674642000,-0.130000000000
2.698362181000,-0.132000000000
2.706049720000,-0.137000000000
2.713737259000,-0.137000000000
2.721424798000,-0.132000000000
2.729112337000,-0.120000000000
2.736799876000,-0.108000000000
2.744487415000,-0.103000000000
2.752174954000,-0.093000000000
2.759862493000,-0.083000000000
2.767550032000,-0.098000000000
2.775237571000,-0.120000000000
2.782925110000,-0.123000000000
2.790612649000,-0.115000000000
2.798300188000,-0.113000000000
2.805987727000,-0.110000000000
2.813675334000,-0.105000000000
2.821362873000,-0.100000000000
2.829050412000,-0.103000000000
2.836737951000,-0.128000000000
2.844425490000,-0.194000000000
2.852113029000,-0.275000000000
2.859800568000,-0.145000000000
2.867488107000,0.467000000000
2.875175646000,1.361000000000
2.882863185000,1.907000000000
2.890550724000,1.356000000000
2.898238263000,-0.034000000000
2.905925802000,-0.640000000000
2.913613341000,-0.238000000000
2.921300880000,-0.118000000000
2.928988419000,-0.300000000000
2.936675958000,-0.236000000000
2.944363497000,-0.160000000000
2.952051036000,-0.201000000000
2.959738575000,-0.182000000000
2.967426114000,-0.130000000000
2.975113653000,-0.128000000000
2.982801192000,-0.118000000000
2.990488731000,-0.086000000000
2.998176270000,-0.068000000000
3.005863809000,-0.056000000000
3.013551348000,-0.034000000000
3.021238887000,-0.009000000000
3.028926426000,0.009000000000
3.036613965000,0.036000000000
3.044301504000,0.071000000000
3.051989043000,0.103000000000
3.059676582000,0.135000000000
3.067364121000,0.167000000000
3.075051660000,0.196000000000
3.082739199000,0.214000000000
3.090426738000,0.221000000000
3.098114277000,0.214000000000
3.105801816000,0.201000000000
3.113489355000,0.179000000000
3.121176894000,0.140000000000
3.128864433000,0.071000000000
3.136551972000,-0.017000000000
3.144239511000,-0.103000000000
3.151927050000,-0.174000000000
3.159614589000,-0.226000000000
3.167302128000,-0.256000000000
3.174989667000,-0.268000000000
3.182677206000,-0.268000000000
3.190364745000,-0.260000000000
3.198052284000,-0.251000000000
3.205739823000,-0.241000000000
3.213427362000,-0.226000000000
3.221114901000,-0.214000000000
3.228802440000,-0.206000000000
3.236489979000,-0.194000000000
3.244177518000,-0.184000000000
3.251865057000,-0.174000000000
3.259552596000,-0.169000000000
3.267240135000,-0.160000000000
3.274927674000,-0.155000000000
3.282615213000,-0.152000000000
3.290302752000,-0.150000000000
3.297990291000,-0.147000000000
3.305677830000,-0.145000000000
3.313365369000,-0.145000000000
3.321052908000,-0.142000000000
3.328740447000,-0.137000000000
3.336427986000,-0.135000000000
3.344115525000,-0.132000000000
3.351803064000,-0.135000000000
3.359490603000,-0.135000000000
3.367178142000,-0.130000000000
3.374865749000,-0.123000000000
3.382553288000,-0.123000000000
3.390240827000,-0.123000000000
3.397928366000,-0.120000000000
3.405615905000,-0.118000000000
3.413303444000,-0.118000000000
3.420990983000,-0.120000000000
3.428678522000,-0.125000000000
3.436366061000,-0.130000000000
3.444053600000,-0.125000000000
3.451741139000,-0.105000000000
3.459428678000,-0.093000000000
3.467116217000,-0.093000000000
3.474803756000,-0.088000000000
3.482491295000,-0.071000000000
3.490178834000,-0.073000000000
3.497866373000,-0.103000000000
3.505553912000,-0.118000000000
3.513241451000,-0.108000000000
3.520928990000,-0.103000000000
3.528616529000,-0.105000000000
3.536304068000,-0.098000000000
3.543991607000,-0.091000000000
3.551679146000,-0.091000000000
3.559366685000,-0.105000000000
3.567054224000,-0.150000000000
3.574741763000,-0.241000000000
3.582429302000,-0.243000000000
3.590116841000,0.155000000000
3.597804380000,0.979000000000
3.605491919000,1.767000000000
3.613179458000,1.752000000000
3.620866997000,0.566000000000
3.628554536000,-0.551000000000
3.636242075000,-0.435000000000
3.643929614000,-0.081000000000
3.651617153000,-0.231000000000
3.659304692000,-0.288000000000
3.666992231000,-0.167000000000
3.674679770000,-0.177000000000
3.682367309000,-0.199000000000
3.690054848000,-0.145000000000
3.697742387000,-0.120000000000
3.705429926000,-0.120000000000
3.713117465000,-0.096000000000
3.720805004000,-0.071000000000
3.728492543000,-0.059000000000
3.736180082000,-0.041000000000
3.743867621000,-0.017000000000
3.751555160000,0.009000000000
3.759242699000,0.034000000000
3.766930238000,0.059000000000
3.774617777000,0.091000000000
3.782305316000,0.125000000000
3.789992855000,0.157000000000
3.797680394000,0.192000000000
3.805367933000,0.216000000000
3.813055472000,0.228000000000
3.820743011000,0.228000000000
3.828430550000,0.221000000000
3.836118089000,0.204000000000
3.843805628000,0.172000000000
3.851493167000,0.115000000000
3.859180706000,0.034000000000
3.866868245000,-0.059000000000
3.874555784000,-0.140000000000
3.882243323000,-0.199000000000
3.889930862000,-0.238000000000
3.897618401000,-0.258000000000
3.905305940000,-0.263000000000
3.912993479000,-0.260000000000
3.920681018000,-0.251000000000
3.928368557000,-0.241000000000
3.936056164000,-0.231000000000
3.943744122000,-0.216000000000
3.951432080000,-0.206000000000
3.959120038000,-0.201000000000
3.966807996000,-0.189000000000
3.974495954000,-0.177000000000
3.982183912000,-0.169000000000
3.989871870000,-0.162000000000
3.997559828000,-0.162000000000
4.005247786000,-0.157000000000
4.012935744000,-0.152000000000
4.020623702000,-0.152000000000
4.028311660000,-0.150000000000
4.035999618000,-0.140000000000
4.043687576000,-0.140000000000
4.051375534000,-0.142000000000
4.059063492000,-0.137000000000
4.066751450000,-0.137000000000
4.074439408000,-0.135000000000
4.082127366000,-0.130000000000
4.089815324000,-0.130000000000
4.097503282000,-0.130000000000
4.105191240000,-0.125000000000
4.112879198000,-0.120000000000
4.120567156000,-0.120000000000
4.128255114000,-0.120000000000
4.135943072000,-0.115000000000
4.143631030000,-0.115000000000
4.151318988000,-0.118000000000
4.159006946000,-0.123000000000
4.166694904000,-0.128000000000
4.174382862000,-0.123000000000
4.182070820000,-0.108000000000
4.189758778000,-0.098000000000
4.197446736000,-0.096000000000
4.205134694000,-0.081000000000
4.212822652000,-0.068000000000
4.220510610000,-0.078000000000
4.228198568000,-0.103000000000
4.235886526000,-0.115000000000
4.243574484000,-0.108000000000
4.251262442000,-0.098000000000
4.258950400000,-0.100000000000
4.266638358000,-0.098000000000
4.274326316000,-0.093000000000
4.282014274000,-0.091000000000
4.289702232000,-0.103000000000
4.297390190000,-0.147000000000
4.305078148000,-0.236000000000
4.312766106000,-0.246000000000
4.320454064000,0.130000000000
4.328142022000,0.952000000000
4.335829980000,1.755000000000
4.343517938000,1.752000000000
4.351205896000,0.578000000000
4.358893854000,-0.536000000000
4.366581812000,-0.438000000000
4.374269770000,-0.083000000000
4.381957728000,-0.221000000000
4.389645686000,-0.278000000000
4.397333644000,-0.162000000000
4.405021602000,-0.164000000000
4.412709560000,-0.187000000000
4.420397518000,-0.137000000000
4.428085476000,-0.115000000000
4.435773434000,-0.118000000000
4.443461392000,-0.093000000000
4.451149350000,-0.066000000000
4.458837308000,-0.051000000000
4.466525266000,-0.034000000000
4.474213224000,-0.009000000000
4.481901182000,0.012000000000
4.489589140000,0.036000000000
4.497277101000,0.068000000000
4.504964640000,0.098000000000
4.512652179000,0.130000000000
4.520339718000,0.167000000000
4.528027257000,0.199000000000
4.535714796000,0.224000000000
4.543402335000,0.238000000000
4.551089874000,0.238000000000
4.558777413000,0.226000000000
4.566464952000,0.214000000000
4.574152491000,0.182000000000
4.581840030000,0.125000000000
4.589527569000,0.039000000000
4.597215108000,-0.056000000000
4.604902647000,-0.137000000000
4.612590186000,-0.194000000000
4.620277725000,-0.236000000000
4.627965264000,-0.258000000000
4.635652803000,-0.260000000000
4.643340342000,-0.258000000000
4.651027881000,-0.256000000000
4.658715420000,-0.243000000000
4.666402959000,-0.231000000000
4.674090498000,-0.221000000000
4.681778037000,-0.209000000000
4.689465576000,-0.201000000000
4.697153115000,-0.192000000000
4.704840654000,-0.177000000000
4.712528193000,-0.172000000000
4.720215732000,-0.167000000000
4.727903271000,-0.157000000000
4.735590810000,-0.152000000000
4.743278349000,-0.150000000000
4.750965888000,-0.147000000000
4.758653427000,-0.145000000000
4.766340966000,-0.145000000000
4.774028505000,-0.140000000000
4.781716044000,-0.137000000000
4.789403583000,-0.142000000000
4.797091122000,-0.140000000000
4.804778661000,-0.135000000000
4.812466200000,-0.132000000000
4.820153739000,-0.132000000000
4.827841278000,-0.125000000000
4.835528817000,-0.120000000000
4.843216356000,-0.125000000000
4.850903895000,-0.123000000000
4.858591434000,-0.115000000000
4.866278973000,-0.115000000000
4.873966512000,-0.115000000000
4.881654051000,-0.110000000000
4.889341590000,-0.113000000000
4.897029129000,-0.120000000000
4.904716668000,-0.125000000000
4.912404207000,-0.120000000000
4.920091746000,-0.103000000000
4.927779285000,-0.091000000000
4.935466824000,-0.088000000000
4.943154363000,-0.083000000000
4.950841902000,-0.066000000000
4.958529441000,-0.068000000000
4.966216980000,-0.096000000000
4.973904519000,-0.113000000000
4.981592058000,-0.105000000000
4.989279597000,-0.098000000000
4.996967136000,-0.093000000000
5.004654675000,-0.091000000000
5.012342214000,-0.091000000000
5.020029753000,-0.088000000000
5.027717292000,-0.096000000000
5.035404831000,-0.137000000000
5.043092370000,-0.226000000000
5.050779909000,-0.253000000000
5.058467516000,0.081000000000
5.066155264000,0.871000000000
5.073843012000,1.688000000000
5.081530760000,1.787000000000
5.089218508000,0.708000000000
5.096906256000,-0.472000000000
5.104594004000,-0.472000000000
5.112281752000,-0.096000000000
5.119969500000,-0.206000000000
5.127657248000,-0.280000000000
5.135344996000,-0.164000000000
5.143032744000,-0.162000000000
5.150720492000,-0.189000000000
5.158408240000,-0.140000000000
5.166095988000,-0.113000000000
5.173783736000,-0.115000000000
5.181471484000,-0.093000000000
5.189159232000,-0.068000000000
5.196846980000,-0.054000000000
5.204534728000,-0.032000000000
5.212222476000,-0.007000000000
5.219910224000,0.012000000000
5.227597972000,0.036000000000
5.235285720000,0.066000000000
5.242973468000,0.098000000000
5.250661216000,0.128000000000
5.258348964000,0.164000000000
5.266036712000,0.199000000000
5.273724460000,0.224000000000
5.281412208000,0.236000000000
5.289099956000,0.241000000000
5.296787704000,0.233000000000
5.304475452000,0.216000000000
5.312163200000,0.189000000000
5.319850948000,0.137000000000
5.327538696000,0.059000000000
5.335226444000,-0.034000000000
5.342914192000,-0.120000000000
5.350601940000,-0.184000000000
5.358289688000,-0.226000000000
5.365977436000,-0.248000000000
5.373665184000,-0.258000000000
5.381352932000,-0.260000000000
5.389040680000,-0.253000000000
5.396728428000,-0.238000000000
5.404416176000,-0.228000000000
5.412103924000,-0.219000000000
5.419791672000,-0.204000000000
5.427479420000,-0.192000000000
5.435167168000,-0.187000000000
5.442854916000,-0.177000000000
5.450542664000,-0.167000000000
5.458230412000,-0.160000000000
5.465918160000,-0.152000000000
5.473605908000,-0.147000000000
5.481293656000,-0.147000000000
5.488981404000,-0.150000000000
5.496669152000,-0.145000000000
5.504356900000,-0.135000000000
5.512044648000,-0.132000000000
5.519732396000,-0.130000000000
5.527420144000,-0.132000000000
5.535107892000,-0.132000000000
5.542795640000,-0.128000000000
5.550483388000,-0.125000000000
5.558171136000,-0.128000000000
5.565858884000,-0.123000000000
5.573546632000,-0.113000000000
5.581234380000,-0.115000000000
5.588922128000,-0.123000000000
5.596609876000,-0.120000000000
5.604297624000,-0.108000000000
5.611985372000,-0.105000000000
5.619673192000,-0.110000000000
5.627360801000,-0.103000000000
5.635048410000,-0.105000000000
5.642736019000,-0.118000000000
5.650423628000,-0.115000000000
5.658111237000,-0.103000000000
5.665798846000,-0.091000000000
5.673486455000,-0.081000000000
5.681174064000,-0.078000000000
5.688861673000,-0.071000000000
5.696549282000,-0.059000000000
5.704236891000,-0.068000000000
5.711924500000,-0.098000000000
5.719612109000,-0.115000000000
5.727299718000,-0.100000000000
5.734987327000,-0.091000000000
5.742674936000,-0.091000000000
5.750362545000,-0.088000000000
5.758050154000,-0.086000000000
5.765737763000,-0.088000000000
5.773425372000,-0.103000000000
5.781112981000,-0.152000000000
5.788800590000,-0.243000000000
5.796488199000,-0.211000000000
5.804175808000,0.260000000000
5.811863417000,1.125000000000
5.819551026000,1.846000000000
5.827238635000,1.627000000000
5.834926244000,0.329000000000
5.842613853000,-0.590000000000
5.850301462000,-0.329000000000
5.857989071000,-0.073000000000
5.865676680000,-0.251000000000
5.873364289000,-0.248000000000
5.881051898000,-0.135000000000
5.888739507000,-0.160000000000
5.896427116000,-0.169000000000
5.904114725000,-0.120000000000
5.911802334000,-0.100000000000
5.919489943000,-0.093000000000
5.927177552000,-0.068000000000
5.934865161000,-0.049000000000
5.942552770000,-0.034000000000
5.950240379000,-0.014000000000
5.957927988000,0.009000000000
5.965615597000,0.041000000000
5.973303206000,0.066000000000
5.980990815000,0.091000000000
5.988678424000,0.120000000000
5.996366033000,0.155000000000
6.004053642000,0.201000000000
6.011741251000,0.238000000000
6.019428860000,0.256000000000
6.027116469000,0.260000000000
6.034804078000,0.258000000000
6.042491687000,0.253000000000
6.050179296000,0.243000000000
6.057866905000,0.209000000000
6.065554514000,0.137000000000
6.073242123000,0.046000000000
6.080929732000,-0.041000000000
6.088617341000,-0.120000000000
6.096304950000,-0.187000000000
6.103992559000,-0.228000000000
6.111680168000,-0.251000000000
6.119367777000,-0.258000000000
6.127055386000,-0.256000000000
6.134742995000,-0.243000000000
6.142430604000,-0.226000000000
6.150118213000,-0.219000000000
6.157805822000,-0.209000000000
6.165493431000,-0.194000000000
6.173181040000,-0.187000000000
6.180868694000,-0.179000000000
6.188556373000,-0.174000000000
6.196244052000,-0.164000000000
6.203931731000,-0.145000000000
6.211619410000,-0.142000000000
6.219307089000,-0.145000000000
6.226994768000,-0.135000000000
6.234682447000,-0.128000000000
6.242370126000,-0.125000000000
6.250057805000,-0.128000000000
6.257745484000,-0.130000000000
6.265433163000,-0.130000000000
6.273120842000,-0.128000000000
6.280808521000,-0.128000000000
6.288496200000,-0.120000000000
6.296183879000,-0.113000000000
6.303871558000,-0.110000000000
6.311559237000,-0.110000000000
6.319246916000,-0.115000000000
6.326934595000,-0.120000000000
6.334622274000,-0.110000000000
6.342309953000,-0.103000000000
6.349997632000,-0.108000000000
6.357685311000,-0.118000000000
6.365372990000,-0.113000000000
6.373060669000,-0.100000000000
6.380748348000,-0.091000000000
6.388436027000,-0.078000000000
6.396123706000,-0.071000000000
6.403811385000,-0.068000000000
6.411499064000,-0.066000000000
6.419186743000,-0.066000000000
6.426874422000,-0.088000000000
6.434562101000,-0.105000000000
6.442249780000,-0.093000000000
6.449937459000,-0.088000000000
6.457625138000,-0.098000000000
6.465312817000,-0.086000000000
6.473000496000,-0.068000000000
6.480688175000,-0.088000000000
6.488375854000,-0.118000000000
6.496063533000,-0.169000000000
6.503751212000,-0.253000000000
6.511438891000,-0.132000000000
6.519126570000,0.489000000000
6.526814249000,1.405000000000
6.534501928000,1.939000000000
6.542189607000,1.351000000000
6.549877286000,-0.044000000000
6.557564965000,-0.617000000000
6.565252644000,-0.221000000000
6.572940323000,-0.130000000000
6.580628002000,-0.283000000000
6.588315681000,-0.194000000000
6.596003360000,-0.128000000000
6.603691039000,-0.172000000000
6.611378718000,-0.155000000000
6.619066397000,-0.113000000000
6.626754076000,-0.108000000000
6.634441755000,-0.091000000000
6.642129434000,-0.061000000000
6.649817113000,-0.046000000000
6.657504792000,-0.027000000000
6.665192471000,-0.007000000000
6.672880150000,0.014000000000
6.680567829000,0.046000000000
6.688255508000,0.068000000000
6.695943187000,0.096000000000
6.703630866000,0.140000000000
6.711318545000,0.174000000000
6.719006224000,0.199000000000
6.726693903000,0.226000000000
6.734381582000,0.251000000000
6.742069279000,0.256000000000
6.749756818000,0.246000000000
6.757444357000,0.228000000000
6.765131896000,0.201000000000
6.772819435000,0.162000000000
6.780506974000,0.091000000000
6.788194513000,-0.009000000000
6.795882052000,-0.110000000000
6.803569591000,-0.184000000000
6.811257130000,-0.231000000000
6.818944669000,-0.263000000000
6.826632208000,-0.283000000000
6.834319747000,-0.285000000000
6.842007286000,-0.273000000000
6.849694825000,-0.260000000000
6.857382364000,-0.256000000000
6.865069903000,-0.243000000000
6.872757442000,-0.226000000000
6.880444981000,-0.214000000000
6.888132520000,-0.209000000000
6.895820059000,-0.199000000000
6.903507598000,-0.187000000000
6.911195137000,-0.179000000000
6.918882676000,-0.172000000000
6.926570215000,-0.169000000000
6.934257754000,-0.164000000000
6.941945293000,-0.152000000000
6.949632832000,-0.145000000000
6.957320371000,-0.147000000000
6.965007910000,-0.145000000000
6.972695449000,-0.145000000000
6.980382988000,-0.145000000000
6.988070527000,-0.140000000000
6.995758066000,-0.140000000000
7.003445605000,-0.142000000000
7.011133144000,-0.140000000000
7.018820683000,-0.137000000000
7.026508222000,-0.137000000000
7.034195761000,-0.135000000000
7.041883300000,-0.132000000000
7.049570839000,-0.132000000000
7.057258378000,-0.128000000000
7.064945917000,-0.123000000000
7.072633456000,-0.130000000000
7.080320995000,-0.140000000000
7.088008534000,-0.140000000000
7.095696073000,-0.128000000000
7.103383612000,-0.110000000000
7.111071151000,-0.100000000000
7.118758690000,-0.098000000000
7.126446229000,-0.086000000000
7.134133768000,-0.081000000000
7.141821307000,-0.096000000000
7.149508846000,-0.118000000000
7.157196385000,-0.123000000000
7.164883924000,-0.115000000000
7.172571463000,-0.110000000000
7.180259002000,-0.108000000000
7.187946541000,-0.105000000000
7.195634080000,-0.103000000000
7.203321619000,-0.108000000000
7.211009158000,-0.135000000000
7.218696697000,-0.201000000000
7.226384236000,-0.283000000000
7.234071775000,-0.140000000000
7.241759314000,0.497000000000
7.249446853000,1.405000000000
7.257134392000,1.930000000000
7.264821931000,1.331000000000
7.272509470000,-0.066000000000
7.280197009000,-0.635000000000
7.287884548000,-0.228000000000
7.295572087000,-0.128000000000
7.303259694000,-0.305000000000
7.310947303000,-0.238000000000
7.318634912000,-0.162000000000
7.326322521000,-0.204000000000
7.334010130000,-0.182000000000
7.341697739000,-0.135000000000
7.349385348000,-0.132000000000
7.357072957000,-0.123000000000
7.364760566000,-0.093000000000
7.372448175000,-0.078000000000
7.380135784000,-0.064000000000
7.387823393000,-0.039000000000
7.395511002000,-0.017000000000
7.403198611000,0.004000000000
7.410886220000,0.034000000000
7.418573829000,0.064000000000
7.426261438000,0.096000000000
7.433949047000,0.130000000000
7.441636656000,0.162000000000
7.449324265000,0.189000000000
7.457011874000,0.209000000000
7.464699483000,0.216000000000
7.472387092000,0.216000000000
7.480074701000,0.206000000000
7.487762310000,0.182000000000
7.495449919000,0.142000000000
7.503137528000,0.078000000000
7.510825137000,-0.009000000000
7.518512746000,-0.100000000000
7.526200355000,-0.172000000000
7.533887964000,-0.224000000000
7.541575573000,-0.256000000000
7.549263182000,-0.268000000000
7.556950791000,-0.270000000000
7.564638400000,-0.265000000000
7.572326009000,-0.256000000000
7.580013618000,-0.246000000000
7.587701227000,-0.233000000000
7.595388836000,-0.221000000000
7.603076445000,-0.209000000000
7.610764054000,-0.201000000000
7.618451663000,-0.192000000000
7.626139272000,-0.179000000000
7.633826881000,-0.172000000000
7.641514490000,-0.169000000000
7.649202099000,-0.162000000000
7.656889708000,-0.155000000000
7.664577317000,-0.155000000000
7.672264926000,-0.155000000000
7.679952535000,-0.147000000000
7.687640144000,-0.145000000000
7.695327753000,-0.147000000000
7.703015362000,-0.145000000000
7.710702971000,-0.147000000000
7.718390580000,-0.145000000000
7.726078189000,-0.140000000000
7.733765798000,-0.140000000000
7.741453407000,-0.137000000000
7.749141016000,-0.135000000000
7.756828625000,-0.132000000000
7.764516234000,-0.130000000000
7.772203843000,-0.125000000000
7.779891452000,-0.125000000000
7.787579061000,-0.123000000000
7.795266670000,-0.115000000000
7.802954279000,-0.120000000000
7.810641888000,-0.130000000000
7.818329497000,-0.132000000000
7.826017106000,-0.123000000000
7.833704715000,-0.105000000000
7.841392324000,-0.098000000000
7.849079933000,-0.096000000000
7.856767542000,-0.083000000000
7.864455200000,-0.071000000000
7.872143088000,-0.083000000000
7.879830976000,-0.110000000000
7.887518864000,-0.118000000000
7.895206752000,-0.108000000000
7.902894640000,-0.105000000000
7.910582528000,-0.105000000000
7.918270416000,-0.100000000000
7.925958304000,-0.096000000000
7.933646192000,-0.096000000000
7.941334080000,-0.115000000000
7.949021968000,-0.172000000000
7.956709856000,-0.258000000000
7.964397744000,-0.199000000000
7.972085632000,0.302000000000
7.979773520000,1.176000000000
7.987461408000,1.868000000000
7.995149296000,1.580000000000
8.002837184000,0.248000000000
8.010525072000,-0.617000000000
8.018212960000,-0.324000000000
8.025900848000,-0.091000000000
8.033588736000,-0.273000000000
8.041276624000,-0.260000000000
8.048964512000,-0.160000000000
8.056652400000,-0.187000000000
8.064340288000,-0.187000000000
8.072028176000,-0.135000000000
8.079716064000,-0.120000000000
8.087403952000,-0.115000000000
8.095091840000,-0.086000000000
8.102779728000,-0.066000000000
8.110467616000,-0.056000000000
8.118155504000,-0.032000000000
8.125843392000,-0.007000000000
8.133531280000,0.014000000000
8.141219168000,0.039000000000
8.148907056000,0.071000000000
8.156594944000,0.103000000000
8.164282832000,0.140000000000
8.171970720000,0.174000000000
8.179658608000,0.204000000000
8.187346496000,0.224000000000
8.195034384000,0.241000000000
8.202722272000,0.243000000000
8.210410160000,0.228000000000
8.218098048000,0.206000000000
8.225785936000,0.177000000000
8.233473824000,0.118000000000
8.241161712000,0.029000000000
8.248849600000,-0.064000000000
8.256537488000,-0.142000000000
8.264225376000,-0.201000000000
8.271913264000,-0.241000000000
8.279601152000,-0.258000000000
8.287289040000,-0.263000000000
8.294976928000,-0.263000000000
8.302664816000,-0.253000000000
8.310352704000,-0.241000000000
8.318040592000,-0.228000000000
8.325728480000,-0.216000000000
8.333416368000,-0.204000000000
8.341104256000,-0.194000000000
8.348792144000,-0.184000000000
8.356480032000,-0.177000000000
8.364167920000,-0.167000000000
8.371855808000,-0.160000000000
8.379543696000,-0.155000000000
8.387231584000,-0.150000000000
8.394919472000,-0.147000000000
8.402607360000,-0.145000000000
8.410295248000,-0.140000000000
8.417983136000,-0.135000000000
8.425671046000,-0.137000000000
8.433358585000,-0.137000000000
8.441046124000,-0.135000000000
8.448733663000,-0.135000000000
8.456421202000,-0.130000000000
8.464108741000,-0.128000000000
8.471796280000,-0.128000000000
8.479483819000,-0.125000000000
8.487171358000,-0.123000000000
8.494858897000,-0.120000000000
8.502546436000,-0.118000000000
8.510233975000,-0.118000000000
8.517921514000,-0.115000000000
8.525609053000,-0.108000000000
8.533296592000,-0.105000000000
8.540984131000,-0.113000000000
8.548671670000,-0.118000000000
8.556359209000,-0.120000000000
8.564046748000,-0.115000000000
8.571734287000,-0.105000000000
8.579421826000,-0.091000000000
8.587109365000,-0.083000000000
8.594796904000,-0.076000000000
8.602484443000,-0.061000000000
8.610171982000,-0.066000000000
8.617859521000,-0.093000000000
8.625547060000,-0.110000000000
8.633234599000,-0.105000000000
8.640922138000,-0.098000000000
8.648609677000,-0.093000000000
8.656297216000,-0.093000000000
8.663984755000,-0.091000000000
8.671672294000,-0.088000000000
8.679359833000,-0.100000000000
8.687047372000,-0.145000000000
8.694734911000,-0.233000000000
8.702422450000,-0.238000000000
8.710109989000,0.147000000000
8.717797528000,0.967000000000
8.725485067000,1.762000000000
8.733172606000,1.760000000000
8.740860145000,0.590000000000
8.748547684000,-0.529000000000
8.756235223000,-0.435000000000
8.763922762000,-0.086000000000
8.771610301000,-0.228000000000
8.779297840000,-0.280000000000
8.786985379000,-0.162000000000
8.794672918000,-0.172000000000
8.802360457000,-0.192000000000
8.810047996000,-0.137000000000
8.817735535000,-0.120000000000
8.825423074000,-0.118000000000
8.833110613000,-0.088000000000
8.840798152000,-0.066000000000
8.848485691000,-0.056000000000
8.856173230000,-0.034000000000
8.863860769000,-0.007000000000
8.871548308000,0.009000000000
8.879235847000,0.034000000000
8.886923386000,0.068000000000
8.894610925000,0.098000000000
8.902298464000,0.132000000000
8.909986003000,0.167000000000
8.917673542000,0.201000000000
8.925361081000,0.228000000000
8.933048620000,0.243000000000
8.940736159000,0.243000000000
8.948423698000,0.236000000000
8.956111237000,0.226000000000
8.963798776000,0.199000000000
8.971486315000,0.142000000000
8.979173854000,0.061000000000
8.986861462000,-0.034000000000
8.994549001000,-0.120000000000
9.002236540000,-0.184000000000
9.009924079000,-0.231000000000
9.017611618000,-0.256000000000
9.025299157000,-0.265000000000
9.032986696000,-0.260000000000
9.040674235000,-0.253000000000
9.048361774000,-0.243000000000
9.056049313000,-0.233000000000
9.063736852000,-0.219000000000
9.071424391000,-0.206000000000
9.079111930000,-0.199000000000
9.086799469000,-0.187000000000
9.094487008000,-0.174000000000
9.102174547000,-0.167000000000
9.109862086000,-0.164000000000
9.117549625000,-0.157000000000
9.125237164000,-0.152000000000
9.132924703000,-0.150000000000
9.140612242000,-0.145000000000
9.148299781000,-0.140000000000
9.155987320000,-0.140000000000
9.163674859000,-0.137000000000
9.171362398000,-0.135000000000
9.179049937000,-0.135000000000
9.186737476000,-0.132000000000
9.194425015000,-0.130000000000
9.202112554000,-0.130000000000
9.209800093000,-0.130000000000
9.217487632000,-0.130000000000
9.225175171000,-0.128000000000
9.232862710000,-0.123000000000
9.240550249000,-0.123000000000
9.248237788000,-0.118000000000
9.255925327000,-0.115000000000
9.263612866000,-0.115000000000
9.271300405000,-0.113000000000
9.278987944000,-0.108000000000
9.286675483000,-0.108000000000
9.294363022000,-0.115000000000
9.302050561000,-0.120000000000
9.309738100000,-0.120000000000
9.317425639000,-0.105000000000
9.325113178000,-0.091000000000
9.332800717000,-0.086000000000
9.340488256000,-0.081000000000
9.348175795000,-0.066000000000
9.355863334000,-0.064000000000
9.363550873000,-0.083000000000
9.371238412000,-0.105000000000
9.378925951000,-0.108000000000
9.386613490000,-0.098000000000
9.394301029000,-0.093000000000
9.401988568000,-0.093000000000
9.409676107000,-0.093000000000
9.417363646000,-0.091000000000
9.425051185000,-0.091000000000
9.432738724000,-0.118000000000
9.440426263000,-0.194000000000
9.448113802000,-0.258000000000
9.455801341000,-0.061000000000
9.463488880000,0.608000000000
9.471176419000,1.481000000000
9.478863958000,1.890000000000
9.486551497000,1.139000000000
9.494239036000,-0.211000000000
9.501926575000,-0.580000000000
9.509614114000,-0.160000000000
9.517301653000,-0.140000000000
9.524989192000,-0.290000000000
9.532676731000,-0.201000000000
9.540364270000,-0.147000000000
9.548051876000,-0.187000000000
9.555739415000,-0.160000000000
9.563426954000,-0.118000000000
9.571114493000,-0.118000000000
9.578802032000,-0.100000000000
9.586489571000,-0.073000000000
9.594177110000,-0.059000000000
9.601864649000,-0.039000000000
9.609552188000,-0.017000000000
9.617239727000,0.004000000000
9.624927266000,0.029000000000
9.632614805000,0.056000000000
9.640302344000,0.083000000000
9.647989883000,0.115000000000
9.655677422000,0.152000000000
9.663364961000,0.189000000000
9.671052500000,0.224000000000
9.678740039000,0.246000000000
9.686427578000,0.251000000000
9.694115117000,0.246000000000
9.701802656000,0.236000000000
9.709490195000,0.219000000000
9.717177734000,0.177000000000
9.724865273000,0.100000000000
9.732552812000,0.007000000000
9.740240351000,-0.073000000000
9.747927890000,-0.147000000000
9.755615429000,-0.206000000000
9.763302968000,-0.241000000000
9.770990507000,-0.248000000000
9.778678046000,-0.256000000000
9.786365585000,-0.256000000000
9.794053124000,-0.238000000000
9.801740663000,-0.224000000000
9.809428202000,-0.219000000000
9.817115741000,-0.209000000000
9.824803280000,-0.192000000000
9.832490819000,-0.179000000000
9.840178358000,-0.172000000000
9.847865897000,-0.164000000000
9.855553436000,-0.157000000000
9.863240975000,-0.147000000000
9.870928514000,-0.140000000000
9.878616053000,-0.137000000000
9.886303592000,-0.135000000000
9.893991131000,-0.130000000000
9.901678670000,-0.128000000000
9.909366209000,-0.130000000000
9.917053748000,-0.130000000000
9.924741287000,-0.128000000000
9.932428826000,-0.123000000000
9.940116365000,-0.113000000000
9.947803904000,-0.118000000000
9.955491443000,-0.130000000000
9.963178982000,-0.128000000000
9.970866521000,-0.115000000000
9.978554060000,-0.110000000000
9.986241599000,-0.105000000000
9.993929138000,-0.100000000000
10.001616677000,-0.100000000000
10.009304216000,-0.098000000000
10.016991755000,-0.093000000000
10.024679294000,-0.096000000000
10.032366833000,-0.105000000000
10.040054372000,-0.113000000000
10.047741911000,-0.105000000000
10.055429450000,-0.088000000000
10.063116989000,-0.076000000000
10.070804528000,-0.076000000000
10.078492067000,-0.073000000000
10.086179606000,-0.059000000000
10.093867145000,-0.051000000000
10.101554684000,-0.064000000000
10.109242291000,-0.086000000000
10.116930249000,-0.096000000000
10.124618207000,-0.088000000000
10.132306165000,-0.076000000000
10.139994123000,-0.068000000000
10.147682081000,-0.071000000000
10.155370039000,-0.078000000000
10.163057997000,-0.078000000000
10.170745955000,-0.091000000000
10.178433913000,-0.145000000000
10.186121871000,-0.236000000000
10.193809829000,-0.169000000000
10.201497787000,0.366000000000
10.209185745000,1.267000000000
10.216873703000,1.920000000000
10.224561661000,1.541000000000
10.232249619000,0.179000000000
10.239937577000,-0.595000000000
10.247625535000,-0.263000000000
10.255313493000,-0.081000000000
10.263001451000,-0.263000000000
10.270689409000,-0.221000000000
10.278377367000,-0.125000000000
10.286065325000,-0.164000000000
10.293753283000,-0.162000000000
10.301441241000,-0.105000000000
10.309129199000,-0.091000000000
10.316817157000,-0.086000000000
10.324505115000,-0.066000000000
10.332193073000,-0.044000000000
10.339881031000,-0.024000000000
10.347568989000,-0.002000000000
10.355256947000,0.027000000000
10.362944905000,0.059000000000
10.370632863000,0.078000000000
10.378320821000,0.096000000000
10.386008779000,0.135000000000
10.393696737000,0.182000000000
10.401384695000,0.216000000000
10.409072653000,0.246000000000
10.416760611000,0.273000000000
10.424448569000,0.283000000000
10.432136527000,0.283000000000
10.439824485000,0.265000000000
10.447512443000,0.256000000000
10.455200401000,0.231000000000
10.462888359000,0.152000000000
10.470576317000,0.044000000000
10.478264275000,-0.036000000000
10.485952233000,-0.108000000000
10.493640191000,-0.192000000000
10.501328149000,-0.253000000000
10.509016107000,-0.253000000000
10.516704065000,-0.241000000000
10.524392023000,-0.253000000000
10.532079981000,-0.243000000000
10.539767939000,-0.221000000000
10.547455897000,-0.214000000000
10.555143855000,-0.214000000000
10.562831813000,-0.201000000000
10.570519771000,-0.189000000000
10.578207729000,-0.184000000000
10.585895687000,-0.174000000000
10.593583645000,-0.150000000000
10.601271603000,-0.140000000000
10.608959561000,-0.145000000000
10.616647519000,-0.140000000000
10.624335477000,-0.135000000000
10.632023435000,-0.130000000000
10.639711393000,-0.125000000000
10.647399351000,-0.123000000000
10.655087309000,-0.128000000000
10.662775267000,-0.128000000000
10.670463228000,-0.125000000000
10.678150767000,-0.125000000000
10.685838306000,-0.123000000000
10.693525845000,-0.125000000000
10.701213384000,-0.125000000000
10.708900923000,-0.118000000000
10.716588462000,-0.118000000000
10.724276001000,-0.125000000000
10.731963540000,-0.120000000000
10.739651079000,-0.110000000000
10.747338618000,-0.115000000000
10.755026157000,-0.125000000000
10.762713696000,-0.128000000000
10.770401235000,-0.120000000000
10.778088774000,-0.108000000000
10.785776313000,-0.098000000000
10.793463852000,-0.103000000000
10.801151391000,-0.096000000000
10.808838930000,-0.076000000000
10.816526469000,-0.076000000000
10.824214008000,-0.096000000000
10.831901547000,-0.108000000000
10.839589086000,-0.108000000000
10.847276625000,-0.105000000000
10.854964164000,-0.103000000000
10.862651703000,-0.098000000000
10.870339242000,-0.093000000000
10.878026781000,-0.091000000000
10.885714320000,-0.100000000000
10.893401859000,-0.125000000000
10.901089398000,-0.189000000000
10.908776937000,-0.268000000000
10.916464476000,-0.132000000000
10.924152015000,0.487000000000
10.931839554000,1.385000000000
10.939527093000,1.915000000000
10.947214632000,1.344000000000
10.954902171000,-0.046000000000
10.962589710000,-0.635000000000
10.970277249000,-0.231000000000
10.977964788000,-0.125000000000
10.985652327000,-0.295000000000
10.993339866000,-0.226000000000
11.001027405000,-0.155000000000
11.008714944000,-0.196000000000
11.016402483000,-0.177000000000
11.024090022000,-0.128000000000
11.031777561000,-0.123000000000
11.039465100000,-0.110000000000
11.047152639000,-0.081000000000
11.054840178000,-0.066000000000
11.062527717000,-0.051000000000
11.070215256000,-0.027000000000
11.077902795000,-0.009000000000
11.085590334000,0.012000000000
11.093277873000,0.044000000000
11.100965412000,0.073000000000
11.108652951000,0.100000000000
11.116340490000,0.137000000000
11.124028029000,0.174000000000
11.131715568000,0.199000000000
11.139403107000,0.219000000000
11.147090646000,0.226000000000
11.154778185000,0.224000000000
11.162465724000,0.214000000000
11.170153263000,0.192000000000
11.177840802000,0.152000000000
11.185528341000,0.083000000000
11.193215880000,-0.004000000000
11.200903419000,-0.096000000000
11.208590958000,-0.167000000000
11.216278497000,-0.219000000000
11.223966036000,-0.251000000000
11.231653643000,-0.265000000000
11.239341322000,-0.268000000000
11.247029001000,-0.265000000000
11.254716680000,-0.258000000000
11.262404359000,-0.246000000000
11.270092038000,-0.231000000000
11.277779717000,-0.221000000000
11.285467396000,-0.214000000000
11.293155075000,-0.199000000000
11.300842754000,-0.189000000000
11.308530433000,-0.182000000000
11.316218112000,-0.177000000000
11.323905791000,-0.169000000000
11.331593470000,-0.162000000000
11.339281149000,-0.160000000000
11.346968828000,-0.157000000000
11.354656507000,-0.147000000000
11.362344186000,-0.142000000000
11.370031865000,-0.145000000000
11.377719544000,-0.147000000000
11.385407223000,-0.142000000000
11.393094902000,-0.140000000000
11.400782581000,-0.140000000000
11.408470260000,-0.140000000000
11.416157939000,-0.135000000000
11.423845618000,-0.135000000000
11.431533297000,-0.135000000000
11.439220976000,-0.128000000000
11.446908655000,-0.125000000000
11.454596334000,-0.125000000000
11.462284013000,-0.123000000000
11.469971692000,-0.120000000000
11.477659371000,-0.118000000000
11.485347050000,-0.118000000000
11.493034729000,-0.120000000000
11.500722408000,-0.125000000000
11.508410087000,-0.132000000000
11.516097766000,-0.128000000000
11.523785445000,-0.108000000000
11.531473124000,-0.098000000000
11.539160803000,-0.096000000000
11.546848482000,-0.091000000000
11.554536161000,-0.076000000000
11.562223840000,-0.081000000000
11.569911519000,-0.105000000000
11.577599198000,-0.118000000000
11.585286877000,-0.110000000000
11.592974556000,-0.103000000000
11.600662235000,-0.103000000000
11.608349914000,-0.100000000000
11.616037593000,-0.096000000000
11.623725272000,-0.093000000000
11.631412951000,-0.108000000000
11.639100630000,-0.150000000000
11.646788309000,-0.238000000000
11.654475988000,-0.238000000000
11.662163667000,0.164000000000
11.669851346000,1.001000000000
11.677539025000,1.789000000000
11.685226704000,1.752000000000
11.692914383000,0.551000000000
11.700602062000,-0.551000000000
11.708289741000,-0.430000000000
11.715977420000,-0.086000000000
11.723665099000,-0.238000000000
11.731352778000,-0.290000000000
11.739040457000,-0.172000000000
11.746728136000,-0.182000000000
11.754415815000,-0.204000000000
11.762103494000,-0.150000000000
11.769791173000,-0.125000000000
11.777478852000,-0.128000000000
11.785166531000,-0.103000000000
11.792854232000,-0.076000000000
11.800541841000,-0.064000000000
11.808229450000,-0.044000000000
11.815917059000,-0.019000000000
11.823604668000,0.002000000000
11.831292277000,0.027000000000
11.838979886000,0.056000000000
11.846667495000,0.088000000000
11.854355104000,0.120000000000
11.862042713000,0.157000000000
11.869730322000,0.189000000000
11.877417931000,0.214000000000
11.885105540000,0.228000000000
11.892793149000,0.231000000000
11.900480758000,0.226000000000
11.908168367000,0.214000000000
11.915855976000,0.187000000000
11.923543585000,0.135000000000
11.931231194000,0.054000000000
11.938918803000,-0.039000000000
11.946606412000,-0.123000000000
11.954294021000,-0.189000000000
11.961981630000,-0.236000000000
11.969669239000,-0.260000000000
11.977356848000,-0.265000000000
11.985044457000,-0.263000000000
11.992732066000,-0.263000000000
12.000419675000,-0.256000000000
12.008107284000,-0.238000000000
12.015794893000,-0.224000000000
12.023482502000,-0.216000000000
12.031170111000,-0.204000000000
12.038857720000,-0.192000000000
12.046545329000,-0.187000000000
12.054232938000,-0.177000000000
12.061920547000,-0.167000000000
12.069608156000,-0.162000000000
12.077295765000,-0.157000000000
12.084983374000,-0.157000000000
12.092670983000,-0.152000000000
12.100358592000,-0.147000000000
12.108046201000,-0.145000000000
12.115733810000,-0.142000000000
12.123421419000,-0.142000000000
12.131109028000,-0.142000000000
12.138796637000,-0.142000000000
12.146484246000,-0.140000000000
12.154171855000,-0.137000000000
12.161859464000,-0.132000000000
12.169547073000,-0.132000000000
12.177234682000,-0.132000000000
12.184922291000,-0.128000000000
12.192609900000,-0.120000000000
12.200297509000,-0.120000000000
12.207985118000,-0.123000000000
12.215672727000,-0.123000000000
12.223360336000,-0.115000000000
12.231047945000,-0.110000000000
12.238735554000,-0.110000000000
12.246423163000,-0.115000000000
12.254110772000,-0.125000000000
12.261798381000,-0.128000000000
12.269485990000,-0.115000000000
12.277173599000,-0.098000000000
12.284861208000,-0.093000000000
12.292548817000,-0.093000000000
12.300236426000,-0.078000000000
12.307924035000,-0.071000000000
12.315611644000,-0.091000000000
12.323299253000,-0.113000000000
12.330986862000,-0.115000000000
12.338674471000,-0.105000000000
12.346362080000,-0.098000000000
12.354049734000,-0.098000000000
12.361737482000,-0.096000000000
12.369425230000,-0.091000000000
12.377112978000,-0.096000000000
12.384800726000,-0.115000000000
12.392488474000,-0.182000000000
12.400176222000,-0.263000000000
12.407863970000,-0.118000000000
12.415551718000,0.507000000000
12.423239466000,1.400000000000
12.430927214000,1.907000000000
12.438614962000,1.292000000000
12.446302710000,-0.088000000000
12.453990458000,-0.615000000000
12.461678206000,-0.211000000000
12.469365954000,-0.125000000000
12.477053702000,-0.292000000000
12.484741450000,-0.224000000000
12.492429198000,-0.155000000000
12.500116946000,-0.194000000000
12.507804694000,-0.172000000000
12.515492442000,-0.123000000000
12.523180190000,-0.123000000000
12.530867938000,-0.113000000000
12.538555686000,-0.081000000000
12.546243434000,-0.064000000000
12.553931182000,-0.049000000000
12.561618930000,-0.024000000000
12.569306678000,-0.002000000000
12.576994426000,0.022000000000
12.584682174000,0.049000000000
12.592369922000,0.078000000000
12.600057670000,0.108000000000
12.607745418000,0.142000000000
12.615433166000,0.182000000000
12.623120914000,0.211000000000
12.630808662000,0.233000000000
12.638496410000,0.246000000000
12.646184158000,0.241000000000
12.653871906000,0.228000000000
12.661559654000,0.214000000000
12.669247402000,0.182000000000
12.676935150000,0.110000000000
12.684622898000,0.019000000000
12.692310646000,-0.068000000000
12.699998394000,-0.150000000000
12.707686142000,-0.209000000000
12.715373890000,-0.241000000000
12.723061638000,-0.260000000000
12.730749386000,-0.263000000000
12.738437134000,-0.258000000000
12.746124882000,-0.251000000000
12.753812630000,-0.241000000000
12.761500378000,-0.228000000000
12.769188126000,-0.216000000000
12.776875874000,-0.206000000000
12.784563622000,-0.192000000000
12.792251370000,-0.182000000000
12.799939118000,-0.174000000000
12.807626866000,-0.167000000000
12.815314614000,-0.162000000000
12.823002362000,-0.155000000000
12.830690110000,-0.152000000000
12.838377858000,-0.147000000000
12.846065606000,-0.145000000000
12.853753354000,-0.140000000000
12.861441102000,-0.140000000000
12.869128850000,-0.137000000000
12.876816598000,-0.135000000000
12.884504346000,-0.135000000000
12.892192094000,-0.135000000000
12.899879842000,-0.132000000000
12.907567590000,-0.130000000000
12.915255406000,-0.128000000000
12.922942945000,-0.125000000000
12.930630484000,-0.123000000000
12.938318023000,-0.118000000000
12.946005562000,-0.115000000000
12.953693101000,-0.113000000000
12.961380640000,-0.113000000000
12.969068179000,-0.113000000000
12.976755718000,-0.108000000000
12.984443257000,-0.103000000000
12.992130796000,-0.103000000000
12.999818335000,-0.103000000000
13.007505874000,-0.105000000000
13.015193413000,-0.113000000000
13.022880952000,-0.118000000000
13.030568491000,-0.110000000000
13.038256030000,-0.098000000000
13.045943569000,-0.086000000000
13.053631108000,-0.078000000000
13.061318647000,-0.068000000000
13.069006186000,-0.056000000000
13.076693725000,-0.064000000000
13.084381264000,-0.093000000000
13.092068803000,-0.105000000000
13.099756342000,-0.098000000000
13.107443881000,-0.093000000000
13.115131420000,-0.091000000000
13.122818959000,-0.086000000000
13.130506498000,-0.081000000000
13.138194037000,-0.083000000000
13.145881576000,-0.093000000000
13.153569115000,-0.135000000000
13.161256654000,-0.224000000000
13.168944193000,-0.231000000000
13.176631732000,0.152000000000
13.184319271000,0.972000000000
13.192006810000,1.762000000000
13.199694349000,1.750000000000
13.207381888000,0.583000000000
13.215069427000,-0.519000000000
13.222756966000,-0.418000000000
13.230444505000,-0.078000000000
13.238132044000,-0.221000000000
13.245819583000,-0.270000000000
13.253507122000,-0.157000000000
13.261194661000,-0.167000000000
13.268882200000,-0.187000000000
13.276569739000,-0.135000000000
13.284257278000,-0.115000000000
13.291944817000,-0.113000000000
13.299632356000,-0.086000000000
13.307319895000,-0.064000000000
13.315007434000,-0.054000000000
13.322694973000,-0.032000000000
13.330382512000,-0.007000000000
13.338070051000,0.012000000000
13.345757590000,0.039000000000
13.353445129000,0.066000000000
13.361132668000,0.096000000000
13.368820207000,0.130000000000
13.376507746000,0.167000000000
13.384195285000,0.199000000000
13.391882824000,0.226000000000
13.399570363000,0.243000000000
13.407257902000,0.248000000000
13.414945441000,0.243000000000
13.422632980000,0.231000000000
13.430320519000,0.206000000000
13.438008058000,0.155000000000
13.445695597000,0.076000000000
13.453383136000,-0.014000000000
13.461070675000,-0.100000000000
13.468758214000,-0.172000000000
13.476445821000,-0.216000000000
13.484133779000,-0.243000000000
13.491821737000,-0.258000000000
13.499509695000,-0.260000000000
13.507197653000,-0.251000000000
13.514885611000,-0.241000000000
13.522573569000,-0.233000000000
13.530261527000,-0.221000000000
13.537949485000,-0.206000000000
13.545637443000,-0.194000000000
13.553325401000,-0.184000000000
13.561013359000,-0.174000000000
13.568701317000,-0.164000000000
13.576389275000,-0.160000000000
13.584077233000,-0.155000000000
13.591765191000,-0.150000000000
13.599453149000,-0.147000000000
13.607141107000,-0.147000000000
13.614829065000,-0.140000000000
13.622517023000,-0.135000000000
13.630204981000,-0.137000000000
13.637892939000,-0.135000000000
13.645580897000,-0.130000000000
13.653268855000,-0.130000000000
13.660956813000,-0.128000000000
13.668644771000,-0.125000000000
13.676332729000,-0.123000000000
13.684020687000,-0.120000000000
13.691708645000,-0.118000000000
13.699396603000,-0.118000000000
13.707084561000,-0.118000000000
13.714772519000,-0.110000000000
13.722460477000,-0.108000000000
13.730148435000,-0.108000000000
13.737836393000,-0.098000000000
13.745524351000,-0.093000000000
13.753212309000,-0.098000000000
13.760900267000,-0.100000000000
13.768588225000,-0.100000000000
13.776276183000,-0.108000000000
13.783964141000,-0.113000000000
13.791652099000,-0.103000000000
13.799340057000,-0.083000000000
13.807028015000,-0.071000000000
13.814715973000,-0.071000000000
13.822403931000,-0.061000000000
13.830091889000,-0.051000000000
13.837779847000,-0.061000000000
13.845467805000,-0.088000000000
13.853155763000,-0.098000000000
13.860843721000,-0.093000000000
13.868531679000,-0.081000000000
13.876219637000,-0.066000000000
13.883907595000,-0.066000000000
13.891595553000,-0.073000000000
13.899283511000,-0.076000000000
13.906971469000,-0.093000000000
13.914659427000,-0.155000000000
13.922347385000,-0.233000000000
13.930035343000,-0.135000000000
13.937723301000,0.416000000000
13.945411259000,1.302000000000
13.953099217000,1.920000000000
13.960787175000,1.467000000000
13.968475133000,0.093000000000
13.976163091000,-0.593000000000
13.983851049000,-0.228000000000
13.991539007000,-0.078000000000
13.999226965000,-0.258000000000
14.006914923000,-0.211000000000
14.014602881000,-0.125000000000
14.022290839000,-0.164000000000
14.029978797000,-0.155000000000
14.037666758000,-0.098000000000
14.045354297000,-0.086000000000
14.053041836000,-0.083000000000
14.060729375000,-0.061000000000
14.068416914000,-0.044000000000
14.076104453000,-0.024000000000
14.083791992000,-0.002000000000
14.091479531000,0.014000000000
14.099167070000,0.041000000000
14.106854609000,0.083000000000
14.114542148000,0.113000000000
14.122229687000,0.140000000000
14.129917226000,0.177000000000
14.137604765000,0.209000000000
14.145292304000,0.238000000000
14.152979843000,0.268000000000
14.160667382000,0.278000000000
14.168354921000,0.268000000000
14.176042460000,0.260000000000
14.183729999000,0.256000000000
14.191417538000,0.221000000000
14.199105077000,0.152000000000
14.206792616000,0.068000000000
14.214480155000,-0.019000000000
14.222167694000,-0.108000000000
14.229855233000,-0.177000000000
14.237542772000,-0.214000000000
14.245230311000,-0.238000000000
14.252917850000,-0.248000000000
14.260605389000,-0.241000000000
14.268292928000,-0.236000000000
14.275980467000,-0.233000000000
14.283668006000,-0.219000000000
14.291355545000,-0.201000000000
14.299043084000,-0.189000000000
14.306730623000,-0.177000000000
14.314418162000,-0.167000000000
14.322105701000,-0.162000000000
14.329793240000,-0.155000000000
14.337480779000,-0.142000000000
14.345168318000,-0.130000000000
14.352855857000,-0.130000000000
14.360543396000,-0.142000000000
14.368230935000,-0.123000000000
14.375918474000,-0.105000000000
14.383606013000,-0.123000000000
14.391293552000,-0.125000000000
14.398981091000,-0.108000000000
14.406668630000,-0.115000000000
14.414356169000,-0.118000000000
14.422043708000,-0.108000000000
14.429731247000,-0.103000000000
14.437418786000,-0.105000000000
14.445106325000,-0.100000000000
14.452793864000,-0.103000000000
14.460481403000,-0.105000000000
14.468168942000,-0.096000000000
14.475856481000,-0.093000000000
14.483544020000,-0.100000000000
14.491231559000,-0.103000000000
14.498919098000,-0.105000000000
14.506606637000,-0.105000000000
14.514294176000,-0.088000000000
14.521981715000,-0.076000000000
14.529669254000,-0.073000000000
14.537356793000,-0.066000000000
14.545044332000,-0.051000000000
14.552731871000,-0.051000000000
14.560419410000,-0.076000000000
14.568106949000,-0.096000000000
14.575794488000,-0.093000000000
14.583482027000,-0.083000000000
14.591169566000,-0.078000000000
14.598857173000,-0.064000000000
14.606544712000,-0.066000000000
14.614232251000,-0.083000000000
14.621919790000,-0.086000000000
14.629607329000,-0.105000000000
14.637294868000,-0.194000000000
14.644982407000,-0.263000000000
14.652669946000,-0.002000000000
14.660357485000,0.753000000000
14.668045024000,1.639000000000
14.675732563000,1.939000000000
14.683420102000,1.033000000000
14.691107641000,-0.307000000000
14.698795180000,-0.536000000000
14.706482719000,-0.118000000000
14.714170258000,-0.164000000000
14.721857797000,-0.273000000000
14.729545336000,-0.152000000000
14.737232875000,-0.128000000000
14.744920414000,-0.167000000000
14.752607953000,-0.128000000000
14.760295492000,-0.088000000000
14.767983031000,-0.086000000000
14.775670570000,-0.068000000000
14.783358109000,-0.036000000000
14.791045648000,-0.024000000000
14.798733187000,-0.017000000000
14.806420726000,0.012000000000
14.814108265000,0.046000000000
14.821795804000,0.071000000000
14.829483343000,0.103000000000
14.837170882000,0.130000000000
14.844858421000,0.162000000000
14.852545960000,0.209000000000
14.860233499000,0.248000000000
14.867921038000,0.273000000000
14.875608577000,0.290000000000
14.883296116000,0.302000000000
14.890983655000,0.300000000000
14.898671194000,0.280000000000
14.906358733000,0.241000000000
14.914046272000,0.189000000000
14.921733811000,0.113000000000
14.929421350000,0.017000000000
14.937108889000,-0.083000000000
14.944796428000,-0.172000000000
14.952483967000,-0.224000000000
14.960171506000,-0.248000000000
14.967859045000,-0.263000000000
14.975546584000,-0.265000000000
14.983234123000,-0.258000000000
14.990921662000,-0.248000000000
14.998609201000,-0.243000000000
15.006296740000,-0.228000000000
15.013984279000,-0.211000000000
15.021671818000,-0.206000000000
15.029359357000,-0.196000000000
15.037046896000,-0.179000000000
15.044734435000,-0.174000000000
15.052421974000,-0.169000000000
15.060109513000,-0.157000000000
15.067797052000,-0.152000000000
15.075484591000,-0.155000000000
15.083172130000,-0.145000000000
15.090859669000,-0.140000000000
15.098547208000,-0.140000000000
15.106234747000,-0.135000000000
15.113922286000,-0.132000000000
15.121609825000,-0.135000000000
15.129297364000,-0.132000000000
15.136984903000,-0.128000000000
15.144672442000,-0.128000000000
15.152359981000,-0.132000000000
15.160047588000,-0.132000000000
15.167735336000,-0.125000000000
15.175423084000,-0.120000000000
15.183110832000,-0.123000000000
15.190798580000,-0.123000000000
15.198486328000,-0.118000000000
15.206174076000,-0.120000000000
15.213861824000,-0.130000000000
15.221549572000,-0.135000000000
15.229237320000,-0.125000000000
15.236925068000,-0.110000000000
15.244612816000,-0.100000000000
15.252300564000,-0.103000000000
15.259988312000,-0.091000000000
15.267676060000,-0.073000000000
15.275363808000,-0.086000000000
15.283051556000,-0.110000000000
15.290739304000,-0.120000000000
15.298427052000,-0.115000000000
15.306114800000,-0.108000000000
15.313802548000,-0.105000000000
15.321490296000,-0.103000000000
15.329178044000,-0.096000000000
15.336865792000,-0.096000000000
15.344553540000,-0.118000000000
15.352241288000,-0.172000000000
15.359929036000,-0.263000000000
15.367616784000,-0.199000000000
15.375304532000,0.332000000000
15.382992280000,1.221000000000
15.390680028000,1.885000000000
15.398367776000,1.563000000000
15.406055524000,0.224000000000
15.413743272000,-0.630000000000
15.421431020000,-0.322000000000
15.429118768000,-0.088000000000
15.436806516000,-0.275000000000
15.444494264000,-0.258000000000
15.452182012000,-0.152000000000
15.459869760000,-0.184000000000
15.467557508000,-0.182000000000
15.475245256000,-0.128000000000
15.482933004000,-0.120000000000
15.490620752000,-0.118000000000
15.498308500000,-0.086000000000
15.505996248000,-0.066000000000
15.513683996000,-0.056000000000
15.521371744000,-0.034000000000
15.529059492000,-0.007000000000
15.536747240000,0.014000000000
15.544434988000,0.039000000000
15.552122736000,0.064000000000
15.559810484000,0.098000000000
15.567498232000,0.132000000000
15.575185980000,0.164000000000
15.582873728000,0.194000000000
15.590561476000,0.216000000000
15.598249224000,0.228000000000
15.605936972000,0.231000000000
15.613624720000,0.224000000000
15.621312468000,0.206000000000
15.629000216000,0.172000000000
15.636687964000,0.113000000000
15.644375712000,0.029000000000
15.652063460000,-0.064000000000
15.659751208000,-0.142000000000
15.667438956000,-0.199000000000
15.675126704000,-0.238000000000
15.682814452000,-0.258000000000
15.690502200000,-0.260000000000
15.698189948000,-0.258000000000
15.705877696000,-0.251000000000
15.713565444000,-0.236000000000
15.721253264000,-0.226000000000
15.728941012000,-0.216000000000
15.736628760000,-0.204000000000
15.744316508000,-0.192000000000
15.752004256000,-0.184000000000
15.759692004000,-0.174000000000
15.767379752000,-0.164000000000
15.775067500000,-0.160000000000
15.782755248000,-0.155000000000
15.790442996000,-0.147000000000
15.798130744000,-0.145000000000
15.805818492000,-0.145000000000
15.813506240000,-0.142000000000
15.821193988000,-0.137000000000
15.828881736000,-0.137000000000
15.836569484000,-0.135000000000
15.844257232000,-0.132000000000
15.851944980000,-0.132000000000
15.859632728000,-0.132000000000
15.867320476000,-0.125000000000
15.875008224000,-0.123000000000
15.882695972000,-0.125000000000
15.890383720000,-0.120000000000
15.898071468000,-0.118000000000
15.905759216000,-0.115000000000
15.913446964000,-0.115000000000
15.921134712000,-0.113000000000
15.928822460000,-0.108000000000
15.936510208000,-0.108000000000
15.944197956000,-0.113000000000
15.951885704000,-0.123000000000
15.959573452000,-0.123000000000
15.967261200000,-0.108000000000
15.974948948000,-0.093000000000
15.982636696000,-0.088000000000
15.990324444000,-0.086000000000
15.998012192000,-0.071000000000
16.005699940000,-0.064000000000
16.013387688000,-0.081000000000
16.021075436000,-0.105000000000
16.028763184000,-0.108000000000
16.036450932000,-0.100000000000
16.044138680000,-0.096000000000
16.051826428000,-0.091000000000
16.059514176000,-0.086000000000
16.067201924000,-0.086000000000
16.074889672000,-0.093000000000
16.082577420000,-0.118000000000
16.090265168000,-0.187000000000
16.097952916000,-0.258000000000
16.105640664000,-0.071000000000
16.113328412000,0.603000000000
16.121016160000,1.501000000000
16.128703908000,1.932000000000
16.136391656000,1.184000000000
16.144079404000,-0.194000000000
16.151767152000,-0.593000000000
16.159454900000,-0.167000000000
16.167142648000,-0.135000000000
16.174830396000,-0.292000000000
16.182518144000,-0.204000000000
16.190205892000,-0.152000000000
16.197893640000,-0.192000000000
16.205581388000,-0.160000000000
16.213269136000,-0.115000000000
16.220956884000,-0.118000000000
16.228644632000,-0.100000000000
16.236332380000,-0.068000000000
16.244020128000,-0.059000000000
16.251707876000,-0.044000000000
16.259395624000,-0.014000000000
16.267083372000,0.004000000000
16.274771120000,0.027000000000
16.282458936000,0.059000000000
16.290146475000,0.083000000000
16.297834014000,0.110000000000
16.305521553000,0.150000000000
16.313209092000,0.189000000000
16.320896631000,0.216000000000
16.328584170000,0.236000000000
16.336271709000,0.241000000000
16.343959248000,0.241000000000
16.351646787000,0.233000000000
16.359334326000,0.209000000000
16.367021865000,0.169000000000
16.374709404000,0.105000000000
16.382396943000,0.014000000000
16.390084482000,-0.081000000000
16.397772021000,-0.155000000000
16.405459560000,-0.209000000000
16.413147099000,-0.248000000000
16.420834638000,-0.263000000000
16.428522177000,-0.260000000000
16.436209716000,-0.256000000000
16.443897255000,-0.248000000000
16.451584794000,-0.238000000000
16.459272333000,-0.226000000000
16.466959872000,-0.214000000000
16.474647411000,-0.201000000000
16.482334950000,-0.192000000000
16.490022489000,-0.182000000000
16.497710028000,-0.169000000000
16.505397567000,-0.162000000000
16.513085106000,-0.157000000000
16.520772645000,-0.155000000000
16.528460184000,-0.150000000000
16.536147723000,-0.145000000000
16.543835262000,-0.145000000000
16.551522801000,-0.145000000000
16.559210340000,-0.140000000000
16.566897879000,-0.135000000000
16.574585418000,-0.135000000000
16.582272957000,-0.135000000000
16.589960496000,-0.135000000000
16.597648035000,-0.132000000000
16.605335574000,-0.128000000000
16.613023113000,-0.125000000000
16.620710652000,-0.128000000000
16.628398191000,-0.128000000000
16.636085730000,-0.120000000000
16.643773269000,-0.118000000000
16.651460808000,-0.115000000000
16.659148347000,-0.113000000000
16.666835886000,-0.113000000000
16.674523425000,-0.120000000000
16.682210964000,-0.130000000000
16.689898503000,-0.123000000000
16.697586042000,-0.105000000000
16.705273581000,-0.093000000000
16.712961120000,-0.091000000000
16.720648659000,-0.083000000000
16.728336198000,-0.068000000000
16.736023737000,-0.068000000000
16.743711276000,-0.096000000000
16.751398815000,-0.115000000000
16.759086354000,-0.105000000000
16.766773893000,-0.098000000000
16.774461432000,-0.100000000000
16.782148971000,-0.100000000000
16.789836510000,-0.096000000000
16.797524049000,-0.093000000000
16.805211588000,-0.105000000000
16.812899127000,-0.142000000000
16.820586666000,-0.226000000000
16.828274205000,-0.263000000000
16.835961744000,0.049000000000
16.843649351000,0.827000000000
16.851337309000,1.673000000000
16.859025267000,1.838000000000
16.866713225000,0.797000000000
16.874401183000,-0.450000000000
16.882089141000,-0.512000000000
16.889777099000,-0.110000000000
16.897465057000,-0.201000000000
16.905153015000,-0.292000000000
16.912840973000,-0.172000000000
16.920528931000,-0.164000000000
16.928216889000,-0.199000000000
16.935904847000,-0.150000000000
16.943592805000,-0.120000000000
16.951280763000,-0.123000000000
16.958968721000,-0.096000000000
16.966656679000,-0.071000000000
16.974344637000,-0.061000000000
16.982032595000,-0.036000000000
16.989720553000,-0.012000000000
16.997408511000,0.004000000000
17.005096469000,0.029000000000
17.012784427000,0.061000000000
17.020472385000,0.096000000000
17.028160343000,0.125000000000
17.035848301000,0.162000000000
17.043536259000,0.199000000000
17.051224217000,0.226000000000
17.058912175000,0.243000000000
17.066600133000,0.251000000000
17.074288091000,0.248000000000
17.081976049000,0.236000000000
17.089664007000,0.209000000000
17.097351965000,0.157000000000
17.105039923000,0.076000000000
17.112727881000,-0.019000000000
17.120415839000,-0.110000000000
17.128103797000,-0.179000000000
17.135791755000,-0.228000000000
17.143479713000,-0.258000000000
17.151167671000,-0.268000000000
17.158855629000,-0.265000000000
17.166543587000,-0.260000000000
17.174231545000,-0.251000000000
17.181919503000,-0.238000000000
17.189607461000,-0.226000000000
17.197295419000,-0.219000000000
17.204983377000,-0.206000000000
17.212671335000,-0.196000000000
17.220359293000,-0.187000000000
17.228047251000,-0.177000000000
17.235735209000,-0.167000000000
17.243423167000,-0.162000000000
17.251111125000,-0.160000000000
17.258799083000,-0.152000000000
17.266487041000,-0.150000000000
17.274174999000,-0.147000000000
17.281862957000,-0.147000000000
17.289550915000,-0.142000000000
17.297238873000,-0.142000000000
17.304926831000,-0.140000000000
17.312614789000,-0.137000000000
17.320302747000,-0.137000000000
17.327990705000,-0.137000000000
17.335678663000,-0.137000000000
17.343366621000,-0.135000000000
17.351054579000,-0.132000000000
17.358742537000,-0.130000000000
17.366430495000,-0.128000000000
17.374118453000,-0.123000000000
17.381806411000,-0.118000000000
17.389494369000,-0.120000000000
17.397182327000,-0.118000000000
17.404870288000,-0.115000000000
17.412557827000,-0.123000000000
17.420245366000,-0.130000000000
17.427932905000,-0.132000000000
17.435620444000,-0.115000000000
17.443307983000,-0.096000000000
17.450995522000,-0.093000000000
17.458683061000,-0.091000000000
17.466370600000,-0.076000000000
17.474058139000,-0.071000000000
17.481745678000,-0.093000000000
17.489433217000,-0.115000000000
17.497120756000,-0.113000000000
17.504808295000,-0.105000000000
17.512495834000,-0.100000000000
17.520183373000,-0.098000000000
17.527870912000,-0.096000000000
17.535558451000,-0.093000000000
17.543245990000,-0.100000000000
17.550933529000,-0.132000000000
17.558621068000,-0.204000000000
17.566308607000,-0.268000000000
17.573996146000,-0.068000000000
17.581683685000,0.617000000000
17.589371224000,1.506000000000
17.597058763000,1.885000000000
17.604746302000,1.090000000000
17.612433841000,-0.256000000000
17.620121380000,-0.580000000000
17.627808919000,-0.157000000000
17.635496458000,-0.152000000000
17.643183997000,-0.292000000000
17.650871536000,-0.196000000000
17.658559075000,-0.157000000000
17.666246614000,-0.199000000000
17.673934153000,-0.160000000000
17.681621692000,-0.118000000000
17.689309231000,-0.118000000000
17.696996770000,-0.103000000000
17.704684309000,-0.078000000000
17.712371848000,-0.066000000000
17.720059387000,-0.044000000000
17.727746926000,-0.012000000000
17.735434465000,0.009000000000
17.743122004000,0.032000000000
17.750809543000,0.059000000000
17.758497082000,0.088000000000
17.766184621000,0.118000000000
17.773872160000,0.155000000000
17.781559699000,0.196000000000
17.789247238000,0.226000000000
17.796934777000,0.243000000000
17.804622316000,0.256000000000
17.812309855000,0.248000000000
17.819997394000,0.238000000000
17.827684933000,0.224000000000
17.835372472000,0.177000000000
17.843060011000,0.108000000000
17.850747550000,0.019000000000
17.858435089000,-0.081000000000
17.866122628000,-0.162000000000
17.873810167000,-0.211000000000
17.881497706000,-0.241000000000
17.889185245000,-0.268000000000
17.896872784000,-0.273000000000
17.904560323000,-0.253000000000
17.912247862000,-0.241000000000
17.919935401000,-0.236000000000
17.927622940000,-0.224000000000
17.935310479000,-0.211000000000
17.942998018000,-0.204000000000
17.950685557000,-0.196000000000
17.958373096000,-0.184000000000
17.966060703000,-0.172000000000
17.973748382000,-0.162000000000
17.981436061000,-0.155000000000
17.989123740000,-0.150000000000
17.996811419000,-0.145000000000
18.004499098000,-0.137000000000
18.012186777000,-0.137000000000
18.019874456000,-0.135000000000
18.027562135000,-0.128000000000
18.035249814000,-0.128000000000
18.042937493000,-0.135000000000
18.050625172000,-0.135000000000
18.058312851000,-0.130000000000
18.066000530000,-0.128000000000
18.073688209000,-0.125000000000
18.081375888000,-0.118000000000
18.089063567000,-0.118000000000
18.096751246000,-0.128000000000
18.104438925000,-0.123000000000
18.112126604000,-0.108000000000
18.119814283000,-0.110000000000
18.127501962000,-0.120000000000
18.135189641000,-0.125000000000
18.142877320000,-0.120000000000
18.150564999000,-0.110000000000
18.158252678000,-0.098000000000
18.165940357000,-0.091000000000
18.173628036000,-0.083000000000
18.181315715000,-0.068000000000
18.189003394000,-0.066000000000
18.196691073000,-0.078000000000
18.204378752000,-0.098000000000
18.212066431000,-0.105000000000
18.219754110000,-0.108000000000
18.227441789000,-0.098000000000
18.235129468000,-0.083000000000
18.242817147000,-0.086000000000
18.250504826000,-0.091000000000
18.258192505000,-0.083000000000
18.265880184000,-0.108000000000
18.273567863000,-0.196000000000
18.281255542000,-0.275000000000
18.288943221000,-0.086000000000
18.296630900000,0.608000000000
18.304318579000,1.531000000000
18.312006258000,1.947000000000
18.319693937000,1.154000000000
18.327381616000,-0.231000000000
18.335069295000,-0.583000000000
18.342756974000,-0.155000000000
18.350444653000,-0.150000000000
18.358132332000,-0.292000000000
18.365820011000,-0.192000000000
18.373507690000,-0.147000000000
18.381195369000,-0.177000000000
18.388883048000,-0.142000000000
18.396570727000,-0.113000000000
18.404258406000,-0.105000000000
18.411946085000,-0.083000000000
18.419633764000,-0.066000000000
18.427321443000,-0.051000000000
18.435009122000,-0.024000000000
18.442696801000,0.000000000000
18.450384480000,0.022000000000
18.458072159000,0.051000000000
18.465759838000,0.083000000000
18.473447517000,0.110000000000
18.481135196000,0.150000000000
18.488822875000,0.194000000000
18.496510554000,0.224000000000
18.504198233000,0.246000000000
18.511885912000,0.273000000000
18.519573591000,0.290000000000
18.527261292000,0.288000000000
18.534948901000,0.265000000000
18.542636510000,0.238000000000
18.550324119000,0.192000000000
18.558011728000,0.113000000000
18.565699337000,0.009000000000
18.573386946000,-0.086000000000
18.581074555000,-0.164000000000
18.588762164000,-0.219000000000
18.596449773000,-0.258000000000
18.604137382000,-0.275000000000
18.611824991000,-0.270000000000
18.619512600000,-0.265000000000
18.627200209000,-0.268000000000
18.634887818000,-0.251000000000
18.642575427000,-0.228000000000
18.650263036000,-0.226000000000
18.657950645000,-0.221000000000
18.665638254000,-0.209000000000
18.673325863000,-0.194000000000
18.681013472000,-0.182000000000
18.688701081000,-0.177000000000
18.696388690000,-0.169000000000
18.704076299000,-0.157000000000
18.711763908000,-0.152000000000
18.719451517000,-0.150000000000
18.727139126000,-0.142000000000
18.734826735000,-0.135000000000
18.742514344000,-0.135000000000
18.750201953000,-0.137000000000
18.757889562000,-0.135000000000
18.765577171000,-0.135000000000
18.773264780000,-0.135000000000
18.780952389000,-0.137000000000
18.788639998000,-0.140000000000
18.796327607000,-0.135000000000
18.804015216000,-0.132000000000
18.811702825000,-0.135000000000
18.819390434000,-0.128000000000
18.827078043000,-0.123000000000
18.834765652000,-0.132000000000
18.842453261000,-0.142000000000
18.850140870000,-0.135000000000
18.857828479000,-0.118000000000
18.865516088000,-0.110000000000
18.873203697000,-0.108000000000
18.880891306000,-0.103000000000
18.888578915000,-0.088000000000
18.896266524000,-0.076000000000
18.903954133000,-0.096000000000
18.911641742000,-0.123000000000
18.919329351000,-0.125000000000
18.927016960000,-0.113000000000
18.934704569000,-0.105000000000
18.942392178000,-0.100000000000
18.950079787000,-0.105000000000
18.957767396000,-0.108000000000
18.965455005000,-0.103000000000
18.973142614000,-0.123000000000
18.980830223000,-0.201000000000
18.988517832000,-0.285000000000
18.996205441000,-0.145000000000
19.003893050000,0.482000000000
19.011580659000,1.388000000000
19.019268268000,1.927000000000
19.026955877000,1.344000000000
19.034643486000,-0.061000000000
19.042331095000,-0.642000000000
19.050018704000,-0.241000000000
19.057706313000,-0.137000000000
19.065393922000,-0.302000000000
19.073081531000,-0.231000000000
19.080769140000,-0.162000000000
19.088456794000,-0.201000000000
19.096144403000,-0.179000000000
19.103832012000,-0.132000000000
19.111519621000,-0.130000000000
19.119207230000,-0.118000000000
19.126894839000,-0.091000000000
19.134582448000,-0.073000000000
19.142270057000,-0.059000000000
19.149957666000,-0.034000000000
19.157645275000,-0.009000000000
19.165332884000,0.014000000000
19.173020493000,0.039000000000
19.180708102000,0.068000000000
19.188395711000,0.103000000000
19.196083320000,0.140000000000
19.203770929000,0.172000000000
19.211458538000,0.204000000000
19.219146147000,0.226000000000
19.226833756000,0.233000000000
19.234521365000,0.233000000000
19.242208974000,0.228000000000
19.249896583000,0.206000000000
19.257584192000,0.167000000000
19.265271801000,0.098000000000
19.272959410000,0.002000000000
19.280647019000,-0.088000000000
19.288334628000,-0.167000000000
19.296022237000,-0.224000000000
19.303709846000,-0.253000000000
19.311397455000,-0.270000000000
19.319085064000,-0.275000000000
19.326772673000,-0.268000000000
19.334460282000,-0.258000000000
19.342147891000,-0.251000000000
19.349835500000,-0.238000000000
19.357523109000,-0.224000000000
19.365210718000,-0.214000000000
19.372898327000,-0.204000000000
19.380585936000,-0.189000000000
19.388273545000,-0.182000000000
19.395961154000,-0.174000000000
19.403648763000,-0.167000000000
19.411336372000,-0.160000000000
19.419023981000,-0.152000000000
19.426711590000,-0.150000000000
19.434399199000,-0.147000000000
19.442086808000,-0.142000000000
19.449774417000,-0.140000000000
19.457462026000,-0.137000000000
19.465149635000,-0.137000000000
19.472837244000,-0.137000000000
19.480524853000,-0.137000000000
19.488212462000,-0.137000000000
19.495900071000,-0.135000000000
19.503587680000,-0.132000000000
19.511275289000,-0.132000000000
19.518962898000,-0.132000000000
19.526650507000,-0.130000000000
19.534338116000,-0.125000000000
19.542025725000,-0.123000000000
19.549713334000,-0.123000000000
19.557400943000,-0.125000000000
19.565088552000,-0.130000000000
19.572776161000,-0.130000000000
19.580463770000,-0.130000000000
19.588151379000,-0.115000000000
19.595838988000,-0.100000000000
19.603526597000,-0.100000000000
19.611214206000,-0.093000000000
19.618901815000,-0.076000000000
19.626589424000,-0.073000000000
19.634277033000,-0.100000000000
19.641964642000,-0.123000000000
19.649652296000,-0.115000000000
19.657339975000,-0.103000000000
19.665027654000,-0.103000000000
19.672715333000,-0.105000000000
19.680403012000,-0.100000000000
19.688090691000,-0.096000000000
19.695778370000,-0.108000000000
19.703466049000,-0.147000000000
19.711153728000,-0.238000000000
19.718841407000,-0.263000000000
19.726529086000,0.098000000000
19.734216765000,0.918000000000
19.741904444000,1.747000000000
19.749592123000,1.811000000000
19.757279802000,0.674000000000
19.764967481000,-0.514000000000
19.772655160000,-0.477000000000
19.780342839000,-0.103000000000
19.788030518000,-0.228000000000
19.795718197000,-0.295000000000
19.803405876000,-0.179000000000
19.811093555000,-0.182000000000
19.818781234000,-0.204000000000
19.826468913000,-0.152000000000
19.834156592000,-0.128000000000
19.841844271000,-0.128000000000
19.849531950000,-0.103000000000
19.857219629000,-0.076000000000
19.864907308000,-0.064000000000
19.872594987000,-0.046000000000
19.880282666000,-0.024000000000
19.887970345000,0.000000000000
19.895658024000,0.027000000000
19.903345703000,0.056000000000
19.911033382000,0.088000000000
19.918721061000,0.123000000000
19.926408740000,0.160000000000
19.934096419000,0.196000000000
19.941784098000,0.226000000000
19.949471777000,0.241000000000
19.957159456000,0.246000000000
19.964847135000,0.246000000000
19.972534814000,0.236000000000
19.980222493000,0.206000000000
19.987910172000,0.152000000000
19.995597851000,0.076000000000
20.003285530000,-0.019000000000
20.010973209000,-0.115000000000
20.018660888000,-0.189000000000
20.026348567000,-0.233000000000
20.034036246000,-0.260000000000
20.041723925000,-0.273000000000
20.049411604000,-0.275000000000
20.057099283000,-0.268000000000
20.064786962000,-0.256000000000
20.072474641000,-0.246000000000
20.080162320000,-0.233000000000
20.087849999000,-0.216000000000
20.095537678000,-0.206000000000
20.103225357000,-0.201000000000
20.110913036000,-0.192000000000
20.118600715000,-0.179000000000
20.126288394000,-0.172000000000
20.133976073000,-0.169000000000
20.141663752000,-0.164000000000
20.149351431000,-0.155000000000
20.157039110000,-0.150000000000
20.164726789000,-0.150000000000
20.172414468000,-0.150000000000
20.180102147000,-0.147000000000
20.187789826000,-0.145000000000
20.195477505000,-0.142000000000
20.203165184000,-0.140000000000
20.210852881000,-0.140000000000
20.218540420000,-0.140000000000
20.226227959000,-0.137000000000
20.233915498000,-0.135000000000
20.241603037000,-0.130000000000
20.249290576000,-0.130000000000
20.256978115000,-0.130000000000
20.264665654000,-0.128000000000
20.272353193000,-0.125000000000
20.280040732000,-0.120000000000
20.287728271000,-0.123000000000
20.295415810000,-0.130000000000
20.303103349000,-0.135000000000
20.310790888000,-0.130000000000
20.318478427000,-0.115000000000
20.326165966000,-0.103000000000
20.333853505000,-0.100000000000
20.341541044000,-0.091000000000
20.349228583000,-0.073000000000
20.356916122000,-0.081000000000
20.364603661000,-0.105000000000
20.372291200000,-0.115000000000
20.379978739000,-0.108000000000
20.387666278000,-0.108000000000
20.395353817000,-0.103000000000
20.403041356000,-0.098000000000
20.410728895000,-0.096000000000
20.418416434000,-0.098000000000
20.426103973000,-0.108000000000
20.433791512000,-0.152000000000
20.441479051000,-0.243000000000
20.449166590000,-0.253000000000
20.456854129000,0.120000000000
20.464541668000,0.935000000000
20.472229207000,1.737000000000
20.479916746000,1.762000000000
20.487604285000,0.610000000000
20.495291824000,-0.526000000000
20.502979363000,-0.448000000000
20.510666902000,-0.096000000000
20.518354441000,-0.233000000000
20.526041980000,-0.290000000000
20.533729519000,-0.174000000000
20.541417058000,-0.179000000000
20.549104597000,-0.199000000000
20.556792136000,-0.147000000000
20.564479675000,-0.123000000000
20.572167214000,-0.123000000000
20.579854753000,-0.098000000000
20.587542292000,-0.073000000000
20.595229831000,-0.059000000000
20.602917370000,-0.041000000000
20.610604909000,-0.019000000000
20.618292448000,0.007000000000
20.625979987000,0.029000000000
20.633667526000,0.059000000000
20.641355065000,0.093000000000
20.649042604000,0.125000000000
20.656730143000,0.162000000000
20.664417682000,0.199000000000
20.672105221000,0.228000000000
20.679792760000,0.248000000000
20.687480299000,0.256000000000
20.695167838000,0.251000000000
20.702855377000,0.238000000000
20.710542916000,0.211000000000
20.718230455000,0.160000000000
20.725917994000,0.078000000000
20.733605533000,-0.019000000000
20.741293072000,-0.113000000000
20.748980611000,-0.182000000000
20.756668150000,-0.226000000000
20.764355689000,-0.256000000000
20.772043296000,-0.273000000000
20.779730905000,-0.270000000000
20.787418514000,-0.260000000000
20.795106123000,-0.251000000000
20.802793732000,-0.241000000000
20.810481341000,-0.228000000000
20.818168950000,-0.211000000000
20.825856559000,-0.201000000000
20.833544168000,-0.194000000000
20.841231777000,-0.189000000000
20.848919386000,-0.177000000000
20.856606995000,-0.169000000000
20.864294604000,-0.164000000000
20.871982213000,-0.157000000000
20.879669822000,-0.155000000000
20.887357431000,-0.155000000000
20.895045040000,-0.145000000000
20.902732649000,-0.142000000000
20.910420258000,-0.142000000000
20.918107867000,-0.137000000000
20.925795476000,-0.140000000000
20.933483085000,-0.145000000000
20.941170694000,-0.137000000000
20.948858303000,-0.125000000000
20.956545912000,-0.130000000000
20.964233521000,-0.135000000000
20.971921130000,-0.132000000000
20.979608739000,-0.125000000000
20.987296348000,-0.123000000000
20.994983957000,-0.120000000000
21.002671566000,-0.118000000000
21.010359175000,-0.115000000000
21.018046784000,-0.118000000000
21.025734393000,-0.118000000000
21.033422002000,-0.118000000000
21.041109611000,-0.123000000000
21.048797220000,-0.123000000000
21.056484829000,-0.108000000000
21.064172438000,-0.088000000000
21.071860047000,-0.088000000000
21.079547656000,-0.083000000000
21.087235265000,-0.071000000000
21.094922874000,-0.076000000000
21.102610483000,-0.098000000000
21.110298092000,-0.110000000000
21.117985701000,-0.105000000000
21.125673310000,-0.100000000000
21.133360919000,-0.093000000000
21.141048528000,-0.088000000000
21.148736137000,-0.091000000000
21.156423746000,-0.088000000000
21.164111355000,-0.096000000000
21.171798964000,-0.140000000000
21.179486573000,-0.226000000000
21.187174182000,-0.231000000000
21.194861791000,0.150000000000
21.202549400000,0.994000000000
21.210237009000,1.802000000000
21.217924618000,1.755000000000
21.225612227000,0.548000000000
21.233299836000,-0.544000000000
21.240987445000,-0.416000000000
21.248675054000,-0.076000000000
21.256362663000,-0.231000000000
21.264050272000,-0.280000000000
21.271737881000,-0.160000000000
21.279425490000,-0.162000000000
21.287113099000,-0.182000000000
21.294800708000,-0.132000000000
21.302488317000,-0.108000000000
21.310175926000,-0.103000000000
21.317863535000,-0.086000000000
21.325551144000,-0.064000000000
21.333238802000,-0.044000000000
21.340926690000,-0.032000000000
21.348614578000,0.000000000000
21.356302466000,0.032000000000
21.363990354000,0.049000000000
21.371678242000,0.071000000000
21.379366130000,0.113000000000
21.387054018000,0.150000000000
21.394741906000,0.177000000000
21.402429794000,0.211000000000
21.410117682000,0.251000000000
21.417805570000,0.275000000000
21.425493458000,0.273000000000
21.433181346000,0.258000000000
21.440869234000,0.248000000000
21.448557122000,0.231000000000
21.456245010000,0.179000000000
21.463932898000,0.093000000000
21.471620786000,-0.007000000000
21.479308674000,-0.098000000000
21.486996562000,-0.172000000000
21.494684450000,-0.226000000000
21.502372338000,-0.253000000000
21.510060226000,-0.260000000000
21.517748114000,-0.258000000000
21.525436002000,-0.258000000000
21.533123890000,-0.253000000000
21.540811778000,-0.238000000000
21.548499666000,-0.226000000000
21.556187554000,-0.219000000000
21.563875442000,-0.209000000000
21.571563330000,-0.187000000000
21.579251218000,-0.172000000000
21.586939106000,-0.172000000000
21.594626994000,-0.169000000000
21.602314882000,-0.150000000000
21.610002770000,-0.150000000000
21.617690658000,-0.160000000000
21.625378546000,-0.145000000000
21.633066434000,-0.125000000000
21.640754322000,-0.132000000000
21.648442210000,-0.140000000000
21.656130098000,-0.130000000000
21.663817986000,-0.130000000000
21.671505874000,-0.140000000000
21.679193762000,-0.137000000000
21.686881650000,-0.128000000000
21.694569538000,-0.125000000000
21.702257426000,-0.125000000000
21.709945314000,-0.120000000000
21.717633202000,-0.118000000000
21.725321090000,-0.118000000000
21.733008978000,-0.115000000000
21.740696866000,-0.120000000000
21.748384754000,-0.130000000000
21.756072642000,-0.130000000000
21.763760530000,-0.123000000000
21.771448418000,-0.103000000000
21.779136306000,-0.093000000000
21.786824194000,-0.096000000000
21.794512082000,-0.088000000000
21.802199970000,-0.073000000000
21.809887858000,-0.081000000000
21.817575746000,-0.098000000000
21.825263634000,-0.105000000000
21.832951522000,-0.108000000000
21.840639410000,-0.108000000000
21.848327298000,-0.096000000000
21.856015186000,-0.088000000000
21.863703074000,-0.096000000000
21.871390962000,-0.103000000000
21.879078850000,-0.108000000000
21.886766738000,-0.160000000000
21.894454648000,-0.258000000000
21.902142187000,-0.231000000000
21.909829726000,0.233000000000
21.917517265000,1.097000000000
21.925204804000,1.841000000000
21.932892343000,1.678000000000
21.940579882000,0.391000000000
21.948267421000,-0.605000000000
21.955954960000,-0.384000000000
21.963642499000,-0.096000000000
21.971330038000,-0.263000000000
21.979017577000,-0.265000000000
21.986705116000,-0.157000000000
21.994392655000,-0.184000000000
22.002080194000,-0.194000000000
22.009767733000,-0.137000000000
22.017455272000,-0.125000000000
22.025142811000,-0.123000000000
22.032830350000,-0.093000000000
22.040517889000,-0.076000000000
22.048205428000,-0.064000000000
22.055892967000,-0.039000000000
22.063580506000,-0.012000000000
22.071268045000,0.012000000000
22.078955584000,0.032000000000
22.086643123000,0.061000000000
22.094330662000,0.098000000000
22.102018201000,0.130000000000
22.109705740000,0.164000000000
22.117393279000,0.201000000000
22.125080818000,0.224000000000
22.132768357000,0.236000000000
22.140455896000,0.236000000000
22.148143435000,0.228000000000
22.155830974000,0.216000000000
22.163518513000,0.189000000000
22.171206052000,0.130000000000
22.178893591000,0.046000000000
22.186581130000,-0.049000000000
22.194268669000,-0.135000000000
22.201956208000,-0.204000000000
22.209643747000,-0.246000000000
22.217331286000,-0.268000000000
22.225018825000,-0.275000000000
22.232706364000,-0.273000000000
22.240393903000,-0.268000000000
22.248081442000,-0.258000000000
22.255768981000,-0.246000000000
22.263456520000,-0.233000000000
22.271144059000,-0.221000000000
22.278831598000,-0.209000000000
22.286519137000,-0.201000000000
22.294206676000,-0.192000000000
22.301894215000,-0.182000000000
22.309581754000,-0.172000000000
22.317269293000,-0.164000000000
22.324956832000,-0.160000000000
22.332644371000,-0.160000000000
22.340331910000,-0.157000000000
22.348019449000,-0.150000000000
22.355706988000,-0.142000000000
22.363394527000,-0.140000000000
22.371082066000,-0.140000000000
22.378769605000,-0.140000000000
22.386457144000,-0.140000000000
22.394144683000,-0.137000000000
22.401832222000,-0.140000000000
22.409519761000,-0.137000000000
22.417207300000,-0.132000000000
22.424894839000,-0.132000000000
22.432582378000,-0.130000000000
22.440269917000,-0.128000000000
22.447957456000,-0.125000000000
22.455645063000,-0.123000000000
22.463332881000,-0.120000000000
22.471020699000,-0.120000000000
22.478708517000,-0.130000000000
22.486396335000,-0.135000000000
22.494084153000,-0.130000000000
22.501771971000,-0.113000000000
22.509459789000,-0.100000000000
22.517147607000,-0.103000000000
22.524835425000,-0.096000000000
22.532523243000,-0.078000000000
22.540211061000,-0.083000000000
22.547898879000,-0.108000000000
22.555586697000,-0.120000000000
22.563274515000,-0.115000000000
22.570962333000,-0.110000000000
22.578650151000,-0.110000000000
22.586337969000,-0.105000000000
22.594025787000,-0.100000000000
22.601713605000,-0.100000000000
22.609401423000,-0.115000000000
22.617089241000,-0.164000000000
22.624777059000,-0.256000000000
22.632464877000,-0.236000000000
22.640152695000,0.206000000000
22.647840513000,1.063000000000
22.655528331000,1.829000000000
22.663216149000,1.705000000000
22.670903967000,0.435000000000
22.678591785000,-0.595000000000
22.686279603000,-0.398000000000
22.693967421000,-0.088000000000
22.701655239000,-0.258000000000
22.709343057000,-0.285000000000
22.717030875000,-0.172000000000
22.724718693000,-0.189000000000
22.732406511000,-0.199000000000
22.740094329000,-0.147000000000
22.747782147000,-0.132000000000
22.755469965000,-0.128000000000
22.763157783000,-0.093000000000
22.770845601000,-0.073000000000
22.778533419000,-0.064000000000
22.786221237000,-0.044000000000
22.793909055000,-0.022000000000
22.801596873000,0.000000000000
22.809284691000,0.027000000000
22.816972509000,0.051000000000
22.824660327000,0.083000000000
22.832348145000,0.123000000000
22.840035963000,0.160000000000
22.847723781000,0.189000000000
22.855411599000,0.219000000000
22.863099417000,0.236000000000
22.870787235000,0.238000000000
22.878475053000,0.231000000000
22.886162871000,0.216000000000
22.893850689000,0.192000000000
22.901538507000,0.140000000000
22.909226325000,0.064000000000
22.916914143000,-0.027000000000
22.924601961000,-0.115000000000
22.932289779000,-0.187000000000
22.939977597000,-0.231000000000
22.947665415000,-0.256000000000
22.955353233000,-0.265000000000
22.963041051000,-0.268000000000
22.970728869000,-0.263000000000
22.978416687000,-0.251000000000
22.986104505000,-0.238000000000
22.993792323000,-0.228000000000
23.001480141000,-0.214000000000
23.009167959000,-0.204000000000
23.016855826000,-0.194000000000
23.024543435000,-0.184000000000
23.032231044000,-0.172000000000
23.039918653000,-0.164000000000
23.047606262000,-0.164000000000
23.055293871000,-0.162000000000
23.062981480000,-0.160000000000
23.070669089000,-0.155000000000
23.078356698000,-0.150000000000
23.086044307000,-0.147000000000
23.093731916000,-0.147000000000
23.101419525000,-0.145000000000
23.109107134000,-0.140000000000
23.116794743000,-0.140000000000
23.124482352000,-0.142000000000
23.132169961000,-0.140000000000
23.139857570000,-0.135000000000
23.147545179000,-0.135000000000
23.155232788000,-0.130000000000
23.162920397000,-0.123000000000
23.170608006000,-0.125000000000
23.178295615000,-0.123000000000
23.185983224000,-0.118000000000
23.193670833000,-0.115000000000
23.201358442000,-0.120000000000
23.209046051000,-0.125000000000
23.216733660000,-0.128000000000
23.224421269000,-0.128000000000
23.232108878000,-0.115000000000
23.239796487000,-0.100000000000
23.247484096000,-0.098000000000
23.255171705000,-0.093000000000
23.262859314000,-0.076000000000
23.270546923000,-0.068000000000
23.278234532000,-0.086000000000
23.285922141000,-0.110000000000
23.293609750000,-0.113000000000
23.301297359000,-0.105000000000
23.308984968000,-0.100000000000
23.316672577000,-0.098000000000
23.324360186000,-0.093000000000
23.332047795000,-0.091000000000
23.339735404000,-0.100000000000
23.347423013000,-0.130000000000
23.355110622000,-0.204000000000
23.362798231000,-0.263000000000
23.370485840000,-0.032000000000
23.378173449000,0.684000000000
23.385861058000,1.563000000000
23.393548667000,1.888000000000
23.401236276000,1.019000000000
23.408923885000,-0.312000000000
23.416611494000,-0.563000000000
23.424299103000,-0.142000000000
23.431986712000,-0.167000000000
23.439674321000,-0.300000000000
23.447361930000,-0.196000000000
23.455049539000,-0.160000000000
23.462737148000,-0.196000000000
23.470424757000,-0.160000000000
23.478112366000,-0.123000000000
23.485799975000,-0.123000000000
23.493487584000,-0.103000000000
23.501175193000,-0.076000000000
23.508862802000,-0.066000000000
23.516550411000,-0.046000000000
23.524238020000,-0.019000000000
23.531925629000,-0.002000000000
23.539613238000,0.019000000000
23.547300847000,0.049000000000
23.554988456000,0.081000000000
23.562676065000,0.110000000000
23.570363674000,0.142000000000
23.578051328000,0.182000000000
23.585738937000,0.214000000000
23.593426546000,0.233000000000
23.601114155000,0.241000000000
23.608801764000,0.241000000000
23.616489373000,0.231000000000
23.624176982000,0.209000000000
23.631864591000,0.169000000000
23.639552200000,0.103000000000
23.647239809000,0.014000000000
23.654927418000,-0.078000000000
23.662615027000,-0.157000000000
23.670302636000,-0.211000000000
23.677990245000,-0.246000000000
23.685677854000,-0.265000000000
23.693365463000,-0.268000000000
23.701053072000,-0.263000000000
23.708740681000,-0.256000000000
23.716428290000,-0.241000000000
23.724115899000,-0.228000000000
23.731803508000,-0.221000000000
23.739491117000,-0.209000000000
23.747178726000,-0.192000000000
23.754866335000,-0.182000000000
23.762553944000,-0.174000000000
23.770241553000,-0.169000000000
23.777929162000,-0.164000000000
23.785616771000,-0.160000000000
23.793304380000,-0.155000000000
23.800991989000,-0.147000000000
23.808679598000,-0.147000000000
23.816367207000,-0.147000000000
23.824054816000,-0.142000000000
23.831742425000,-0.140000000000
23.839430034000,-0.142000000000
23.847117643000,-0.137000000000
23.854805252000,-0.137000000000
23.862492861000,-0.137000000000
23.870180470000,-0.135000000000
23.877868079000,-0.132000000000
23.885555688000,-0.132000000000
23.893243297000,-0.130000000000
23.900930906000,-0.123000000000
23.908618515000,-0.120000000000
23.916306124000,-0.123000000000
23.923993733000,-0.118000000000
23.931681342000,-0.110000000000
23.939368951000,-0.118000000000
23.947056560000,-0.132000000000
23.954744169000,-0.128000000000
23.962431778000,-0.110000000000
23.970119387000,-0.100000000000
23.977806996000,-0.098000000000
23.985494605000,-0.088000000000
23.993182214000,-0.073000000000
24.000869823000,-0.071000000000
24.008557432000,-0.088000000000
24.016245041000,-0.108000000000
24.023932650000,-0.108000000000
24.031620259000,-0.100000000000
24.039307868000,-0.098000000000
24.046995477000,-0.098000000000
24.054683086000,-0.096000000000
24.062370695000,-0.093000000000
24.070058304000,-0.100000000000
24.077745913000,-0.135000000000
24.085433522000,-0.214000000000
24.093121131000,-0.263000000000
24.100808740000,0.004000000000
24.108496349000,0.753000000000
24.116183958000,1.612000000000
24.123871567000,1.858000000000
24.131559176000,0.913000000000
24.139246826000,-0.371000000000
24.146934435000,-0.536000000000
24.154622044000,-0.123000000000
24.162309653000,-0.179000000000
24.169997262000,-0.295000000000
24.177684871000,-0.192000000000
24.185372480000,-0.164000000000
24.193060089000,-0.194000000000
24.200747698000,-0.155000000000
24.208435307000,-0.125000000000
24.216122916000,-0.120000000000
24.223810525000,-0.093000000000
24.231498134000,-0.073000000000
24.239185743000,-0.064000000000
24.246873352000,-0.041000000000
24.254560961000,-0.014000000000
24.262248570000,0.007000000000
24.269936179000,0.034000000000
24.277623788000,0.061000000000
24.285311397000,0.083000000000
24.292999006000,0.113000000000
24.300686615000,0.152000000000
24.308374224000,0.187000000000
24.316061833000,0.221000000000
24.323749442000,0.246000000000
24.331437051000,0.248000000000
24.339124660000,0.243000000000
24.346812269000,0.238000000000
24.354499878000,0.221000000000
24.362187487000,0.174000000000
24.369875096000,0.103000000000
24.377562705000,0.019000000000
24.385250314000,-0.071000000000
24.392937923000,-0.155000000000
24.400625532000,-0.206000000000
24.408313141000,-0.228000000000
24.416000750000,-0.248000000000
24.423688359000,-0.263000000000
24.431375968000,-0.258000000000
24.439063577000,-0.238000000000
24.446751186000,-0.219000000000
24.454438795000,-0.211000000000
24.462126404000,-0.211000000000
24.469814013000,-0.199000000000
24.477501622000,-0.177000000000
24.485189231000,-0.177000000000
24.492876840000,-0.177000000000
24.500564449000,-0.160000000000
24.508252058000,-0.145000000000
24.515939667000,-0.142000000000
24.523627276000,-0.137000000000
24.531314885000,-0.128000000000
24.539002494000,-0.128000000000
24.546690103000,-0.140000000000
24.554377712000,-0.140000000000
24.562065321000,-0.125000000000
24.569752930000,-0.130000000000
24.577440539000,-0.140000000000
24.585128148000,-0.128000000000
24.592815757000,-0.115000000000
24.600503366000,-0.120000000000
24.608190975000,-0.115000000000
24.615878584000,-0.115000000000
24.623566193000,-0.120000000000
24.631253802000,-0.115000000000
24.638941411000,-0.115000000000
24.646629020000,-0.115000000000
24.654316629000,-0.110000000000
24.662004238000,-0.105000000000
24.669691847000,-0.105000000000
24.677379456000,-0.118000000000
24.685067065000,-0.115000000000
24.692754674000,-0.093000000000
24.700442332000,-0.081000000000
24.708130220000,-0.083000000000
24.715818108000,-0.068000000000
24.723505996000,-0.056000000000
24.731193884000,-0.073000000000
24.738881772000,-0.100000000000
24.746569660000,-0.103000000000
24.754257548000,-0.096000000000
24.761945436000,-0.093000000000
24.769633324000,-0.091000000000
24.777321212000,-0.083000000000
24.785009100000,-0.088000000000
24.792696988000,-0.093000000000
24.800384876000,-0.108000000000
24.808072764000,-0.174000000000
24.815760652000,-0.265000000000
24.823448540000,-0.125000000000
24.831136428000,0.514000000000
24.838824316000,1.427000000000
24.846512204000,1.947000000000
24.854200092000,1.317000000000
24.861887980000,-0.093000000000
24.869575868000,-0.615000000000
24.877263756000,-0.194000000000
24.884951644000,-0.118000000000
24.892639532000,-0.285000000000
24.900327420000,-0.206000000000
24.908015308000,-0.145000000000
24.915703196000,-0.187000000000
24.923391084000,-0.152000000000
24.931078972000,-0.100000000000
24.938766860000,-0.108000000000
24.946454748000,-0.100000000000
24.954142636000,-0.066000000000
24.961830524000,-0.046000000000
24.969518412000,-0.034000000000
24.977206300000,-0.012000000000
24.984894188000,0.007000000000
24.992582076000,0.029000000000
25.000269964000,0.061000000000
25.007957852000,0.096000000000
25.015645740000,0.125000000000
25.023333628000,0.162000000000
25.031021516000,0.199000000000
25.038709404000,0.226000000000
25.046397292000,0.246000000000
25.054085180000,0.256000000000
25.061773068000,0.258000000000
25.069460956000,0.251000000000
25.077148844000,0.226000000000
25.084836732000,0.184000000000
25.092524620000,0.125000000000
25.100212508000,0.041000000000
25.107900396000,-0.054000000000
25.115588284000,-0.137000000000
25.123276172000,-0.199000000000
25.130964060000,-0.238000000000
25.138651948000,-0.258000000000
25.146339836000,-0.265000000000
25.154027724000,-0.258000000000
25.161715612000,-0.248000000000
25.169403500000,-0.241000000000
25.177091388000,-0.226000000000
25.184779276000,-0.216000000000
25.192467164000,-0.211000000000
25.200155052000,-0.196000000000
25.207842940000,-0.179000000000
25.215530828000,-0.172000000000
25.223218716000,-0.167000000000
25.230906604000,-0.162000000000
25.238594492000,-0.157000000000
25.246282380000,-0.152000000000
25.253970268000,-0.145000000000
25.261658178000,-0.140000000000
25.269345717000,-0.140000000000
25.277033256000,-0.137000000000
25.284720795000,-0.135000000000
25.292408334000,-0.132000000000
25.300095873000,-0.132000000000
25.307783412000,-0.135000000000
25.315470951000,-0.132000000000
25.323158490000,-0.130000000000
25.330846029000,-0.130000000000
25.338533568000,-0.130000000000
25.346221107000,-0.125000000000
25.353908646000,-0.125000000000
25.361596185000,-0.123000000000
25.369283724000,-0.120000000000
25.376971263000,-0.132000000000
25.384658802000,-0.140000000000
25.392346341000,-0.128000000000
25.400033880000,-0.113000000000
25.407721419000,-0.108000000000
25.415408958000,-0.103000000000
25.423096497000,-0.091000000000
25.430784036000,-0.081000000000
25.438471575000,-0.093000000000
25.446159114000,-0.113000000000
25.453846653000,-0.120000000000
25.461534192000,-0.115000000000
25.469221731000,-0.110000000000
25.476909270000,-0.105000000000
25.484596809000,-0.103000000000
25.492284348000,-0.098000000000
25.499971887000,-0.103000000000
25.507659426000,-0.128000000000
25.515346965000,-0.189000000000
25.523034504000,-0.275000000000
25.530722043000,-0.160000000000
25.538409582000,0.440000000000
25.546097121000,1.341000000000
25.553784660000,1.915000000000
25.561472199000,1.403000000000
25.569159738000,0.004000000000
25.576847277000,-0.647000000000
25.584534816000,-0.253000000000
25.592222355000,-0.115000000000
25.599909894000,-0.302000000000
25.607597433000,-0.243000000000
25.615284972000,-0.160000000000
25.622972511000,-0.201000000000
25.630660050000,-0.184000000000
25.638347589000,-0.132000000000
25.646035128000,-0.128000000000
25.653722667000,-0.118000000000
25.661410206000,-0.088000000000
25.669097745000,-0.073000000000
25.676785284000,-0.061000000000
25.684472823000,-0.036000000000
25.692160362000,-0.012000000000
25.699847901000,0.007000000000
25.707535440000,0.032000000000
25.715222979000,0.064000000000
25.722910518000,0.093000000000
25.730598057000,0.125000000000
25.738285596000,0.160000000000
25.745973135000,0.189000000000
25.753660674000,0.211000000000
25.761348213000,0.224000000000
25.769035752000,0.224000000000
25.776723291000,0.211000000000
25.784410830000,0.192000000000
25.792098369000,0.160000000000
25.799785908000,0.103000000000
25.807473447000,0.022000000000
25.815160986000,-0.071000000000
25.822848593000,-0.150000000000
25.830536411000,-0.206000000000
25.838224229000,-0.241000000000
25.845912047000,-0.258000000000
25.853599865000,-0.263000000000
25.861287683000,-0.258000000000
25.868975501000,-0.251000000000
25.876663319000,-0.243000000000
25.884351137000,-0.231000000000
25.892038955000,-0.216000000000
25.899726773000,-0.206000000000
25.907414591000,-0.196000000000
25.915102409000,-0.189000000000
25.922790227000,-0.182000000000
25.930478045000,-0.172000000000
25.938165863000,-0.164000000000
25.945853681000,-0.157000000000
25.953541499000,-0.152000000000
25.961229317000,-0.150000000000
25.968917135000,-0.147000000000
25.976604953000,-0.145000000000
25.984292771000,-0.145000000000
25.991980589000,-0.140000000000
25.999668407000,-0.137000000000
26.007356225000,-0.137000000000
26.015044043000,-0.137000000000
26.022731861000,-0.135000000000
26.030419679000,-0.130000000000
26.038107497000,-0.130000000000
26.045795315000,-0.130000000000
26.053483133000,-0.125000000000
26.061170951000,-0.125000000000
26.068858769000,-0.120000000000
26.076546587000,-0.118000000000
26.084234405000,-0.123000000000
26.091922223000,-0.128000000000
26.099610041000,-0.132000000000
26.107297859000,-0.132000000000
26.114985677000,-0.118000000000
26.122673495000,-0.103000000000
26.130361313000,-0.100000000000
26.138049131000,-0.096000000000
26.145736949000,-0.083000000000
26.153424767000,-0.073000000000
26.161112585000,-0.086000000000
26.168800403000,-0.110000000000
26.176488221000,-0.115000000000
26.184176039000,-0.108000000000
26.191863857000,-0.105000000000
26.199551675000,-0.100000000000
26.207239493000,-0.096000000000
26.214927311000,-0.093000000000
26.222615129000,-0.100000000000
26.230302947000,-0.130000000000
26.237990765000,-0.209000000000
26.245678583000,-0.270000000000
26.253366401000,-0.044000000000
26.261054219000,0.662000000000
26.268742037000,1.548000000000
26.276429855000,1.900000000000
26.284117673000,1.051000000000
26.291805491000,-0.297000000000
26.299493309000,-0.576000000000
26.307181127000,-0.147000000000
26.314868945000,-0.164000000000
26.322556763000,-0.302000000000
26.330244581000,-0.201000000000
26.337932399000,-0.162000000000
26.345620217000,-0.196000000000
26.353308035000,-0.160000000000
26.360995853000,-0.123000000000
26.368683671000,-0.125000000000
26.376371489000,-0.108000000000
26.384059356000,-0.078000000000
26.391746965000,-0.066000000000
26.399434574000,-0.049000000000
26.407122183000,-0.022000000000
26.414809792000,-0.004000000000
26.422497401000,0.017000000000
26.430185010000,0.044000000000
26.437872619000,0.073000000000
26.445560228000,0.108000000000
26.453247837000,0.145000000000
26.460935446000,0.174000000000
26.468623055000,0.204000000000
26.476310664000,0.228000000000
26.483998273000,0.236000000000
26.491685882000,0.233000000000
26.499373491000,0.221000000000
26.507061100000,0.201000000000
26.514748709000,0.164000000000
26.522436318000,0.098000000000
26.530123927000,0.007000000000
26.537811536000,-0.078000000000
26.545499145000,-0.152000000000
26.553186754000,-0.209000000000
26.560874363000,-0.246000000000
26.568561972000,-0.260000000000
26.576249581000,-0.258000000000
26.583937190000,-0.256000000000
26.591624799000,-0.253000000000
26.599312408000,-0.243000000000
26.607000017000,-0.226000000000
26.614687626000,-0.211000000000
26.622375235000,-0.201000000000
26.630062844000,-0.192000000000
26.637750453000,-0.182000000000
26.645438062000,-0.174000000000
26.653125671000,-0.169000000000
26.660813280000,-0.164000000000
26.668500889000,-0.157000000000
26.676188498000,-0.150000000000
26.683876107000,-0.145000000000
26.691563716000,-0.147000000000
26.699251325000,-0.147000000000
26.706938934000,-0.137000000000
26.714626543000,-0.135000000000
26.722314152000,-0.142000000000
26.730001761000,-0.135000000000
26.737689370000,-0.130000000000
26.745376979000,-0.135000000000
26.753064588000,-0.135000000000
26.760752197000,-0.128000000000
26.768439806000,-0.128000000000
26.776127415000,-0.125000000000
26.783815024000,-0.120000000000
26.791502633000,-0.118000000000
26.799190242000,-0.115000000000
26.806877851000,-0.113000000000
26.814565460000,-0.113000000000
26.822253069000,-0.118000000000
26.829940678000,-0.125000000000
26.837628287000,-0.125000000000
26.845315896000,-0.115000000000
26.853003505000,-0.098000000000
26.860691114000,-0.088000000000
26.868378723000,-0.086000000000
26.876066332000,-0.073000000000
26.883753941000,-0.066000000000
26.891441550000,-0.083000000000
26.899129159000,-0.108000000000
26.906816768000,-0.108000000000
26.914504377000,-0.100000000000
26.922191986000,-0.098000000000
26.929879595000,-0.098000000000
26.937567204000,-0.091000000000
26.945254858000,-0.088000000000
26.952942467000,-0.096000000000
26.960630076000,-0.115000000000
26.968317685000,-0.182000000000
26.976005294000,-0.265000000000
26.983692903000,-0.125000000000
26.991380512000,0.489000000000
26.999068121000,1.371000000000
27.006755730000,1.888000000000
27.014443339000,1.294000000000
27.022130948000,-0.073000000000
27.029818557000,-0.615000000000
27.037506166000,-0.216000000000
27.045193775000,-0.123000000000
27.052881384000,-0.288000000000
27.060568993000,-0.219000000000
27.068256602000,-0.152000000000
27.075944211000,-0.189000000000
27.083631820000,-0.169000000000
27.091319429000,-0.128000000000
27.099007038000,-0.125000000000
27.106694647000,-0.108000000000
27.114382256000,-0.081000000000
27.122069865000,-0.068000000000
27.129757474000,-0.051000000000
27.137445083000,-0.024000000000
27.145132692000,-0.004000000000
27.152820301000,0.014000000000
27.160507910000,0.041000000000
27.168195519000,0.071000000000
27.175883128000,0.100000000000
27.183570737000,0.135000000000
27.191258346000,0.169000000000
27.198945955000,0.201000000000
27.206633564000,0.226000000000
27.214321173000,0.238000000000
27.222008782000,0.238000000000
27.229696391000,0.228000000000
27.237384000000,0.209000000000
27.245071609000,0.177000000000
27.252759218000,0.120000000000
27.260446827000,0.034000000000
27.268134436000,-0.056000000000
27.275822045000,-0.135000000000
27.283509654000,-0.196000000000
27.291197263000,-0.233000000000
27.298884872000,-0.253000000000
27.306572481000,-0.260000000000
27.314260090000,-0.258000000000
27.321947699000,-0.251000000000
27.329635308000,-0.238000000000
27.337322917000,-0.224000000000
27.345010526000,-0.211000000000
27.352698135000,-0.201000000000
27.360385744000,-0.192000000000
27.368073353000,-0.182000000000
27.375760962000,-0.172000000000
27.383448571000,-0.164000000000
27.391136180000,-0.162000000000
27.398823789000,-0.157000000000
27.406511398000,-0.150000000000
27.414199007000,-0.145000000000
27.421886616000,-0.142000000000
27.429574225000,-0.137000000000
27.437261834000,-0.140000000000
27.444949443000,-0.140000000000
27.452637052000,-0.137000000000
27.460324661000,-0.135000000000
27.468012270000,-0.128000000000
27.475699879000,-0.128000000000
27.483387488000,-0.130000000000
27.491075097000,-0.128000000000
27.498762706000,-0.123000000000
27.506450356000,-0.118000000000
27.514137965000,-0.115000000000
27.521825574000,-0.113000000000
27.529513183000,-0.118000000000
27.537200792000,-0.115000000000
27.544888401000,-0.105000000000
27.552576010000,-0.115000000000
27.560263619000,-0.128000000000
27.567951228000,-0.123000000000
27.575638837000,-0.105000000000
27.583326446000,-0.093000000000
27.591014055000,-0.088000000000
27.598701664000,-0.078000000000
27.606389273000,-0.061000000000
27.614076882000,-0.066000000000
27.621764491000,-0.088000000000
27.629452100000,-0.098000000000
27.637139709000,-0.100000000000
27.644827318000,-0.100000000000
27.652514927000,-0.093000000000
27.660202536000,-0.086000000000
27.667890145000,-0.086000000000
27.675577754000,-0.086000000000
27.683265363000,-0.088000000000
27.690952972000,-0.115000000000
27.698640581000,-0.194000000000
27.706328190000,-0.258000000000
27.714015799000,-0.041000000000
27.721703408000,0.662000000000
27.729391017000,1.550000000000
27.737078626000,1.912000000000
27.744766235000,1.073000000000
27.752453844000,-0.283000000000
27.760141453000,-0.568000000000
27.767829062000,-0.137000000000
27.775516671000,-0.150000000000
27.783204280000,-0.280000000000
27.790891889000,-0.179000000000
27.798579498000,-0.150000000000
27.806267107000,-0.187000000000
27.813954716000,-0.140000000000
27.821642325000,-0.098000000000
27.829329934000,-0.100000000000
27.837017543000,-0.088000000000
27.844705152000,-0.064000000000
27.852392761000,-0.046000000000
27.860080370000,-0.029000000000
27.867767979000,0.002000000000
27.875455588000,0.027000000000
27.883143197000,0.032000000000
27.890830806000,0.059000000000
27.898518415000,0.105000000000
27.906206024000,0.140000000000
27.913893633000,0.169000000000
27.921581242000,0.209000000000
27.929268851000,0.233000000000
27.936956460000,0.243000000000
27.944644069000,0.258000000000
27.952331678000,0.265000000000
27.960019287000,0.256000000000
27.967706896000,0.231000000000
27.975394505000,0.192000000000
27.983082114000,0.125000000000
27.990769723000,0.036000000000
27.998457332000,-0.056000000000
28.006144941000,-0.137000000000
28.013832550000,-0.199000000000
28.021520159000,-0.233000000000
28.029207768000,-0.241000000000
28.036895377000,-0.243000000000
28.044582986000,-0.246000000000
28.052270595000,-0.238000000000
28.059958204000,-0.226000000000
28.067645862000,-0.216000000000
28.075333750000,-0.209000000000
28.083021638000,-0.189000000000
28.090709526000,-0.169000000000
28.098397414000,-0.177000000000
28.106085302000,-0.174000000000
28.113773190000,-0.147000000000
28.121461078000,-0.137000000000
28.129148966000,-0.150000000000
28.136836854000,-0.152000000000
28.144524742000,-0.132000000000
28.152212630000,-0.123000000000
28.159900518000,-0.130000000000
28.167588406000,-0.132000000000
28.175276294000,-0.123000000000
28.182964182000,-0.123000000000
28.190652070000,-0.123000000000
28.198339958000,-0.110000000000
28.206027846000,-0.113000000000
28.213715734000,-0.123000000000
28.221403622000,-0.125000000000
28.229091510000,-0.115000000000
28.236779398000,-0.110000000000
28.244467286000,-0.105000000000
28.252155174000,-0.108000000000
28.259843062000,-0.118000000000
28.267530950000,-0.120000000000
28.275218838000,-0.115000000000
28.282906726000,-0.105000000000
28.290594614000,-0.086000000000
28.298282502000,-0.081000000000
28.305970390000,-0.086000000000
28.313658278000,-0.076000000000
28.321346166000,-0.066000000000
28.329034054000,-0.083000000000
28.336721942000,-0.098000000000
28.344409830000,-0.096000000000
28.352097718000,-0.096000000000
28.359785606000,-0.093000000000
28.367473494000,-0.081000000000
28.375161382000,-0.081000000000
28.382849270000,-0.088000000000
28.390537158000,-0.098000000000
28.398225046000,-0.120000000000
28.405912934000,-0.196000000000
28.413600822000,-0.270000000000
28.421288710000,-0.039000000000
28.428976598000,0.706000000000
28.436664486000,1.609000000000
28.444352374000,1.912000000000
28.452040262000,0.992000000000
28.459728150000,-0.352000000000
28.467416038000,-0.551000000000
28.475103926000,-0.113000000000
28.482791814000,-0.167000000000
28.490479702000,-0.290000000000
28.498167590000,-0.172000000000
28.505855478000,-0.140000000000
28.513543366000,-0.177000000000
28.521231254000,-0.142000000000
28.528919142000,-0.105000000000
28.536607030000,-0.096000000000
28.544294918000,-0.078000000000
28.551982806000,-0.059000000000
28.559670694000,-0.044000000000
28.567358582000,-0.024000000000
28.575046470000,-0.002000000000
28.582734358000,0.024000000000
28.590422246000,0.056000000000
28.598110134000,0.086000000000
28.605798022000,0.110000000000
28.613485910000,0.140000000000
28.621173798000,0.174000000000
28.628861708000,0.216000000000
28.636549456000,0.246000000000
28.644237204000,0.248000000000
28.651924952000,0.253000000000
28.659612700000,0.263000000000
28.667300448000,0.248000000000
28.674988196000,0.216000000000
28.682675944000,0.177000000000
28.690363692000,0.105000000000
28.698051440000,0.000000000000
28.705739188000,-0.098000000000
28.713426936000,-0.172000000000
28.721114684000,-0.226000000000
28.728802432000,-0.253000000000
28.736490180000,-0.263000000000
28.744177928000,-0.268000000000
28.751865676000,-0.268000000000
28.759553424000,-0.256000000000
28.767241172000,-0.236000000000
28.774928920000,-0.228000000000
28.782616668000,-0.228000000000
28.790304416000,-0.216000000000
28.797992164000,-0.196000000000
28.805679912000,-0.187000000000
28.813367660000,-0.184000000000
28.821055408000,-0.177000000000
28.828743156000,-0.167000000000
28.836430904000,-0.157000000000
28.844118652000,-0.152000000000
28.851806400000,-0.147000000000
28.859494148000,-0.145000000000
28.867181896000,-0.147000000000
28.874869644000,-0.145000000000
28.882557392000,-0.137000000000
28.890245140000,-0.137000000000
28.897932888000,-0.135000000000
28.905620636000,-0.135000000000
28.913308384000,-0.135000000000
28.920996132000,-0.135000000000
28.928683880000,-0.132000000000
28.936371628000,-0.135000000000
28.944059376000,-0.130000000000
28.951747124000,-0.125000000000
28.959434872000,-0.130000000000
28.967122620000,-0.137000000000
28.974810368000,-0.137000000000
28.982498116000,-0.130000000000
28.990185864000,-0.115000000000
28.997873612000,-0.103000000000
29.005561360000,-0.103000000000
29.013249108000,-0.093000000000
29.020936856000,-0.081000000000
29.028624604000,-0.091000000000
29.036312352000,-0.115000000000
29.044000100000,-0.120000000000
29.051687848000,-0.110000000000
29.059375596000,-0.108000000000
29.067063344000,-0.108000000000
29.074751092000,-0.103000000000
29.082438840000,-0.098000000000
29.090126588000,-0.100000000000
29.097814336000,-0.123000000000
29.105502084000,-0.194000000000
29.113189832000,-0.280000000000
29.120877580000,-0.140000000000
29.128565328000,0.499000000000
29.136253076000,1.413000000000
29.143940824000,1.932000000000
29.151628572000,1.309000000000
29.159316320000,-0.098000000000
29.167004068000,-0.640000000000
29.174691816000,-0.226000000000
29.182379564000,-0.137000000000
29.190067384000,-0.307000000000
29.197755132000,-0.226000000000
29.205442880000,-0.157000000000
29.213130628000,-0.199000000000
29.220818376000,-0.179000000000
29.228506124000,-0.130000000000
29.236193872000,-0.125000000000
29.243881620000,-0.120000000000
29.251569368000,-0.093000000000
29.259257116000,-0.071000000000
29.266944864000,-0.059000000000
29.274632612000,-0.036000000000
29.282320360000,-0.012000000000
29.290008108000,0.009000000000
29.297695856000,0.034000000000
29.305383604000,0.064000000000
29.313071352000,0.096000000000
29.320759100000,0.128000000000
