time,LSB
0.000000000000,1.202000000000
0.007687121000,0.216000000000
0.015374242000,-0.608000000000
0.023061363000,-0.489000000000
0.030748484000,-0.184000000000
0.038435605000,-0.214000000000
0.046122726000,-0.167000000000
0.053809847000,-0.051000000000
0.061496968000,-0.068000000000
0.069184089000,-0.082000000000
0.076871210000,-0.043000000000
0.084558331000,-0.036000000000
0.092245452000,-0.038000000000
0.099932573000,-0.024000000000
0.107619694000,-0.017000000000
0.115306815000,-0.014000000000
0.122993936000,-0.007000000000
0.130681057000,0.000000000000
0.138368178000,0.002000000000
0.146055299000,0.012000000000
0.153742420000,0.021000000000
0.161429541000,0.026000000000
0.169116662000,0.034000000000
0.176803783000,0.041000000000
0.184490904000,0.051000000000
0.192178025000,0.060000000000
0.199865146000,0.072000000000
0.207552267000,0.085000000000
0.215239388000,0.097000000000
0.222926509000,0.111000000000
0.230613630000,0.126000000000
0.238300751000,0.138000000000
0.245987872000,0.148000000000
0.253674993000,0.160000000000
0.261362114000,0.163000000000
0.269049235000,0.165000000000
0.276736356000,0.165000000000
0.284423477000,0.165000000000
0.292110598000,0.153000000000
0.299797719000,0.133000000000
0.307484840000,0.104000000000
0.315171961000,0.063000000000
0.322859082000,0.017000000000
0.330546203000,-0.029000000000
0.338233324000,-0.065000000000
0.345920445000,-0.094000000000
0.353607566000,-0.114000000000
0.361294751000,-0.124000000000
0.368981872000,-0.128000000000
0.376668993000,-0.128000000000
0.384356114000,-0.126000000000
0.392043235000,-0.124000000000
0.399730356000,-0.124000000000
0.407417477000,-0.119000000000
0.415104598000,-0.114000000000
0.422791719000,-0.111000000000
0.430478840000,-0.109000000000
0.438165961000,-0.104000000000
0.445853082000,-0.104000000000
0.453540203000,-0.104000000000
0.461227324000,-0.102000000000
0.468914445000,-0.102000000000
0.476601566000,-0.102000000000
0.484288687000,-0.102000000000
0.491975808000,-0.104000000000
0.499662929000,-0.107000000000
0.507350050000,-0.107000000000
0.515037171000,-0.104000000000
0.522724292000,-0.104000000000
0.530411413000,-0.104000000000
0.538098534000,-0.102000000000
0.545785655000,-0.099000000000
0.553472776000,-0.099000000000
0.561159897000,-0.099000000000
0.568847018000,-0.097000000000
0.576534139000,-0.094000000000
0.584221260000,-0.092000000000
0.591908381000,-0.090000000000
0.599595502000,-0.090000000000
0.607282623000,-0.090000000000
0.614969744000,-0.087000000000
0.622656865000,-0.080000000000
0.630343986000,-0.080000000000
0.638031107000,-0.080000000000
0.645718228000,-0.077000000000
0.653405349000,-0.072000000000
0.661092470000,-0.070000000000
0.668779591000,-0.070000000000
0.676466712000,-0.065000000000
0.684153833000,-0.065000000000
0.691840954000,-0.065000000000
0.699528075000,-0.063000000000
0.707215196000,-0.063000000000
0.714902317000,-0.063000000000
0.722589438000,-0.058000000000
0.730276559000,-0.058000000000
0.737963680000,-0.060000000000
0.745650801000,-0.058000000000
0.753337922000,-0.055000000000
0.761025043000,-0.063000000000
0.768712164000,-0.070000000000
0.776399285000,-0.070000000000
0.784086406000,-0.065000000000
0.791773527000,-0.058000000000
0.799460648000,-0.046000000000
0.807147769000,-0.034000000000
0.814834890000,-0.021000000000
0.822522011000,-0.012000000000
0.830209132000,-0.026000000000
0.837896253000,-0.053000000000
0.845583374000,-0.058000000000
0.853270495000,-0.053000000000
0.860957616000,-0.055000000000
0.868644737000,-0.055000000000
0.876331858000,-0.053000000000
0.884018979000,-0.055000000000
0.891706100000,-0.087000000000
0.899393221000,-0.109000000000
0.907080342000,0.119000000000
0.914767463000,0.771000000000
0.922454652000,1.306000000000
0.930141355000,0.922000000000
0.937828058000,-0.165000000000
0.945514761000,-0.717000000000
0.953201464000,-0.420000000000
0.960888167000,-0.199000000000
0.968574870000,-0.236000000000
0.976261573000,-0.133000000000
0.983948276000,-0.046000000000
0.991634979000,-0.082000000000
0.999321682000,-0.077000000000
1.007008385000,-0.038000000000
1.014695088000,-0.038000000000
1.022381791000,-0.041000000000
1.030068494000,-0.024000000000
1.037755197000,-0.019000000000
1.045441900000,-0.019000000000
1.053128603000,-0.009000000000
1.060815306000,-0.004000000000
1.068502009000,-0.002000000000
1.076188712000,0.007000000000
1.083875415000,0.014000000000
1.091562118000,0.024000000000
1.099248821000,0.036000000000
1.106935524000,0.043000000000
1.114622227000,0.051000000000
1.122308930000,0.060000000000
1.129995633000,0.075000000000
1.137682336000,0.085000000000
1.145369039000,0.102000000000
1.153055742000,0.116000000000
1.160742445000,0.133000000000
1.168429148000,0.148000000000
1.176115851000,0.160000000000
1.183802554000,0.167000000000
1.191489257000,0.170000000000
1.199175960000,0.165000000000
1.206862663000,0.160000000000
1.214549366000,0.158000000000
1.222236069000,0.138000000000
1.229922772000,0.102000000000
1.237609475000,0.058000000000
1.245296178000,0.007000000000
1.252982881000,-0.043000000000
1.260669584000,-0.090000000000
1.268356287000,-0.124000000000
1.276042990000,-0.148000000000
1.283729693000,-0.163000000000
1.291416396000,-0.163000000000
1.299103099000,-0.158000000000
1.306789802000,-0.155000000000
1.314476505000,-0.155000000000
1.322163208000,-0.148000000000
1.329849911000,-0.138000000000
1.337536614000,-0.133000000000
1.345223317000,-0.131000000000
1.352910020000,-0.126000000000
1.360596723000,-0.121000000000
1.368283426000,-0.119000000000
1.375970129000,-0.116000000000
1.383656832000,-0.119000000000
1.391343535000,-0.121000000000
1.399030238000,-0.121000000000
1.406716941000,-0.121000000000
1.414403644000,-0.121000000000
1.422090347000,-0.121000000000
1.429777050000,-0.116000000000
1.437463753000,-0.111000000000
1.445150456000,-0.114000000000
1.452837159000,-0.116000000000
1.460523862000,-0.116000000000
1.468210565000,-0.114000000000
1.475897268000,-0.114000000000
1.483584031000,-0.111000000000
1.491271152000,-0.107000000000
1.498958273000,-0.102000000000
1.506645394000,-0.104000000000
1.514332515000,-0.104000000000
1.522019636000,-0.099000000000
1.529706757000,-0.097000000000
1.537393878000,-0.094000000000
1.545080999000,-0.094000000000
1.552768120000,-0.094000000000
1.560455241000,-0.090000000000
1.568142362000,-0.090000000000
1.575829483000,-0.087000000000
1.583516604000,-0.085000000000
1.591203725000,-0.082000000000
1.598890846000,-0.082000000000
1.606577967000,-0.077000000000
1.614265088000,-0.077000000000
1.621952209000,-0.077000000000
1.629639330000,-0.077000000000
1.637326451000,-0.075000000000
1.645013572000,-0.072000000000
1.652700693000,-0.068000000000
1.660387814000,-0.068000000000
1.668074935000,-0.068000000000
1.675762056000,-0.070000000000
1.683449177000,-0.072000000000
1.691136298000,-0.072000000000
1.698823419000,-0.072000000000
1.706510540000,-0.075000000000
1.714197661000,-0.070000000000
1.721884782000,-0.055000000000
1.729571903000,-0.043000000000
1.737259024000,-0.026000000000
1.744946145000,-0.014000000000
1.752633266000,-0.031000000000
1.760320387000,-0.058000000000
1.768007508000,-0.060000000000
1.775694629000,-0.055000000000
1.783381750000,-0.060000000000
1.791068871000,-0.058000000000
1.798755992000,-0.051000000000
1.806443113000,-0.058000000000
1.814130234000,-0.082000000000
1.821817355000,-0.085000000000
1.829504476000,0.158000000000
1.837191597000,0.800000000000
1.844878718000,1.275000000000
1.852565839000,0.781000000000
1.860252960000,-0.321000000000
1.867940081000,-0.771000000000
1.875627202000,-0.433000000000
1.883314323000,-0.238000000000
1.891001444000,-0.260000000000
1.898688565000,-0.124000000000
1.906375686000,-0.031000000000
1.914062807000,-0.068000000000
1.921749928000,-0.058000000000
1.929437049000,-0.021000000000
1.937124170000,-0.026000000000
1.944811291000,-0.024000000000
1.952498412000,-0.004000000000
1.960185533000,-0.002000000000
1.967872654000,0.000000000000
1.975559775000,0.009000000000
1.983246896000,0.021000000000
1.990934017000,0.029000000000
1.998621138000,0.034000000000
2.006308259000,0.041000000000
2.013995380000,0.051000000000
2.021682501000,0.058000000000
2.029369622000,0.068000000000
2.037056743000,0.077000000000
2.044743928000,0.090000000000
2.052430910000,0.104000000000
2.060117892000,0.116000000000
2.067804874000,0.131000000000
2.075491856000,0.148000000000
2.083178838000,0.163000000000
2.090865820000,0.175000000000
2.098552802000,0.184000000000
2.106239784000,0.192000000000
2.113926766000,0.194000000000
2.121613748000,0.194000000000
2.129300730000,0.192000000000
2.136987712000,0.182000000000
2.144674694000,0.163000000000
2.152361676000,0.124000000000
2.160048658000,0.068000000000
2.167735640000,0.012000000000
2.175422622000,-0.046000000000
2.183109604000,-0.097000000000
2.190796586000,-0.133000000000
2.198483568000,-0.155000000000
2.206170550000,-0.167000000000
2.213857532000,-0.172000000000
2.221544514000,-0.170000000000
2.229231496000,-0.165000000000
2.236918478000,-0.155000000000
2.244605460000,-0.143000000000
2.252292442000,-0.136000000000
2.259979424000,-0.128000000000
2.267666406000,-0.119000000000
2.275353388000,-0.114000000000
2.283040370000,-0.111000000000
2.290727352000,-0.107000000000
2.298414334000,-0.104000000000
2.306101316000,-0.107000000000
2.313788298000,-0.109000000000
2.321475280000,-0.109000000000
2.329162262000,-0.111000000000
2.336849244000,-0.114000000000
2.344536226000,-0.114000000000
2.352223208000,-0.114000000000
2.359910190000,-0.114000000000
2.367597172000,-0.114000000000
2.375284154000,-0.111000000000
2.382971136000,-0.109000000000
2.390658118000,-0.107000000000
2.398345100000,-0.107000000000
2.406032082000,-0.104000000000
2.413719064000,-0.102000000000
2.421406046000,-0.097000000000
2.429093028000,-0.094000000000
2.436780010000,-0.094000000000
2.444466992000,-0.092000000000
2.452153974000,-0.090000000000
2.459840956000,-0.087000000000
2.467527938000,-0.085000000000
2.475214920000,-0.082000000000
2.482901902000,-0.077000000000
2.490588884000,-0.075000000000
2.498275866000,-0.072000000000
2.505962848000,-0.070000000000
2.513649830000,-0.070000000000
2.521336812000,-0.070000000000
2.529023794000,-0.068000000000
2.536710776000,-0.065000000000
2.544397758000,-0.063000000000
2.552084740000,-0.060000000000
2.559771722000,-0.058000000000
2.567458704000,-0.058000000000
2.575145686000,-0.055000000000
2.582832668000,-0.055000000000
2.590519650000,-0.055000000000
2.598206632000,-0.055000000000
2.605893655000,-0.055000000000
2.613580498000,-0.055000000000
2.621267341000,-0.063000000000
2.628954184000,-0.070000000000
2.636641027000,-0.068000000000
2.644327870000,-0.060000000000
2.652014713000,-0.053000000000
2.659701556000,-0.041000000000
2.667388399000,-0.026000000000
2.675075242000,-0.009000000000
2.682762085000,-0.012000000000
2.690448928000,-0.038000000000
2.698135771000,-0.053000000000
2.705822614000,-0.051000000000
2.713509457000,-0.051000000000
2.721196300000,-0.051000000000
2.728883143000,-0.046000000000
2.736569986000,-0.046000000000
2.744256829000,-0.053000000000
2.751943672000,-0.094000000000
2.759630515000,-0.085000000000
2.767317358000,0.277000000000
2.775004201000,0.987000000000
2.782691044000,1.301000000000
2.790377887000,0.596000000000
2.798064730000,-0.452000000000
2.805751573000,-0.666000000000
2.813438416000,-0.289000000000
2.821125259000,-0.194000000000
2.828812102000,-0.211000000000
2.836498945000,-0.080000000000
2.844185788000,-0.043000000000
2.851872631000,-0.082000000000
2.859559474000,-0.055000000000
2.867246317000,-0.026000000000
2.874933160000,-0.038000000000
2.882620003000,-0.029000000000
2.890306846000,-0.012000000000
2.897993689000,-0.012000000000
2.905680532000,-0.007000000000
2.913367375000,0.002000000000
2.921054218000,0.007000000000
2.928741061000,0.009000000000
2.936427904000,0.019000000000
2.944114747000,0.029000000000
2.951801590000,0.036000000000
2.959488433000,0.043000000000
2.967175276000,0.053000000000
2.974862119000,0.063000000000
2.982548962000,0.075000000000
2.990235805000,0.087000000000
2.997922648000,0.099000000000
3.005609491000,0.111000000000
3.013296334000,0.126000000000
3.020983177000,0.143000000000
3.028670020000,0.155000000000
3.036356863000,0.165000000000
3.044043706000,0.170000000000
3.051730549000,0.172000000000
3.059417392000,0.172000000000
3.067104235000,0.170000000000
3.074791078000,0.160000000000
3.082477921000,0.138000000000
3.090164764000,0.102000000000
3.097851607000,0.058000000000
3.105538450000,0.007000000000
3.113225293000,-0.041000000000
3.120912136000,-0.082000000000
3.128598979000,-0.109000000000
3.136285822000,-0.128000000000
3.143972665000,-0.138000000000
3.151659508000,-0.143000000000
3.159346351000,-0.143000000000
3.167033204000,-0.138000000000
3.174720325000,-0.133000000000
3.182407446000,-0.126000000000
3.190094567000,-0.124000000000
3.197781688000,-0.119000000000
3.205468809000,-0.114000000000
3.213155930000,-0.111000000000
3.220843051000,-0.109000000000
3.228530172000,-0.107000000000
3.236217293000,-0.104000000000
3.243904414000,-0.102000000000
3.251591535000,-0.104000000000
3.259278656000,-0.104000000000
3.266965777000,-0.104000000000
3.274652898000,-0.104000000000
3.282340019000,-0.107000000000
3.290027140000,-0.107000000000
3.297714261000,-0.104000000000
3.305401382000,-0.102000000000
3.313088503000,-0.102000000000
3.320775624000,-0.102000000000
3.328462745000,-0.102000000000
3.336149866000,-0.099000000000
3.343836987000,-0.097000000000
3.351524108000,-0.094000000000
3.359211229000,-0.094000000000
3.366898350000,-0.092000000000
3.374585471000,-0.090000000000
3.382272592000,-0.090000000000
3.389959713000,-0.087000000000
3.397646834000,-0.082000000000
3.405333955000,-0.080000000000
3.413021076000,-0.077000000000
3.420708197000,-0.075000000000
3.428395318000,-0.075000000000
3.436082439000,-0.072000000000
3.443769560000,-0.070000000000
3.451456681000,-0.068000000000
3.459143802000,-0.065000000000
3.466830923000,-0.065000000000
3.474518044000,-0.063000000000
3.482205165000,-0.060000000000
3.489892286000,-0.060000000000
3.497579407000,-0.058000000000
3.505266528000,-0.055000000000
3.512953649000,-0.055000000000
3.520640770000,-0.055000000000
3.528327891000,-0.053000000000
3.536015012000,-0.051000000000
3.543702133000,-0.051000000000
3.551389254000,-0.051000000000
3.559076375000,-0.048000000000
3.566763496000,-0.048000000000
3.574450617000,-0.048000000000
3.582137738000,-0.046000000000
3.589824859000,-0.048000000000
3.597511980000,-0.046000000000
3.605199101000,-0.043000000000
3.612886222000,-0.046000000000
3.620573343000,-0.046000000000
3.628260464000,-0.043000000000
3.635947585000,-0.043000000000
3.643634706000,-0.043000000000
3.651321827000,-0.041000000000
3.659008948000,-0.041000000000
3.666696069000,-0.043000000000
3.674383190000,-0.041000000000
3.682070311000,-0.038000000000
3.689757432000,-0.038000000000
3.697444553000,-0.038000000000
3.705131674000,-0.046000000000
3.712818795000,-0.053000000000
3.720505916000,-0.053000000000
3.728193101000,-0.053000000000
3.735880222000,-0.046000000000
3.743567343000,-0.031000000000
3.751254464000,-0.019000000000
3.758941585000,-0.007000000000
3.766628706000,0.002000000000
3.774315827000,-0.012000000000
3.782002948000,-0.038000000000
3.789690069000,-0.041000000000
3.797377190000,-0.038000000000
3.805064311000,-0.041000000000
3.812751432000,-0.038000000000
3.820438553000,-0.034000000000
3.828125674000,-0.041000000000
3.835812795000,-0.075000000000
3.843499916000,-0.111000000000
3.851187037000,0.087000000000
3.858874158000,0.722000000000
3.866561279000,1.316000000000
3.874248400000,1.065000000000
3.881935521000,0.026000000000
3.889622642000,-0.635000000000
3.897309763000,-0.408000000000
3.904996884000,-0.167000000000
3.912684005000,-0.216000000000
3.920371126000,-0.138000000000
3.928058247000,-0.046000000000
3.935745368000,-0.082000000000
3.943432489000,-0.082000000000
3.951119610000,-0.038000000000
3.958806731000,-0.038000000000
3.966493852000,-0.043000000000
3.974180973000,-0.024000000000
3.981868094000,-0.017000000000
3.989555215000,-0.014000000000
3.997242336000,-0.007000000000
4.004929457000,0.002000000000
4.012616578000,0.007000000000
4.020303699000,0.017000000000
4.027990820000,0.024000000000
4.035677941000,0.031000000000
4.043365062000,0.038000000000
4.051052183000,0.048000000000
4.058739304000,0.058000000000
4.066426425000,0.068000000000
4.074113546000,0.077000000000
4.081800667000,0.090000000000
4.089487788000,0.102000000000
4.097174909000,0.116000000000
4.104862030000,0.131000000000
4.112549151000,0.143000000000
4.120236272000,0.150000000000
4.127923393000,0.158000000000
4.135610514000,0.163000000000
4.143297635000,0.165000000000
4.150984756000,0.163000000000
4.158671877000,0.155000000000
4.166358998000,0.148000000000
4.174046119000,0.131000000000
4.181733240000,0.099000000000
4.189420361000,0.058000000000
4.197107482000,0.014000000000
4.204794603000,-0.026000000000
4.212481724000,-0.063000000000
4.220168845000,-0.092000000000
4.227855966000,-0.109000000000
4.235543087000,-0.121000000000
4.243230208000,-0.128000000000
4.250917329000,-0.128000000000
4.258604450000,-0.126000000000
4.266291571000,-0.121000000000
4.273978692000,-0.119000000000
4.281665813000,-0.114000000000
4.289353002000,-0.109000000000
4.297039845000,-0.107000000000
4.304726688000,-0.104000000000
4.312413531000,-0.102000000000
4.320100374000,-0.099000000000
4.327787217000,-0.099000000000
4.335474060000,-0.099000000000
4.343160903000,-0.099000000000
4.350847746000,-0.097000000000
4.358534589000,-0.099000000000
4.366221432000,-0.102000000000
4.373908275000,-0.102000000000
4.381595118000,-0.102000000000
4.389281961000,-0.102000000000
4.396968804000,-0.102000000000
4.404655647000,-0.099000000000
4.412342490000,-0.099000000000
4.420029333000,-0.097000000000
4.427716176000,-0.094000000000
4.435403019000,-0.092000000000
4.443089862000,-0.092000000000
4.450776705000,-0.092000000000
4.458463548000,-0.090000000000
4.466150391000,-0.087000000000
4.473837234000,-0.085000000000
4.481524077000,-0.085000000000
4.489210920000,-0.085000000000
4.496897763000,-0.080000000000
4.504584606000,-0.077000000000
4.512271449000,-0.075000000000
4.519958292000,-0.072000000000
4.527645135000,-0.072000000000
4.535331978000,-0.070000000000
4.543018821000,-0.068000000000
4.550705664000,-0.065000000000
4.558392507000,-0.063000000000
4.566079350000,-0.060000000000
4.573766193000,-0.060000000000
4.581453036000,-0.060000000000
4.589139879000,-0.058000000000
4.596826722000,-0.058000000000
4.604513565000,-0.055000000000
4.612200408000,-0.053000000000
4.619887251000,-0.053000000000
4.627574094000,-0.053000000000
4.635260937000,-0.051000000000
4.642947780000,-0.051000000000
4.650634623000,-0.051000000000
4.658321466000,-0.048000000000
4.666008309000,-0.051000000000
4.673695152000,-0.051000000000
4.681381995000,-0.046000000000
4.689068838000,-0.046000000000
4.696755681000,-0.048000000000
4.704442524000,-0.046000000000
4.712129367000,-0.043000000000
4.719816210000,-0.043000000000
4.727503053000,-0.043000000000
4.735189896000,-0.041000000000
4.742876739000,-0.041000000000
4.750563582000,-0.043000000000
4.758250425000,-0.041000000000
4.765937268000,-0.038000000000
4.773624111000,-0.038000000000
4.781310954000,-0.041000000000
4.788997797000,-0.041000000000
4.796684640000,-0.038000000000
4.804371483000,-0.036000000000
4.812058326000,-0.038000000000
4.819745169000,-0.043000000000
4.827432012000,-0.051000000000
4.835118855000,-0.053000000000
4.842805698000,-0.051000000000
4.850492555000,-0.046000000000
4.858179537000,-0.036000000000
4.865866519000,-0.021000000000
4.873553501000,-0.012000000000
4.881240483000,0.002000000000
4.888927465000,-0.004000000000
4.896614447000,-0.031000000000
4.904301429000,-0.041000000000
4.911988411000,-0.036000000000
4.919675393000,-0.038000000000
4.927362375000,-0.041000000000
4.935049357000,-0.036000000000
4.942736339000,-0.038000000000
4.950423321000,-0.058000000000
4.958110303000,-0.102000000000
4.965797285000,-0.014000000000
4.973484267000,0.486000000000
4.981171249000,1.180000000000
4.988858231000,1.240000000000
4.996545213000,0.352000000000
5.004232195000,-0.547000000000
5.011919177000,-0.540000000000
5.019606159000,-0.211000000000
5.027293141000,-0.204000000000
5.034980123000,-0.184000000000
5.042667105000,-0.065000000000
5.050354087000,-0.068000000000
5.058041069000,-0.092000000000
5.065728051000,-0.053000000000
5.073415033000,-0.038000000000
5.081102015000,-0.046000000000
5.088788997000,-0.034000000000
5.096475979000,-0.024000000000
5.104162961000,-0.021000000000
5.111849943000,-0.014000000000
5.119536925000,-0.004000000000
5.127223907000,-0.002000000000
5.134910889000,0.004000000000
5.142597871000,0.017000000000
5.150284853000,0.024000000000
5.157971835000,0.031000000000
5.165658817000,0.038000000000
5.173345799000,0.048000000000
5.181032781000,0.060000000000
5.188719763000,0.070000000000
5.196406745000,0.080000000000
5.204093727000,0.092000000000
5.211780709000,0.107000000000
5.219467691000,0.121000000000
5.227154673000,0.133000000000
5.234841655000,0.143000000000
5.242528637000,0.150000000000
5.250215619000,0.155000000000
5.257902601000,0.155000000000
5.265589583000,0.153000000000
5.273276565000,0.150000000000
5.280963547000,0.143000000000
5.288650529000,0.126000000000
5.296337511000,0.097000000000
5.304024493000,0.058000000000
5.311711475000,0.012000000000
5.319398457000,-0.034000000000
5.327085439000,-0.077000000000
5.334772421000,-0.107000000000
5.342459403000,-0.128000000000
5.350146385000,-0.143000000000
5.357833367000,-0.148000000000
5.365520349000,-0.148000000000
5.373207331000,-0.143000000000
5.380894313000,-0.138000000000
5.388581295000,-0.136000000000
5.396268277000,-0.131000000000
5.403955259000,-0.126000000000
5.411642278000,-0.121000000000
5.419329399000,-0.116000000000
5.427016520000,-0.111000000000
5.434703641000,-0.111000000000
5.442390762000,-0.109000000000
5.450077883000,-0.107000000000
5.457765004000,-0.109000000000
5.465452125000,-0.109000000000
5.473139246000,-0.109000000000
5.480826367000,-0.109000000000
5.488513488000,-0.111000000000
5.496200609000,-0.111000000000
5.503887730000,-0.111000000000
5.511574851000,-0.111000000000
5.519261972000,-0.109000000000
5.526949093000,-0.109000000000
5.534636214000,-0.109000000000
5.542323335000,-0.107000000000
5.550010456000,-0.107000000000
5.557697577000,-0.107000000000
5.565384698000,-0.104000000000
5.573071819000,-0.099000000000
5.580758940000,-0.099000000000
5.588446061000,-0.097000000000
5.596133182000,-0.092000000000
5.603820303000,-0.092000000000
5.611507424000,-0.092000000000
5.619194545000,-0.087000000000
5.626881666000,-0.082000000000
5.634568787000,-0.082000000000
5.642255908000,-0.080000000000
5.649943029000,-0.075000000000
5.657630150000,-0.072000000000
5.665317271000,-0.072000000000
5.673004392000,-0.072000000000
5.680691513000,-0.070000000000
5.688378634000,-0.068000000000
5.696065755000,-0.068000000000
5.703752876000,-0.068000000000
5.711439997000,-0.068000000000
5.719127118000,-0.068000000000
5.726814239000,-0.063000000000
5.734501360000,-0.063000000000
5.742188481000,-0.063000000000
5.749875602000,-0.063000000000
5.757562723000,-0.060000000000
5.765249844000,-0.058000000000
5.772936965000,-0.055000000000
5.780624086000,-0.055000000000
5.788311207000,-0.053000000000
5.795998328000,-0.053000000000
5.803685449000,-0.051000000000
5.811372570000,-0.051000000000
5.819059691000,-0.051000000000
5.826746812000,-0.053000000000
5.834433933000,-0.051000000000
5.842121054000,-0.046000000000
5.849808175000,-0.048000000000
5.857495296000,-0.051000000000
5.865182417000,-0.048000000000
5.872869538000,-0.048000000000
5.880556659000,-0.055000000000
5.888243780000,-0.060000000000
5.895930901000,-0.060000000000
5.903618022000,-0.055000000000
5.911305143000,-0.041000000000
5.918992264000,-0.026000000000
5.926679385000,-0.017000000000
5.934366506000,-0.007000000000
5.942053627000,-0.014000000000
5.949740748000,-0.036000000000
5.957427869000,-0.046000000000
5.965114990000,-0.043000000000
5.972802175000,-0.046000000000
5.980489296000,-0.046000000000
5.988176417000,-0.041000000000
5.995863538000,-0.041000000000
6.003550659000,-0.065000000000
6.011237780000,-0.107000000000
6.018924901000,0.012000000000
6.026612022000,0.557000000000
6.034299143000,1.221000000000
6.041986264000,1.180000000000
6.049673385000,0.223000000000
6.057360506000,-0.613000000000
6.065047627000,-0.528000000000
6.072734748000,-0.214000000000
6.080421869000,-0.221000000000
6.088108990000,-0.175000000000
6.095796111000,-0.058000000000
6.103483232000,-0.075000000000
6.111170353000,-0.092000000000
6.118857474000,-0.048000000000
6.126544595000,-0.038000000000
6.134231716000,-0.046000000000
6.141918837000,-0.031000000000
6.149605958000,-0.021000000000
6.157293079000,-0.019000000000
6.164980200000,-0.014000000000
6.172667321000,-0.004000000000
6.180354442000,0.002000000000
6.188041563000,0.009000000000
6.195728684000,0.017000000000
6.203415805000,0.024000000000
6.211102926000,0.031000000000
6.218790047000,0.043000000000
6.226477168000,0.053000000000
6.234164289000,0.063000000000
6.241851410000,0.075000000000
6.249538531000,0.087000000000
6.257225652000,0.099000000000
6.264912773000,0.114000000000
6.272599894000,0.128000000000
6.280287015000,0.138000000000
6.287974136000,0.150000000000
6.295661257000,0.160000000000
6.303348378000,0.163000000000
6.311035499000,0.163000000000
6.318722620000,0.163000000000
6.326409741000,0.160000000000
6.334096862000,0.148000000000
6.341783983000,0.121000000000
6.349471104000,0.085000000000
6.357158225000,0.041000000000
6.364845346000,-0.007000000000
6.372532467000,-0.055000000000
6.380219588000,-0.097000000000
6.387906709000,-0.128000000000
6.395593830000,-0.145000000000
6.403280951000,-0.153000000000
6.410968072000,-0.158000000000
6.418655193000,-0.155000000000
6.426342314000,-0.153000000000
6.434029435000,-0.148000000000
6.441716556000,-0.141000000000
6.449403677000,-0.131000000000
6.457090798000,-0.124000000000
6.464777919000,-0.119000000000
6.472465040000,-0.116000000000
6.480152161000,-0.114000000000
6.487839282000,-0.109000000000
6.495526403000,-0.107000000000
6.503213524000,-0.111000000000
6.510900645000,-0.111000000000
6.518587766000,-0.109000000000
6.526274887000,-0.107000000000
6.533962072000,-0.114000000000
6.541648775000,-0.116000000000
6.549335478000,-0.116000000000
6.557022181000,-0.116000000000
6.564708884000,-0.114000000000
6.572395587000,-0.111000000000
6.580082290000,-0.111000000000
6.587768993000,-0.109000000000
6.595455696000,-0.107000000000
6.603142399000,-0.107000000000
6.610829102000,-0.107000000000
6.618515805000,-0.102000000000
6.626202508000,-0.097000000000
6.633889211000,-0.094000000000
6.641575914000,-0.092000000000
6.649262617000,-0.092000000000
6.656949320000,-0.094000000000
6.664636023000,-0.092000000000
6.672322726000,-0.085000000000
6.680009429000,-0.080000000000
6.687696132000,-0.082000000000
6.695382835000,-0.082000000000
6.703069538000,-0.080000000000
6.710756241000,-0.075000000000
6.718442944000,-0.075000000000
6.726129647000,-0.075000000000
6.733816350000,-0.072000000000
6.741503053000,-0.068000000000
6.749189756000,-0.068000000000
6.756876459000,-0.070000000000
6.764563162000,-0.068000000000
6.772249865000,-0.068000000000
6.779936568000,-0.065000000000
6.787623271000,-0.058000000000
6.795309974000,-0.055000000000
6.802996677000,-0.055000000000
6.810683380000,-0.055000000000
6.818370083000,-0.058000000000
6.826056786000,-0.058000000000
6.833743489000,-0.058000000000
6.841430192000,-0.058000000000
6.849116895000,-0.053000000000
6.856803598000,-0.051000000000
6.864490301000,-0.053000000000
6.872177004000,-0.055000000000
6.879863707000,-0.058000000000
6.887550410000,-0.063000000000
6.895237113000,-0.060000000000
6.902923816000,-0.058000000000
6.910610519000,-0.051000000000
6.918297222000,-0.036000000000
6.925983925000,-0.026000000000
6.933670628000,-0.014000000000
6.941357331000,-0.009000000000
6.949044034000,-0.026000000000
6.956730737000,-0.046000000000
6.964417440000,-0.046000000000
6.972104143000,-0.043000000000
6.979790846000,-0.048000000000
6.987477549000,-0.046000000000
6.995164252000,-0.043000000000
7.002850955000,-0.058000000000
7.010537658000,-0.085000000000
7.018224361000,-0.034000000000
7.025911064000,0.362000000000
7.033597767000,1.056000000000
7.041284470000,1.277000000000
7.048971173000,0.479000000000
7.056657876000,-0.532000000000
7.064344579000,-0.666000000000
7.072031282000,-0.309000000000
7.079717985000,-0.243000000000
7.087404688000,-0.231000000000
7.095091451000,-0.080000000000
7.102778921000,-0.046000000000
7.110466391000,-0.082000000000
7.118153861000,-0.051000000000
7.125841331000,-0.024000000000
7.133528801000,-0.031000000000
7.141216271000,-0.024000000000
7.148903741000,-0.012000000000
7.156591211000,-0.009000000000
7.164278681000,-0.002000000000
7.171966151000,0.009000000000
7.179653621000,0.014000000000
7.187341091000,0.021000000000
7.195028561000,0.029000000000
7.202716031000,0.041000000000
7.210403501000,0.053000000000
7.218090971000,0.063000000000
7.225778441000,0.070000000000
7.233465911000,0.080000000000
7.241153381000,0.090000000000
7.248840851000,0.104000000000
7.256528321000,0.121000000000
7.264215791000,0.138000000000
7.271903261000,0.155000000000
7.279590731000,0.172000000000
7.287278201000,0.184000000000
7.294965671000,0.197000000000
7.302653141000,0.201000000000
7.310340611000,0.204000000000
7.318028081000,0.201000000000
7.325715551000,0.197000000000
7.333403021000,0.187000000000
7.341090491000,0.165000000000
7.348777961000,0.119000000000
7.356465431000,0.060000000000
7.364152901000,0.000000000000
7.371840371000,-0.058000000000
7.379527841000,-0.107000000000
7.387215311000,-0.143000000000
7.394902781000,-0.167000000000
7.402590251000,-0.177000000000
7.410277721000,-0.182000000000
7.417965191000,-0.177000000000
7.425652661000,-0.167000000000
7.433340131000,-0.160000000000
7.441027601000,-0.153000000000
7.448715071000,-0.141000000000
7.456402541000,-0.133000000000
7.464090011000,-0.126000000000
7.471777481000,-0.119000000000
7.479464951000,-0.114000000000
7.487152421000,-0.111000000000
7.494839891000,-0.111000000000
7.502527361000,-0.111000000000
7.510214831000,-0.111000000000
7.517902301000,-0.116000000000
7.525589771000,-0.119000000000
7.533277241000,-0.119000000000
7.540964711000,-0.119000000000
7.548652181000,-0.124000000000
7.556339651000,-0.121000000000
7.564027121000,-0.119000000000
7.571714591000,-0.121000000000
7.579402061000,-0.119000000000
7.587089531000,-0.116000000000
7.594777001000,-0.114000000000
7.602464471000,-0.116000000000
7.610151941000,-0.111000000000
7.617839411000,-0.107000000000
7.625526881000,-0.107000000000
7.633214351000,-0.104000000000
7.640901821000,-0.102000000000
7.648589291000,-0.099000000000
7.656276784000,-0.099000000000
7.663963278000,-0.094000000000
7.671649772000,-0.092000000000
7.679336266000,-0.090000000000
7.687022760000,-0.085000000000
7.694709254000,-0.085000000000
7.702395748000,-0.082000000000
7.710082242000,-0.080000000000
7.717768736000,-0.077000000000
7.725455230000,-0.077000000000
7.733141724000,-0.072000000000
7.740828218000,-0.070000000000
7.748514712000,-0.068000000000
7.756201206000,-0.063000000000
7.763887700000,-0.063000000000
7.771574194000,-0.063000000000
7.779260688000,-0.060000000000
7.786947182000,-0.058000000000
7.794633676000,-0.058000000000
7.802320170000,-0.055000000000
7.810006664000,-0.055000000000
7.817693158000,-0.063000000000
7.825379652000,-0.065000000000
7.833066146000,-0.063000000000
7.840752640000,-0.060000000000
7.848439134000,-0.055000000000
7.856125628000,-0.046000000000
7.863812122000,-0.031000000000
7.871498616000,-0.014000000000
7.879185110000,-0.007000000000
7.886871604000,-0.026000000000
7.894558098000,-0.048000000000
7.902244592000,-0.048000000000
7.909931086000,-0.046000000000
7.917617580000,-0.048000000000
7.925304074000,-0.046000000000
7.932990568000,-0.041000000000
7.940677062000,-0.046000000000
7.948363556000,-0.072000000000
7.956050050000,-0.087000000000
7.963736544000,0.155000000000
7.971423038000,0.807000000000
7.979109532000,1.311000000000
7.986796026000,0.866000000000
7.994482520000,-0.231000000000
8.002169014000,-0.729000000000
8.009855508000,-0.413000000000
8.017542002000,-0.209000000000
8.025228496000,-0.238000000000
8.032914990000,-0.116000000000
8.040601484000,-0.029000000000
8.048287978000,-0.068000000000
8.055974472000,-0.060000000000
8.063660966000,-0.021000000000
8.071347460000,-0.021000000000
8.079033954000,-0.021000000000
8.086720448000,-0.007000000000
8.094406942000,0.000000000000
8.102093436000,0.002000000000
8.109779930000,0.009000000000
8.117466424000,0.017000000000
8.125152918000,0.021000000000
8.132839412000,0.029000000000
8.140525906000,0.038000000000
8.148212400000,0.046000000000
8.155898894000,0.055000000000
8.163585388000,0.065000000000
8.171271882000,0.075000000000
8.178958376000,0.087000000000
8.186644870000,0.099000000000
8.194331364000,0.111000000000
8.202017858000,0.128000000000
8.209704352000,0.145000000000
8.217390905000,0.165000000000
8.225077887000,0.182000000000
8.232764869000,0.194000000000
8.240451851000,0.204000000000
8.248138833000,0.209000000000
8.255825815000,0.211000000000
8.263512797000,0.209000000000
8.271199779000,0.199000000000
8.278886761000,0.172000000000
8.286573743000,0.133000000000
8.294260725000,0.082000000000
8.301947707000,0.024000000000
8.309634689000,-0.031000000000
8.317321671000,-0.082000000000
8.325008653000,-0.124000000000
8.332695635000,-0.145000000000
8.340382617000,-0.158000000000
8.348069599000,-0.163000000000
8.355756581000,-0.163000000000
8.363443563000,-0.158000000000
8.371130545000,-0.150000000000
8.378817527000,-0.141000000000
8.386504509000,-0.133000000000
8.394191491000,-0.126000000000
8.401878473000,-0.121000000000
8.409565455000,-0.114000000000
8.417252437000,-0.109000000000
8.424939419000,-0.104000000000
8.432626401000,-0.102000000000
8.440313383000,-0.102000000000
8.448000365000,-0.102000000000
8.455687347000,-0.104000000000
8.463374329000,-0.104000000000
8.471061311000,-0.104000000000
8.478748293000,-0.107000000000
8.486435275000,-0.107000000000
8.494122257000,-0.107000000000
8.501809239000,-0.104000000000
8.509496221000,-0.104000000000
8.517183203000,-0.104000000000
8.524870185000,-0.102000000000
8.532557167000,-0.099000000000
8.540244149000,-0.099000000000
8.547931131000,-0.097000000000
8.555618113000,-0.094000000000
8.563305095000,-0.092000000000
8.570992077000,-0.090000000000
8.578679059000,-0.087000000000
8.586366041000,-0.087000000000
8.594053023000,-0.085000000000
8.601740005000,-0.082000000000
8.609426987000,-0.080000000000
8.617113969000,-0.077000000000
8.624800951000,-0.075000000000
8.632487933000,-0.072000000000
8.640174915000,-0.072000000000
8.647861897000,-0.068000000000
8.655548879000,-0.068000000000
8.663235861000,-0.065000000000
8.670922843000,-0.065000000000
8.678609825000,-0.063000000000
8.686296807000,-0.060000000000
8.693983789000,-0.060000000000
8.701670771000,-0.060000000000
8.709357753000,-0.060000000000
8.717044735000,-0.058000000000
8.724731717000,-0.058000000000
8.732418699000,-0.055000000000
8.740105681000,-0.055000000000
8.747792663000,-0.053000000000
8.755479645000,-0.053000000000
8.763166627000,-0.053000000000
8.770853609000,-0.051000000000
8.778540628000,-0.048000000000
8.786227749000,-0.048000000000
8.793914870000,-0.046000000000
8.801601991000,-0.046000000000
8.809289112000,-0.046000000000
8.816976233000,-0.046000000000
8.824663354000,-0.043000000000
8.832350475000,-0.046000000000
8.840037596000,-0.046000000000
8.847724717000,-0.041000000000
8.855411838000,-0.041000000000
8.863098959000,-0.043000000000
8.870786080000,-0.043000000000
8.878473201000,-0.043000000000
8.886160322000,-0.051000000000
8.893847443000,-0.058000000000
8.901534564000,-0.053000000000
8.909221685000,-0.051000000000
8.916908806000,-0.043000000000
8.924595927000,-0.029000000000
8.932283048000,-0.014000000000
8.939970169000,0.000000000000
8.947657290000,0.000000000000
8.955344411000,-0.024000000000
8.963031532000,-0.043000000000
8.970718653000,-0.041000000000
8.978405774000,-0.041000000000
8.986092895000,-0.041000000000
8.993780016000,-0.038000000000
9.001467137000,-0.038000000000
9.009154258000,-0.048000000000
9.016841379000,-0.092000000000
9.024528500000,-0.085000000000
9.032215621000,0.262000000000
9.039902742000,0.978000000000
9.047589863000,1.362000000000
9.055276984000,0.771000000000
9.062964105000,-0.282000000000
9.070651226000,-0.625000000000
9.078338347000,-0.291000000000
9.086025468000,-0.180000000000
9.093712589000,-0.221000000000
9.101399710000,-0.107000000000
9.109086831000,-0.060000000000
9.116773952000,-0.102000000000
9.124461073000,-0.075000000000
9.132148194000,-0.041000000000
9.139835315000,-0.051000000000
9.147522436000,-0.048000000000
9.155209557000,-0.029000000000
9.162896678000,-0.026000000000
9.170583799000,-0.024000000000
9.178270920000,-0.014000000000
9.185958041000,-0.007000000000
9.193645162000,-0.004000000000
9.201332283000,0.004000000000
9.209019404000,0.014000000000
9.216706525000,0.021000000000
9.224393646000,0.031000000000
9.232080767000,0.041000000000
9.239767888000,0.051000000000
9.247455009000,0.063000000000
9.255142130000,0.077000000000
9.262829251000,0.087000000000
9.270516372000,0.104000000000
9.278203493000,0.121000000000
9.285890614000,0.136000000000
9.293577735000,0.153000000000
9.301264856000,0.167000000000
9.308951977000,0.177000000000
9.316639098000,0.182000000000
9.324326219000,0.184000000000
9.332013340000,0.184000000000
9.339700525000,0.177000000000
9.347387577000,0.163000000000
9.355074629000,0.133000000000
9.362761681000,0.090000000000
9.370448733000,0.038000000000
9.378135785000,-0.012000000000
9.385822837000,-0.058000000000
9.393509889000,-0.094000000000
9.401196941000,-0.124000000000
9.408883993000,-0.141000000000
9.416571045000,-0.148000000000
9.424258097000,-0.148000000000
9.431945149000,-0.148000000000
9.439632201000,-0.145000000000
9.447319253000,-0.141000000000
9.455006305000,-0.133000000000
9.462693357000,-0.128000000000
9.470380409000,-0.124000000000
9.478067461000,-0.121000000000
9.485754513000,-0.116000000000
9.493441565000,-0.114000000000
9.501128617000,-0.111000000000
9.508815669000,-0.109000000000
9.516502721000,-0.107000000000
9.524189773000,-0.104000000000
9.531876825000,-0.107000000000
9.539563877000,-0.107000000000
9.547250929000,-0.107000000000
9.554937981000,-0.107000000000
9.562625033000,-0.107000000000
9.570312085000,-0.107000000000
9.577999137000,-0.107000000000
9.585686189000,-0.104000000000
9.593373241000,-0.104000000000
9.601060293000,-0.104000000000
9.608747345000,-0.102000000000
9.616434397000,-0.099000000000
9.624121449000,-0.097000000000
9.631808501000,-0.092000000000
9.639495553000,-0.090000000000
9.647182605000,-0.090000000000
9.654869657000,-0.090000000000
9.662556709000,-0.085000000000
9.670243761000,-0.082000000000
9.677930813000,-0.077000000000
9.685617865000,-0.077000000000
9.693304917000,-0.075000000000
9.700991969000,-0.072000000000
9.708679021000,-0.070000000000
9.716366073000,-0.068000000000
9.724053125000,-0.068000000000
9.731740177000,-0.065000000000
9.739427229000,-0.065000000000
9.747114281000,-0.065000000000
9.754801333000,-0.063000000000
9.762488385000,-0.060000000000
9.770175437000,-0.058000000000
9.777862489000,-0.058000000000
9.785549541000,-0.058000000000
9.793236593000,-0.053000000000
9.800923645000,-0.053000000000
9.808610697000,-0.051000000000
9.816297749000,-0.048000000000
9.823984801000,-0.051000000000
9.831671853000,-0.051000000000
9.839358905000,-0.043000000000
9.847045957000,-0.043000000000
9.854733009000,-0.046000000000
9.862420061000,-0.043000000000
9.870107113000,-0.043000000000
9.877794165000,-0.043000000000
9.885481217000,-0.043000000000
9.893168269000,-0.041000000000
9.900855339000,-0.041000000000
9.908542530000,-0.041000000000
9.916229721000,-0.038000000000
9.923916912000,-0.038000000000
9.931604103000,-0.043000000000
9.939291294000,-0.051000000000
9.946978485000,-0.053000000000
9.954665676000,-0.053000000000
9.962352867000,-0.051000000000
9.970040058000,-0.036000000000
9.977727249000,-0.019000000000
9.985414440000,-0.007000000000
9.993101631000,0.004000000000
10.000788822000,-0.002000000000
10.008476013000,-0.029000000000
10.016163204000,-0.038000000000
10.023850395000,-0.034000000000
10.031537586000,-0.036000000000
10.039224777000,-0.036000000000
10.046911968000,-0.031000000000
10.054599159000,-0.034000000000
10.062286350000,-0.058000000000
10.069973541000,-0.099000000000
10.077660732000,0.019000000000
10.085347923000,0.571000000000
10.093035114000,1.248000000000
10.100722305000,1.216000000000
10.108409496000,0.265000000000
10.116096687000,-0.581000000000
10.123783878000,-0.501000000000
10.131471069000,-0.192000000000
10.139158260000,-0.209000000000
10.146845451000,-0.170000000000
10.154532642000,-0.048000000000
10.162219833000,-0.063000000000
10.169907024000,-0.082000000000
10.177594215000,-0.041000000000
10.185281406000,-0.031000000000
10.192968597000,-0.038000000000
10.200655788000,-0.024000000000
10.208342979000,-0.012000000000
10.216030170000,-0.014000000000
10.223717361000,-0.004000000000
10.231404552000,0.004000000000
10.239091743000,0.009000000000
10.246778934000,0.017000000000
10.254466125000,0.026000000000
10.262153316000,0.034000000000
10.269840507000,0.038000000000
10.277527698000,0.048000000000
10.285214889000,0.063000000000
10.292902080000,0.072000000000
10.300589271000,0.082000000000
10.308276462000,0.097000000000
10.315963653000,0.114000000000
10.323650844000,0.131000000000
10.331338035000,0.148000000000
10.339025226000,0.163000000000
10.346712417000,0.177000000000
10.354399608000,0.189000000000
10.362086799000,0.197000000000
10.369773990000,0.197000000000
10.377461181000,0.197000000000
10.385148372000,0.194000000000
10.392835563000,0.182000000000
10.400522754000,0.158000000000
10.408209945000,0.119000000000
10.415897136000,0.068000000000
10.423584327000,0.017000000000
10.431271518000,-0.034000000000
10.438958709000,-0.080000000000
10.446645900000,-0.114000000000
10.454333091000,-0.136000000000
10.462020323000,-0.148000000000
10.469707026000,-0.150000000000
10.477393729000,-0.148000000000
10.485080432000,-0.145000000000
10.492767135000,-0.143000000000
10.500453838000,-0.136000000000
10.508140541000,-0.128000000000
10.515827244000,-0.124000000000
10.523513947000,-0.119000000000
10.531200650000,-0.111000000000
10.538887353000,-0.107000000000
10.546574056000,-0.107000000000
10.554260759000,-0.107000000000
10.561947462000,-0.104000000000
10.569634165000,-0.102000000000
10.577320868000,-0.104000000000
10.585007571000,-0.104000000000
10.592694274000,-0.104000000000
10.600380977000,-0.102000000000
10.608067680000,-0.102000000000
10.615754383000,-0.102000000000
10.623441086000,-0.099000000000
10.631127789000,-0.099000000000
10.638814492000,-0.099000000000
10.646501195000,-0.097000000000
10.654187898000,-0.097000000000
10.661874601000,-0.092000000000
10.669561304000,-0.087000000000
10.677248007000,-0.087000000000
10.684934710000,-0.085000000000
10.692621413000,-0.082000000000
10.700308116000,-0.080000000000
10.707994819000,-0.077000000000
10.715681522000,-0.075000000000
10.723368225000,-0.072000000000
10.731054928000,-0.072000000000
10.738741631000,-0.070000000000
10.746428334000,-0.070000000000
10.754115037000,-0.068000000000
10.761801740000,-0.065000000000
10.769488443000,-0.065000000000
10.777175146000,-0.060000000000
10.784861849000,-0.058000000000
10.792548552000,-0.058000000000
10.800235255000,-0.058000000000
10.807921958000,-0.053000000000
10.815608661000,-0.048000000000
10.823295364000,-0.048000000000
10.830982067000,-0.051000000000
10.838668770000,-0.048000000000
10.846355473000,-0.046000000000
10.854042176000,-0.048000000000
10.861728879000,-0.046000000000
10.869415582000,-0.043000000000
10.877102285000,-0.043000000000
10.884788988000,-0.041000000000
10.892475691000,-0.038000000000
10.900162394000,-0.041000000000
10.907849097000,-0.041000000000
10.915535800000,-0.038000000000
10.923222503000,-0.038000000000
10.930909206000,-0.036000000000
10.938595909000,-0.036000000000
10.946282612000,-0.036000000000
10.953969315000,-0.034000000000
10.961656018000,-0.038000000000
10.969342721000,-0.048000000000
10.977029424000,-0.048000000000
10.984716127000,-0.041000000000
10.992402830000,-0.036000000000
11.000089533000,-0.026000000000
11.007776236000,-0.017000000000
11.015462939000,0.000000000000
11.023149702000,0.012000000000
11.030836545000,-0.004000000000
11.038523388000,-0.029000000000
11.046210231000,-0.029000000000
11.053897074000,-0.029000000000
11.061583917000,-0.034000000000
11.069270760000,-0.031000000000
11.076957603000,-0.026000000000
11.084644446000,-0.031000000000
11.092331289000,-0.055000000000
11.100018132000,-0.072000000000
11.107704975000,0.133000000000
11.115391818000,0.766000000000
11.123078661000,1.335000000000
11.130765504000,1.007000000000
11.138452347000,-0.065000000000
11.146139190000,-0.678000000000
11.153826033000,-0.428000000000
11.161512876000,-0.199000000000
11.169199719000,-0.238000000000
11.176886562000,-0.138000000000
11.184573405000,-0.031000000000
11.192260248000,-0.065000000000
11.199947091000,-0.068000000000
11.207633934000,-0.026000000000
11.215320777000,-0.024000000000
11.223007620000,-0.029000000000
11.230694463000,-0.012000000000
11.238381306000,0.000000000000
11.246068149000,0.002000000000
11.253754992000,0.004000000000
11.261441835000,0.012000000000
11.269128678000,0.021000000000
11.276815521000,0.034000000000
11.284502364000,0.043000000000
11.292189207000,0.046000000000
11.299876050000,0.055000000000
11.307562893000,0.070000000000
11.315249736000,0.080000000000
11.322936579000,0.087000000000
11.330623422000,0.099000000000
11.338310265000,0.119000000000
11.345997108000,0.136000000000
11.353683951000,0.153000000000
11.361370794000,0.170000000000
11.369057637000,0.189000000000
11.376744480000,0.204000000000
11.384431323000,0.214000000000
11.392118166000,0.221000000000
11.399805009000,0.223000000000
11.407491852000,0.221000000000
11.415178695000,0.216000000000
11.422865538000,0.204000000000
11.430552381000,0.172000000000
11.438239224000,0.119000000000
11.445926067000,0.058000000000
11.453612910000,-0.002000000000
11.461299753000,-0.058000000000
11.468986596000,-0.107000000000
11.476673439000,-0.143000000000
11.484360282000,-0.160000000000
11.492047125000,-0.167000000000
11.499733968000,-0.170000000000
11.507420811000,-0.165000000000
11.515107654000,-0.158000000000
11.522794497000,-0.150000000000
11.530481340000,-0.141000000000
11.538168183000,-0.131000000000
11.545855026000,-0.124000000000
11.553541869000,-0.119000000000
11.561228712000,-0.111000000000
11.568915555000,-0.109000000000
11.576602398000,-0.107000000000
11.584289255000,-0.104000000000
11.591976237000,-0.104000000000
11.599663219000,-0.107000000000
11.607350201000,-0.107000000000
11.615037183000,-0.107000000000
11.622724165000,-0.109000000000
11.630411147000,-0.111000000000
11.638098129000,-0.109000000000
11.645785111000,-0.109000000000
11.653472093000,-0.111000000000
11.661159075000,-0.109000000000
11.668846057000,-0.107000000000
11.676533039000,-0.107000000000
11.684220021000,-0.107000000000
11.691907003000,-0.104000000000
11.699593985000,-0.102000000000
11.707280967000,-0.097000000000
11.714967949000,-0.097000000000
11.722654931000,-0.097000000000
11.730341913000,-0.094000000000
11.738028895000,-0.092000000000
11.745715877000,-0.087000000000
11.753402859000,-0.085000000000
11.761089841000,-0.082000000000
11.768776823000,-0.082000000000
11.776463805000,-0.080000000000
11.784150787000,-0.077000000000
11.791837769000,-0.072000000000
11.799524751000,-0.070000000000
11.807211733000,-0.068000000000
11.814898715000,-0.065000000000
11.822585697000,-0.063000000000
11.830272679000,-0.063000000000
11.837959661000,-0.063000000000
11.845646643000,-0.058000000000
11.853333625000,-0.055000000000
11.861020607000,-0.053000000000
11.868707589000,-0.053000000000
11.876394571000,-0.053000000000
11.884081553000,-0.051000000000
11.891768535000,-0.053000000000
11.899455517000,-0.051000000000
11.907142499000,-0.046000000000
11.914829481000,-0.046000000000
11.922516463000,-0.048000000000
11.930203445000,-0.043000000000
11.937890427000,-0.041000000000
11.945577409000,-0.041000000000
11.953264391000,-0.041000000000
11.960951373000,-0.038000000000
11.968638355000,-0.038000000000
11.976325337000,-0.041000000000
11.984012319000,-0.038000000000
11.991699301000,-0.038000000000
11.999386283000,-0.038000000000
12.007073265000,-0.041000000000
12.014760247000,-0.046000000000
12.022447229000,-0.048000000000
12.030134211000,-0.048000000000
12.037821193000,-0.043000000000
12.045508175000,-0.031000000000
12.053195157000,-0.019000000000
12.060882139000,-0.009000000000
12.068569121000,0.007000000000
12.076256103000,0.004000000000
12.083943085000,-0.024000000000
12.091630067000,-0.034000000000
12.099317049000,-0.031000000000
12.107004031000,-0.031000000000
12.114691013000,-0.034000000000
12.122377995000,-0.031000000000
12.130064977000,-0.031000000000
12.137751959000,-0.051000000000
12.145438978000,-0.092000000000
12.153126099000,-0.009000000000
12.160813220000,0.491000000000
12.168500341000,1.194000000000
12.176187462000,1.275000000000
12.183874583000,0.391000000000
12.191561704000,-0.532000000000
12.199248825000,-0.554000000000
12.206935946000,-0.218000000000
12.214623067000,-0.204000000000
12.222310188000,-0.184000000000
12.229997309000,-0.058000000000
12.237684430000,-0.055000000000
12.245371551000,-0.082000000000
12.253058672000,-0.043000000000
12.260745793000,-0.029000000000
12.268432914000,-0.036000000000
12.276120035000,-0.019000000000
12.283807156000,-0.009000000000
12.291494277000,-0.012000000000
12.299181398000,-0.004000000000
12.306868519000,0.007000000000
12.314555640000,0.012000000000
12.322242761000,0.017000000000
12.329929882000,0.024000000000
12.337617003000,0.034000000000
12.345304124000,0.043000000000
12.352991245000,0.051000000000
12.360678366000,0.060000000000
12.368365487000,0.072000000000
12.376052608000,0.085000000000
12.383739729000,0.099000000000
12.391426850000,0.114000000000
12.399113971000,0.128000000000
12.406801092000,0.145000000000
12.414488213000,0.167000000000
12.422175334000,0.182000000000
12.429862455000,0.194000000000
12.437549576000,0.206000000000
12.445236697000,0.209000000000
12.452923818000,0.209000000000
12.460610939000,0.206000000000
12.468298060000,0.194000000000
12.475985181000,0.170000000000
12.483672302000,0.133000000000
12.491359423000,0.085000000000
12.499046544000,0.029000000000
12.506733665000,-0.026000000000
12.514420786000,-0.072000000000
12.522107907000,-0.109000000000
12.529795028000,-0.133000000000
12.537482149000,-0.148000000000
12.545169270000,-0.153000000000
12.552856391000,-0.153000000000
12.560543512000,-0.150000000000
12.568230633000,-0.145000000000
12.575917754000,-0.141000000000
12.583604875000,-0.133000000000
12.591291996000,-0.126000000000
12.598979117000,-0.121000000000
12.606666238000,-0.116000000000
12.614353359000,-0.114000000000
12.622040480000,-0.109000000000
12.629727601000,-0.107000000000
12.637414722000,-0.107000000000
12.645101843000,-0.107000000000
12.652788964000,-0.109000000000
12.660476085000,-0.107000000000
12.668163206000,-0.107000000000
12.675850327000,-0.111000000000
12.683537448000,-0.111000000000
12.691224569000,-0.111000000000
12.698911690000,-0.114000000000
12.706598875000,-0.116000000000
12.714285927000,-0.114000000000
12.721972979000,-0.111000000000
12.729660031000,-0.111000000000
12.737347083000,-0.111000000000
12.745034135000,-0.111000000000
12.752721187000,-0.111000000000
12.760408239000,-0.111000000000
12.768095291000,-0.111000000000
12.775782343000,-0.109000000000
12.783469395000,-0.109000000000
12.791156447000,-0.109000000000
12.798843499000,-0.107000000000
12.806530551000,-0.104000000000
12.814217603000,-0.104000000000
12.821904655000,-0.104000000000
12.829591707000,-0.107000000000
12.837278759000,-0.104000000000
12.844965811000,-0.102000000000
12.852652863000,-0.102000000000
12.860339915000,-0.102000000000
12.868026967000,-0.102000000000
12.875714019000,-0.102000000000
12.883401071000,-0.099000000000
12.891088123000,-0.097000000000
12.898775175000,-0.102000000000
12.906462227000,-0.104000000000
12.914149279000,-0.099000000000
12.921836331000,-0.099000000000
12.929523383000,-0.099000000000
12.937210435000,-0.099000000000
12.944897487000,-0.099000000000
12.952584539000,-0.102000000000
12.960271591000,-0.099000000000
12.967958643000,-0.102000000000
12.975645695000,-0.102000000000
12.983332747000,-0.104000000000
12.991019799000,-0.107000000000
12.998706851000,-0.114000000000
13.006393903000,-0.121000000000
13.014080955000,-0.121000000000
13.021768007000,-0.119000000000
13.029455059000,-0.111000000000
13.037142111000,-0.097000000000
13.044829163000,-0.087000000000
13.052516215000,-0.072000000000
13.060203267000,-0.070000000000
13.067890319000,-0.094000000000
13.075577371000,-0.116000000000
13.083264423000,-0.116000000000
13.090951475000,-0.119000000000
13.098638527000,-0.121000000000
13.106325579000,-0.116000000000
13.114012631000,-0.116000000000
13.121699683000,-0.128000000000
13.129386735000,-0.167000000000
13.137073787000,-0.160000000000
13.144760839000,0.184000000000
13.152447891000,0.895000000000
13.160134943000,1.265000000000
13.167821995000,0.654000000000
13.175509047000,-0.403000000000
13.183196099000,-0.734000000000
13.190883151000,-0.396000000000
13.198570203000,-0.272000000000
13.206257255000,-0.304000000000
13.213944307000,-0.182000000000
13.221631359000,-0.133000000000
13.229318411000,-0.175000000000
13.237005463000,-0.153000000000
13.244692515000,-0.121000000000
13.252379567000,-0.126000000000
13.260066619000,-0.121000000000
13.267753689000,-0.107000000000
13.275440462000,-0.104000000000
13.283127235000,-0.099000000000
13.290814008000,-0.092000000000
13.298500781000,-0.087000000000
13.306187554000,-0.080000000000
13.313874327000,-0.070000000000
13.321561100000,-0.065000000000
13.329247873000,-0.055000000000
13.336934646000,-0.043000000000
13.344621419000,-0.034000000000
13.352308192000,-0.021000000000
13.359994965000,-0.009000000000
13.367681738000,0.004000000000
13.375368511000,0.019000000000
13.383055284000,0.036000000000
13.390742057000,0.055000000000
13.398428830000,0.075000000000
13.406115603000,0.097000000000
13.413802376000,0.111000000000
13.421489149000,0.119000000000
13.429175922000,0.124000000000
13.436862695000,0.126000000000
13.444549468000,0.124000000000
13.452236241000,0.116000000000
13.459923014000,0.094000000000
13.467609787000,0.055000000000
13.475296560000,0.004000000000
13.482983333000,-0.051000000000
13.490670106000,-0.104000000000
13.498356879000,-0.158000000000
13.506043652000,-0.199000000000
13.513730425000,-0.226000000000
13.521417198000,-0.240000000000
13.529103971000,-0.245000000000
13.536790744000,-0.248000000000
13.544477517000,-0.245000000000
13.552164290000,-0.236000000000
13.559851063000,-0.228000000000
13.567537836000,-0.221000000000
13.575224609000,-0.211000000000
13.582911382000,-0.206000000000
13.590598155000,-0.201000000000
13.598284928000,-0.199000000000
13.605971701000,-0.194000000000
13.613658474000,-0.189000000000
13.621345247000,-0.184000000000
13.629032020000,-0.182000000000
13.636718793000,-0.180000000000
13.644405566000,-0.180000000000
13.652092339000,-0.180000000000
13.659779112000,-0.180000000000
13.667465885000,-0.180000000000
13.675152658000,-0.177000000000
13.682839431000,-0.175000000000
13.690526204000,-0.172000000000
13.698212977000,-0.170000000000
13.705899750000,-0.170000000000
13.713586523000,-0.167000000000
13.721273296000,-0.163000000000
13.728960069000,-0.163000000000
13.736646842000,-0.158000000000
13.744333615000,-0.153000000000
13.752020388000,-0.153000000000
13.759707161000,-0.150000000000
13.767393934000,-0.143000000000
13.775080707000,-0.138000000000
13.782767480000,-0.136000000000
13.790454253000,-0.131000000000
13.798141026000,-0.126000000000
13.805827799000,-0.131000000000
13.813514572000,-0.131000000000
13.821201345000,-0.124000000000
13.828888151000,-0.121000000000
13.836575272000,-0.119000000000
13.844262393000,-0.114000000000
13.851949514000,-0.111000000000
13.859636635000,-0.111000000000
13.867323756000,-0.111000000000
13.875010877000,-0.104000000000
13.882697998000,-0.099000000000
13.890385119000,-0.099000000000
13.898072240000,-0.099000000000
13.905759361000,-0.092000000000
13.913446482000,-0.085000000000
13.921133603000,-0.087000000000
13.928820724000,-0.092000000000
13.936507845000,-0.090000000000
13.944194966000,-0.085000000000
13.951882087000,-0.087000000000
13.959569208000,-0.094000000000
13.967256329000,-0.097000000000
13.974943450000,-0.090000000000
13.982630571000,-0.075000000000
13.990317692000,-0.063000000000
13.998004813000,-0.055000000000
14.005691934000,-0.036000000000
14.013379055000,-0.024000000000
14.021066176000,-0.046000000000
14.028753297000,-0.068000000000
14.036440418000,-0.068000000000
14.044127539000,-0.068000000000
14.051814660000,-0.063000000000
14.059501781000,-0.053000000000
14.067188902000,-0.053000000000
14.074876023000,-0.065000000000
14.082563144000,-0.087000000000
14.090250265000,-0.070000000000
14.097937386000,0.240000000000
14.105624507000,0.934000000000
14.113311628000,1.330000000000
14.120998749000,0.710000000000
14.128685870000,-0.389000000000
14.136372991000,-0.734000000000
14.144060112000,-0.374000000000
14.151747233000,-0.231000000000
14.159434354000,-0.257000000000
14.167121475000,-0.116000000000
14.174808596000,-0.046000000000
14.182495717000,-0.085000000000
14.190182838000,-0.065000000000
14.197869959000,-0.031000000000
14.205557080000,-0.034000000000
14.213244201000,-0.026000000000
14.220931322000,-0.009000000000
14.228618443000,-0.002000000000
14.236305564000,0.002000000000
14.243992685000,0.007000000000
14.251679806000,0.014000000000
14.259366927000,0.021000000000
14.267054048000,0.034000000000
14.274741169000,0.043000000000
14.282428290000,0.055000000000
14.290115411000,0.065000000000
14.297802532000,0.077000000000
14.305489653000,0.092000000000
14.313176774000,0.102000000000
14.320863895000,0.109000000000
14.328551016000,0.131000000000
14.336238137000,0.153000000000
14.343925258000,0.172000000000
14.351612379000,0.194000000000
14.359299500000,0.218000000000
14.366986621000,0.231000000000
14.374673742000,0.236000000000
14.382360863000,0.243000000000
14.390048052000,0.245000000000
14.397734895000,0.238000000000
14.405421738000,0.223000000000
14.413108581000,0.201000000000
14.420795424000,0.160000000000
14.428482267000,0.099000000000
14.436169110000,0.031000000000
14.443855953000,-0.034000000000
14.451542796000,-0.090000000000
14.459229639000,-0.136000000000
14.466916482000,-0.163000000000
14.474603325000,-0.175000000000
14.482290168000,-0.184000000000
14.489977011000,-0.187000000000
14.497663854000,-0.177000000000
14.505350697000,-0.165000000000
14.513037540000,-0.155000000000
14.520724383000,-0.148000000000
14.528411226000,-0.138000000000
14.536098069000,-0.126000000000
14.543784912000,-0.119000000000
14.551471755000,-0.114000000000
14.559158598000,-0.107000000000
14.566845441000,-0.104000000000
14.574532284000,-0.104000000000
14.582219127000,-0.104000000000
14.589905970000,-0.104000000000
14.597592813000,-0.107000000000
14.605279656000,-0.109000000000
14.612966499000,-0.109000000000
14.620653342000,-0.111000000000
14.628340185000,-0.111000000000
14.636027028000,-0.109000000000
14.643713871000,-0.107000000000
14.651400714000,-0.109000000000
14.659087557000,-0.109000000000
14.666774400000,-0.104000000000
14.674461243000,-0.099000000000
14.682148086000,-0.097000000000
14.689834929000,-0.094000000000
14.697521772000,-0.092000000000
14.705208615000,-0.090000000000
14.712895458000,-0.087000000000
14.720582301000,-0.085000000000
14.728269144000,-0.080000000000
14.735955987000,-0.077000000000
14.743642830000,-0.072000000000
14.751329673000,-0.072000000000
14.759016516000,-0.070000000000
14.766703359000,-0.068000000000
14.774390202000,-0.063000000000
14.782077045000,-0.058000000000
14.789763888000,-0.055000000000
14.797450731000,-0.055000000000
14.805137574000,-0.060000000000
14.812824417000,-0.063000000000
14.820511260000,-0.063000000000
14.828198103000,-0.058000000000
14.835884946000,-0.053000000000
14.843571789000,-0.038000000000
14.851258632000,-0.021000000000
14.858945475000,-0.009000000000
14.866632318000,0.000000000000
14.874319161000,-0.012000000000
14.882006004000,-0.036000000000
14.889692847000,-0.041000000000
14.897379690000,-0.036000000000
14.905066533000,-0.038000000000
14.912753376000,-0.038000000000
14.920440219000,-0.036000000000
14.928127062000,-0.041000000000
14.935813905000,-0.063000000000
14.943500748000,-0.080000000000
14.951187605000,0.133000000000
14.958874587000,0.771000000000
14.966561569000,1.321000000000
14.974248551000,0.927000000000
14.981935533000,-0.194000000000
14.989622515000,-0.766000000000
14.997309497000,-0.452000000000
15.004996479000,-0.209000000000
15.012683461000,-0.240000000000
15.020370443000,-0.116000000000
15.028057425000,-0.004000000000
15.035744407000,-0.041000000000
15.043431389000,-0.043000000000
15.051118371000,-0.002000000000
15.058805353000,0.000000000000
15.066492335000,-0.002000000000
15.074179317000,0.012000000000
15.081866299000,0.017000000000
15.089553281000,0.019000000000
15.097240263000,0.029000000000
15.104927245000,0.038000000000
15.112614227000,0.041000000000
15.120301209000,0.051000000000
15.127988191000,0.058000000000
15.135675173000,0.068000000000
15.143362155000,0.077000000000
15.151049137000,0.087000000000
15.158736119000,0.097000000000
15.166423101000,0.111000000000
15.174110083000,0.126000000000
15.181797065000,0.143000000000
15.189484047000,0.165000000000
15.197171029000,0.184000000000
15.204858011000,0.206000000000
15.212544993000,0.226000000000
15.220231975000,0.245000000000
15.227918957000,0.255000000000
15.235605939000,0.262000000000
15.243292921000,0.262000000000
15.250979903000,0.260000000000
15.258666885000,0.250000000000
15.266353867000,0.223000000000
15.274040849000,0.177000000000
15.281727831000,0.111000000000
15.289414813000,0.046000000000
15.297101795000,-0.014000000000
15.304788777000,-0.068000000000
15.312475759000,-0.114000000000
15.320162741000,-0.138000000000
15.327849723000,-0.150000000000
15.335536705000,-0.153000000000
15.343223687000,-0.155000000000
15.350910669000,-0.150000000000
15.358597651000,-0.141000000000
15.366284633000,-0.131000000000
15.373971615000,-0.121000000000
15.381658597000,-0.114000000000
15.389345579000,-0.109000000000
15.397032561000,-0.102000000000
15.404719543000,-0.097000000000
15.412406525000,-0.094000000000
15.420093507000,-0.090000000000
15.427780489000,-0.087000000000
15.435467471000,-0.090000000000
15.443154453000,-0.092000000000
15.450841435000,-0.087000000000
15.458528417000,-0.090000000000
15.466215399000,-0.090000000000
15.473902381000,-0.090000000000
15.481589363000,-0.090000000000
15.489276345000,-0.087000000000
15.496963327000,-0.087000000000
15.504650309000,-0.085000000000
15.512337328000,-0.085000000000
15.520024449000,-0.085000000000
15.527711570000,-0.082000000000
15.535398691000,-0.077000000000
15.543085812000,-0.077000000000
15.550772933000,-0.077000000000
15.558460054000,-0.077000000000
15.566147175000,-0.075000000000
15.573834296000,-0.070000000000
15.581521417000,-0.068000000000
15.589208538000,-0.065000000000
15.596895659000,-0.063000000000
15.604582780000,-0.063000000000
15.612269901000,-0.060000000000
15.619957022000,-0.055000000000
15.627644143000,-0.053000000000
15.635331264000,-0.051000000000
15.643018385000,-0.051000000000
15.650705506000,-0.051000000000
15.658392627000,-0.048000000000
15.666079748000,-0.043000000000
15.673766869000,-0.043000000000
15.681453990000,-0.043000000000
15.689141111000,-0.043000000000
15.696828232000,-0.048000000000
15.704515353000,-0.055000000000
15.712202474000,-0.053000000000
15.719889595000,-0.048000000000
15.727576716000,-0.043000000000
15.735263837000,-0.029000000000
15.742950958000,-0.014000000000
15.750638079000,-0.002000000000
15.758325200000,0.002000000000
15.766012321000,-0.009000000000
15.773699442000,-0.031000000000
15.781386563000,-0.034000000000
15.789073684000,-0.034000000000
15.796760805000,-0.036000000000
15.804447926000,-0.036000000000
15.812135047000,-0.031000000000
15.819822168000,-0.034000000000
15.827509289000,-0.063000000000
15.835196410000,-0.099000000000
15.842883531000,0.090000000000
15.850570652000,0.725000000000
15.858257773000,1.335000000000
15.865944894000,1.075000000000
15.873632015000,0.007000000000
15.881319136000,-0.659000000000
15.889006257000,-0.423000000000
15.896693378000,-0.172000000000
15.904380499000,-0.216000000000
15.912067620000,-0.131000000000
15.919754741000,-0.029000000000
15.927441862000,-0.065000000000
15.935128983000,-0.070000000000
15.942816104000,-0.026000000000
15.950503225000,-0.024000000000
15.958190346000,-0.029000000000
15.965877467000,-0.009000000000
15.973564588000,-0.002000000000
15.981251709000,-0.002000000000
15.988938830000,0.007000000000
15.996625951000,0.014000000000
16.004313072000,0.019000000000
16.012000193000,0.024000000000
16.019687314000,0.036000000000
16.027374435000,0.043000000000
16.035061556000,0.051000000000
16.042748677000,0.060000000000
16.050435798000,0.075000000000
16.058122919000,0.090000000000
16.065810040000,0.102000000000
16.073497225000,0.116000000000
16.081184277000,0.133000000000
16.088871329000,0.153000000000
16.096558381000,0.175000000000
16.104245433000,0.197000000000
16.111932485000,0.211000000000
16.119619537000,0.221000000000
16.127306589000,0.231000000000
16.134993641000,0.233000000000
16.142680693000,0.233000000000
16.150367745000,0.223000000000
16.158054797000,0.201000000000
16.165741849000,0.165000000000
16.173428901000,0.114000000000
16.181115953000,0.053000000000
16.188803005000,-0.002000000000
16.196490057000,-0.053000000000
16.204177109000,-0.097000000000
16.211864161000,-0.126000000000
16.219551213000,-0.141000000000
16.227238265000,-0.148000000000
16.234925317000,-0.148000000000
16.242612369000,-0.148000000000
16.250299421000,-0.145000000000
16.257986473000,-0.141000000000
16.265673525000,-0.133000000000
16.273360577000,-0.128000000000
16.281047629000,-0.126000000000
16.288734681000,-0.121000000000
16.296421733000,-0.119000000000
16.304108785000,-0.116000000000
16.311795837000,-0.111000000000
16.319482889000,-0.109000000000
16.327169941000,-0.107000000000
16.334856993000,-0.104000000000
16.342544045000,-0.104000000000
16.350231097000,-0.102000000000
16.357918149000,-0.102000000000
16.365605201000,-0.104000000000
16.373292253000,-0.107000000000
16.380979305000,-0.104000000000
16.388666357000,-0.104000000000
16.396353409000,-0.104000000000
16.404040461000,-0.102000000000
16.411727513000,-0.099000000000
16.419414565000,-0.099000000000
16.427101617000,-0.094000000000
16.434788669000,-0.092000000000
16.442475721000,-0.092000000000
16.450162773000,-0.092000000000
16.457849825000,-0.090000000000
16.465536877000,-0.087000000000
16.473223929000,-0.082000000000
16.480910981000,-0.080000000000
16.488598033000,-0.077000000000
16.496285085000,-0.075000000000
16.503972137000,-0.075000000000
16.511659189000,-0.072000000000
16.519346241000,-0.070000000000
16.527033293000,-0.068000000000
16.534720345000,-0.065000000000
16.542407397000,-0.063000000000
16.550094449000,-0.060000000000
16.557781501000,-0.058000000000
16.565468553000,-0.055000000000
16.573155605000,-0.055000000000
16.580842657000,-0.055000000000
16.588529709000,-0.055000000000
16.596216761000,-0.051000000000
16.603903813000,-0.048000000000
16.611590865000,-0.053000000000
16.619277917000,-0.058000000000
16.626964969000,-0.065000000000
16.634652039000,-0.063000000000
16.642338812000,-0.058000000000
16.650025585000,-0.048000000000
16.657712358000,-0.034000000000
16.665399131000,-0.019000000000
16.673085904000,-0.007000000000
16.680772677000,-0.004000000000
16.688459450000,-0.024000000000
16.696146223000,-0.046000000000
16.703832996000,-0.046000000000
16.711519769000,-0.043000000000
16.719206542000,-0.043000000000
16.726893315000,-0.043000000000
16.734580088000,-0.041000000000
16.742266861000,-0.046000000000
16.749953634000,-0.077000000000
16.757640407000,-0.104000000000
16.765327180000,0.136000000000
16.773013953000,0.810000000000
16.780700726000,1.350000000000
16.788387499000,0.953000000000
16.796074272000,-0.136000000000
16.803761045000,-0.683000000000
16.811447818000,-0.384000000000
16.819134591000,-0.175000000000
16.826821364000,-0.221000000000
16.834508137000,-0.119000000000
16.842194910000,-0.036000000000
16.849881683000,-0.077000000000
16.857568456000,-0.072000000000
16.865255229000,-0.034000000000
16.872942002000,-0.036000000000
16.880628775000,-0.034000000000
16.888315548000,-0.019000000000
16.896002321000,-0.012000000000
16.903689094000,-0.009000000000
16.911375867000,0.000000000000
16.919062640000,0.007000000000
16.926749413000,0.012000000000
16.934436186000,0.019000000000
16.942122959000,0.026000000000
16.949809732000,0.031000000000
16.957496505000,0.041000000000
16.965183278000,0.051000000000
16.972870051000,0.060000000000
16.980556824000,0.075000000000
16.988243597000,0.090000000000
16.995930370000,0.102000000000
17.003617143000,0.119000000000
17.011303916000,0.138000000000
17.018990689000,0.155000000000
17.026677462000,0.172000000000
17.034364235000,0.187000000000
17.042051008000,0.197000000000
17.049737781000,0.204000000000
17.057424554000,0.204000000000
17.065111327000,0.204000000000
17.072798100000,0.199000000000
17.080484873000,0.182000000000
17.088171646000,0.145000000000
17.095858419000,0.097000000000
17.103545192000,0.041000000000
17.111231965000,-0.014000000000
17.118918738000,-0.065000000000
17.126605511000,-0.107000000000
17.134292284000,-0.133000000000
17.141979057000,-0.148000000000
17.149665830000,-0.153000000000
17.157352603000,-0.153000000000
17.165039376000,-0.150000000000
17.172726149000,-0.148000000000
17.180412922000,-0.145000000000
17.188099695000,-0.143000000000
17.195786501000,-0.136000000000
17.203473622000,-0.131000000000
17.211160743000,-0.128000000000
17.218847864000,-0.126000000000
17.226534985000,-0.124000000000
17.234222106000,-0.119000000000
17.241909227000,-0.116000000000
17.249596348000,-0.114000000000
17.257283469000,-0.111000000000
17.264970590000,-0.111000000000
17.272657711000,-0.111000000000
17.280344832000,-0.109000000000
17.288031953000,-0.109000000000
17.295719074000,-0.111000000000
17.303406195000,-0.109000000000
17.311093316000,-0.109000000000
17.318780437000,-0.107000000000
17.326467558000,-0.109000000000
17.334154679000,-0.107000000000
17.341841800000,-0.102000000000
17.349528921000,-0.099000000000
17.357216042000,-0.097000000000
17.364903163000,-0.094000000000
17.372590284000,-0.092000000000
17.380277405000,-0.092000000000
17.387964526000,-0.090000000000
17.395651647000,-0.087000000000
17.403338768000,-0.085000000000
17.411025889000,-0.080000000000
17.418713010000,-0.077000000000
17.426400131000,-0.075000000000
17.434087252000,-0.072000000000
17.441774373000,-0.070000000000
17.449461494000,-0.068000000000
17.457148615000,-0.068000000000
17.464835736000,-0.070000000000
17.472522857000,-0.068000000000
17.480209978000,-0.063000000000
17.487897099000,-0.063000000000
17.495584220000,-0.060000000000
17.503271341000,-0.060000000000
17.510958462000,-0.060000000000
17.518645583000,-0.055000000000
17.526332704000,-0.053000000000
17.534019825000,-0.053000000000
17.541706946000,-0.051000000000
17.549394067000,-0.048000000000
17.557081188000,-0.051000000000
17.564768309000,-0.051000000000
17.572455430000,-0.048000000000
17.580142551000,-0.046000000000
17.587829672000,-0.046000000000
17.595516793000,-0.043000000000
17.603203914000,-0.038000000000
17.610891035000,-0.038000000000
17.618578156000,-0.043000000000
17.626265277000,-0.048000000000
17.633952398000,-0.053000000000
17.641639519000,-0.055000000000
17.649326640000,-0.051000000000
17.657013761000,-0.046000000000
17.664700882000,-0.036000000000
17.672388003000,-0.024000000000
17.680075124000,-0.009000000000
17.687762245000,0.000000000000
17.695449366000,-0.017000000000
17.703136487000,-0.041000000000
17.710823608000,-0.041000000000
17.718510729000,-0.038000000000
17.726197850000,-0.043000000000
17.733884971000,-0.041000000000
17.741572092000,-0.038000000000
17.749259213000,-0.043000000000
17.756946402000,-0.065000000000
17.764633245000,-0.077000000000
17.772320088000,0.148000000000
17.780006931000,0.802000000000
17.787693774000,1.355000000000
17.795380617000,0.973000000000
17.803067460000,-0.128000000000
17.810754303000,-0.712000000000
17.818441146000,-0.440000000000
17.826127989000,-0.223000000000
17.833814832000,-0.257000000000
17.841501675000,-0.143000000000
17.849188518000,-0.041000000000
17.856875361000,-0.075000000000
17.864562204000,-0.072000000000
17.872249047000,-0.031000000000
17.879935890000,-0.031000000000
17.887622733000,-0.034000000000
17.895309576000,-0.014000000000
17.902996419000,-0.009000000000
17.910683262000,-0.009000000000
17.918370105000,0.002000000000
17.926056948000,0.009000000000
17.933743791000,0.014000000000
17.941430634000,0.026000000000
17.949117477000,0.038000000000
17.956804320000,0.043000000000
17.964491163000,0.053000000000
17.972178006000,0.063000000000
17.979864849000,0.072000000000
17.987551692000,0.085000000000
17.995238535000,0.097000000000
18.002925378000,0.111000000000
18.010612221000,0.131000000000
18.018299064000,0.145000000000
18.025985907000,0.160000000000
18.033672750000,0.175000000000
18.041359593000,0.187000000000
18.049046436000,0.197000000000
18.056733279000,0.204000000000
18.064420122000,0.206000000000
18.072106965000,0.209000000000
18.079793808000,0.201000000000
18.087480651000,0.187000000000
18.095167494000,0.158000000000
18.102854337000,0.114000000000
18.110541180000,0.058000000000
18.118228023000,0.000000000000
18.125914866000,-0.055000000000
18.133601709000,-0.104000000000
18.141288552000,-0.141000000000
18.148975395000,-0.158000000000
18.156662238000,-0.165000000000
18.164349081000,-0.170000000000
18.172035924000,-0.167000000000
18.179722767000,-0.163000000000
18.187409610000,-0.153000000000
18.195096453000,-0.145000000000
18.202783296000,-0.138000000000
18.210470139000,-0.131000000000
18.218156982000,-0.124000000000
18.225843825000,-0.119000000000
18.233530668000,-0.114000000000
18.241217511000,-0.109000000000
18.248904354000,-0.109000000000
18.256591197000,-0.109000000000
18.264278040000,-0.111000000000
18.271964883000,-0.114000000000
18.279651726000,-0.119000000000
18.287338569000,-0.119000000000
18.295025412000,-0.119000000000
18.302712255000,-0.119000000000
18.310399098000,-0.119000000000
18.318085955000,-0.121000000000
18.325772937000,-0.119000000000
18.333459919000,-0.116000000000
18.341146901000,-0.114000000000
18.348833883000,-0.114000000000
18.356520865000,-0.114000000000
18.364207847000,-0.111000000000
18.371894829000,-0.109000000000
18.379581811000,-0.109000000000
18.387268793000,-0.107000000000
18.394955775000,-0.104000000000
18.402642757000,-0.107000000000
18.410329739000,-0.104000000000
18.418016721000,-0.102000000000
18.425703703000,-0.099000000000
18.433390685000,-0.097000000000
18.441077667000,-0.094000000000
18.448764649000,-0.092000000000
18.456451631000,-0.090000000000
18.464138613000,-0.092000000000
18.471825595000,-0.092000000000
18.479512577000,-0.090000000000
18.487199559000,-0.090000000000
18.494886541000,-0.090000000000
18.502573523000,-0.090000000000
18.510260505000,-0.087000000000
18.517947487000,-0.085000000000
18.525634469000,-0.082000000000
18.533321451000,-0.085000000000
18.541008433000,-0.087000000000
18.548695415000,-0.087000000000
18.556382397000,-0.085000000000
18.564069379000,-0.082000000000
18.571756361000,-0.082000000000
18.579443343000,-0.082000000000
18.587130325000,-0.082000000000
18.594817307000,-0.085000000000
18.602504289000,-0.092000000000
18.610191271000,-0.099000000000
18.617878253000,-0.099000000000
18.625565235000,-0.094000000000
18.633252217000,-0.085000000000
18.640939199000,-0.072000000000
18.648626181000,-0.063000000000
18.656313163000,-0.051000000000
18.664000145000,-0.051000000000
18.671687127000,-0.075000000000
18.679374109000,-0.092000000000
18.687061091000,-0.090000000000
18.694748073000,-0.092000000000
18.702435055000,-0.099000000000
18.710122037000,-0.094000000000
18.717809019000,-0.094000000000
18.725496001000,-0.107000000000
18.733182983000,-0.150000000000
18.740869965000,-0.126000000000
18.748556947000,0.265000000000
18.756243929000,0.992000000000
18.763930911000,1.301000000000
18.771617893000,0.593000000000
18.779304875000,-0.467000000000
18.786991857000,-0.705000000000
18.794678839000,-0.345000000000
18.802365821000,-0.255000000000
18.810052803000,-0.277000000000
18.817739785000,-0.150000000000
18.825426767000,-0.114000000000
18.833113749000,-0.153000000000
18.840800731000,-0.128000000000
18.848487713000,-0.102000000000
18.856174695000,-0.107000000000
18.863861677000,-0.099000000000
18.871548659000,-0.087000000000
18.879235678000,-0.085000000000
18.886923357000,-0.080000000000
18.894611036000,-0.070000000000
18.902298715000,-0.065000000000
18.909986394000,-0.058000000000
18.917674073000,-0.051000000000
18.925361752000,-0.046000000000
18.933049431000,-0.038000000000
18.940737110000,-0.026000000000
18.948424789000,-0.017000000000
18.956112468000,-0.004000000000
18.963800147000,0.007000000000
18.971487826000,0.019000000000
18.979175505000,0.036000000000
18.986863184000,0.053000000000
18.994550863000,0.068000000000
19.002238542000,0.087000000000
19.009926221000,0.104000000000
19.017613900000,0.116000000000
19.025301579000,0.126000000000
19.032989258000,0.133000000000
19.040676937000,0.136000000000
19.048364616000,0.133000000000
19.056052295000,0.126000000000
19.063739974000,0.107000000000
19.071427653000,0.070000000000
19.079115332000,0.019000000000
19.086803011000,-0.034000000000
19.094490690000,-0.085000000000
19.102178369000,-0.133000000000
19.109866048000,-0.175000000000
19.117553727000,-0.199000000000
19.125241406000,-0.209000000000
19.132929085000,-0.216000000000
19.140616764000,-0.218000000000
19.148304443000,-0.216000000000
19.155992122000,-0.211000000000
19.163679801000,-0.206000000000
19.171367480000,-0.201000000000
19.179055159000,-0.197000000000
19.186742838000,-0.192000000000
19.194430517000,-0.187000000000
19.202118196000,-0.182000000000
19.209805875000,-0.180000000000
19.217493554000,-0.177000000000
19.225181233000,-0.177000000000
19.232868912000,-0.175000000000
19.240556591000,-0.172000000000
19.248244270000,-0.172000000000
19.255931949000,-0.172000000000
19.263619628000,-0.170000000000
19.271307307000,-0.170000000000
19.278994986000,-0.170000000000
19.286682665000,-0.170000000000
19.294370344000,-0.170000000000
19.302058023000,-0.167000000000
19.309745702000,-0.165000000000
19.317433381000,-0.163000000000
19.325121060000,-0.160000000000
19.332808739000,-0.155000000000
19.340496418000,-0.150000000000
19.348184097000,-0.148000000000
19.355871776000,-0.148000000000
19.363559455000,-0.143000000000
19.371247134000,-0.138000000000
19.378934813000,-0.136000000000
19.386622492000,-0.133000000000
19.394310171000,-0.131000000000
19.401997850000,-0.128000000000
19.409685529000,-0.126000000000
19.417373208000,-0.124000000000
19.425060887000,-0.121000000000
19.432748566000,-0.116000000000
19.440436267000,-0.111000000000
19.448122761000,-0.109000000000
19.455809255000,-0.109000000000
19.463495749000,-0.107000000000
19.471182243000,-0.104000000000
19.478868737000,-0.104000000000
19.486555231000,-0.102000000000
19.494241725000,-0.099000000000
19.501928219000,-0.097000000000
19.509614713000,-0.097000000000
19.517301207000,-0.094000000000
19.524987701000,-0.090000000000
19.532674195000,-0.090000000000
19.540360689000,-0.087000000000
19.548047183000,-0.085000000000
19.555733677000,-0.082000000000
19.563420171000,-0.082000000000
19.571106665000,-0.087000000000
19.578793159000,-0.094000000000
19.586479653000,-0.094000000000
19.594166147000,-0.092000000000
19.601852641000,-0.080000000000
19.609539135000,-0.065000000000
19.617225629000,-0.053000000000
19.624912123000,-0.038000000000
19.632598617000,-0.029000000000
19.640285111000,-0.043000000000
19.647971605000,-0.065000000000
19.655658099000,-0.070000000000
19.663344593000,-0.070000000000
19.671031087000,-0.070000000000
19.678717581000,-0.063000000000
19.686404075000,-0.063000000000
19.694090569000,-0.070000000000
19.701777063000,-0.099000000000
19.709463557000,-0.124000000000
19.717150051000,0.102000000000
19.724836545000,0.764000000000
19.732523039000,1.333000000000
19.740209533000,0.987000000000
19.747896027000,-0.087000000000
19.755582521000,-0.691000000000
19.763269015000,-0.428000000000
19.770955509000,-0.197000000000
19.778642003000,-0.240000000000
19.786328497000,-0.150000000000
19.794014991000,-0.060000000000
19.801701485000,-0.094000000000
19.809387979000,-0.092000000000
19.817074473000,-0.051000000000
19.824760967000,-0.048000000000
19.832447461000,-0.051000000000
19.840133955000,-0.031000000000
19.847820449000,-0.024000000000
19.855506943000,-0.021000000000
19.863193437000,-0.012000000000
19.870879931000,-0.002000000000
19.878566425000,0.002000000000
19.886252919000,0.009000000000
19.893939413000,0.019000000000
19.901625907000,0.026000000000
19.909312401000,0.036000000000
19.916998895000,0.048000000000
19.924685389000,0.060000000000
19.932371883000,0.075000000000
19.940058377000,0.085000000000
19.947744871000,0.097000000000
19.955431365000,0.114000000000
19.963117859000,0.131000000000
19.970804353000,0.150000000000
19.978490847000,0.170000000000
19.986177341000,0.184000000000
19.993863835000,0.194000000000
20.001550389000,0.201000000000
20.009237580000,0.206000000000
20.016924771000,0.206000000000
20.024611962000,0.199000000000
20.032299153000,0.187000000000
20.039986344000,0.158000000000
20.047673535000,0.114000000000
20.055360726000,0.065000000000
20.063047917000,0.009000000000
20.070735108000,-0.043000000000
20.078422299000,-0.085000000000
20.086109490000,-0.114000000000
20.093796681000,-0.131000000000
20.101483872000,-0.141000000000
20.109171063000,-0.143000000000
20.116858254000,-0.143000000000
20.124545445000,-0.141000000000
20.132232636000,-0.133000000000
20.139919827000,-0.128000000000
20.147607018000,-0.124000000000
20.155294209000,-0.119000000000
20.162981400000,-0.111000000000
20.170668591000,-0.107000000000
20.178355782000,-0.104000000000
20.186042973000,-0.104000000000
20.193730164000,-0.104000000000
20.201417355000,-0.099000000000
20.209104546000,-0.097000000000
20.216791737000,-0.097000000000
20.224478928000,-0.097000000000
20.232166119000,-0.092000000000
20.239853310000,-0.092000000000
20.247540501000,-0.094000000000
20.255227692000,-0.094000000000
20.262914883000,-0.094000000000
20.270602074000,-0.092000000000
20.278289265000,-0.092000000000
20.285976456000,-0.090000000000
20.293663647000,-0.085000000000
20.301350838000,-0.082000000000
20.309038029000,-0.077000000000
20.316725220000,-0.072000000000
20.324412411000,-0.072000000000
20.332099602000,-0.072000000000
20.339786793000,-0.070000000000
20.347473984000,-0.068000000000
20.355161175000,-0.068000000000
20.362848366000,-0.065000000000
20.370535557000,-0.060000000000
20.378222748000,-0.055000000000
20.385909939000,-0.053000000000
20.393597130000,-0.053000000000
20.401284321000,-0.051000000000
20.408971512000,-0.046000000000
20.416658703000,-0.041000000000
20.424345894000,-0.043000000000
20.432033085000,-0.043000000000
20.439720276000,-0.038000000000
20.447407467000,-0.036000000000
20.455094658000,-0.036000000000
20.462781849000,-0.034000000000
20.470469040000,-0.034000000000
20.478156231000,-0.029000000000
20.485843422000,-0.024000000000
20.493530613000,-0.029000000000
20.501217804000,-0.031000000000
20.508904995000,-0.024000000000
20.516592186000,-0.024000000000
20.524279377000,-0.026000000000
20.531966568000,-0.021000000000
20.539653759000,-0.019000000000
20.547340950000,-0.026000000000
20.555028141000,-0.031000000000
20.562715373000,-0.029000000000
20.570402076000,-0.029000000000
20.578088779000,-0.031000000000
20.585775482000,-0.029000000000
20.593462185000,-0.014000000000
20.601148888000,0.002000000000
20.608835591000,0.019000000000
20.616522294000,0.029000000000
20.624208997000,0.012000000000
20.631895700000,-0.014000000000
20.639582403000,-0.019000000000
20.647269106000,-0.014000000000
20.654955809000,-0.017000000000
20.662642512000,-0.017000000000
20.670329215000,-0.014000000000
20.678015918000,-0.021000000000
20.685702621000,-0.051000000000
20.693389324000,-0.053000000000
20.701076027000,0.231000000000
20.708762730000,0.927000000000
20.716449433000,1.396000000000
20.724136136000,0.878000000000
20.731822839000,-0.223000000000
20.739509542000,-0.671000000000
20.747196245000,-0.345000000000
20.754882948000,-0.175000000000
20.762569651000,-0.216000000000
20.770256354000,-0.097000000000
20.777943057000,-0.019000000000
20.785629760000,-0.055000000000
20.793316463000,-0.041000000000
20.801003166000,-0.004000000000
20.808689869000,-0.004000000000
20.816376572000,0.000000000000
20.824063275000,0.017000000000
20.831749978000,0.019000000000
20.839436681000,0.017000000000
20.847123384000,0.024000000000
20.854810087000,0.034000000000
20.862496790000,0.041000000000
20.870183493000,0.051000000000
20.877870196000,0.060000000000
20.885556899000,0.070000000000
20.893243602000,0.082000000000
20.900930305000,0.092000000000
20.908617008000,0.099000000000
20.916303711000,0.109000000000
20.923990414000,0.116000000000
20.931677117000,0.133000000000
20.939363820000,0.155000000000
20.947050523000,0.172000000000
20.954737226000,0.187000000000
20.962423929000,0.206000000000
20.970110632000,0.221000000000
20.977797335000,0.228000000000
20.985484038000,0.233000000000
20.993170741000,0.233000000000
21.000857444000,0.231000000000
21.008544147000,0.226000000000
21.016230850000,0.211000000000
21.023917553000,0.177000000000
21.031604256000,0.128000000000
21.039290959000,0.070000000000
21.046977662000,0.009000000000
21.054664365000,-0.043000000000
21.062351068000,-0.085000000000
21.070037771000,-0.116000000000
21.077724474000,-0.133000000000
21.085411177000,-0.143000000000
21.093097880000,-0.143000000000
21.100784583000,-0.141000000000
21.108471286000,-0.133000000000
21.116157989000,-0.126000000000
21.123844752000,-0.119000000000
21.131531873000,-0.114000000000
21.139218994000,-0.104000000000
21.146906115000,-0.097000000000
21.154593236000,-0.094000000000
21.162280357000,-0.090000000000
21.169967478000,-0.087000000000
21.177654599000,-0.090000000000
21.185341720000,-0.092000000000
21.193028841000,-0.094000000000
21.200715962000,-0.094000000000
21.208403083000,-0.094000000000
21.216090204000,-0.097000000000
21.223777325000,-0.097000000000
21.231464446000,-0.097000000000
21.239151567000,-0.099000000000
21.246838688000,-0.097000000000
21.254525809000,-0.094000000000
21.262212930000,-0.092000000000
21.269900051000,-0.090000000000
21.277587172000,-0.087000000000
21.285274293000,-0.085000000000
21.292961414000,-0.082000000000
21.300648535000,-0.080000000000
21.308335656000,-0.077000000000
21.316022777000,-0.077000000000
21.323709898000,-0.075000000000
21.331397019000,-0.072000000000
21.339084140000,-0.070000000000
21.346771261000,-0.065000000000
21.354458382000,-0.063000000000
21.362145503000,-0.063000000000
21.369832624000,-0.060000000000
21.377519745000,-0.055000000000
21.385206866000,-0.053000000000
21.392893987000,-0.053000000000
21.400581108000,-0.051000000000
21.408268229000,-0.046000000000
21.415955350000,-0.048000000000
21.423642471000,-0.048000000000
21.431329592000,-0.043000000000
21.439016713000,-0.041000000000
21.446703834000,-0.043000000000
21.454390955000,-0.041000000000
21.462078076000,-0.036000000000
21.469765197000,-0.036000000000
21.477452318000,-0.036000000000
21.485139439000,-0.034000000000
21.492826560000,-0.031000000000
21.500513681000,-0.034000000000
21.508200802000,-0.031000000000
21.515887923000,-0.031000000000
21.523575044000,-0.036000000000
21.531262165000,-0.041000000000
21.538949286000,-0.043000000000
21.546636407000,-0.041000000000
21.554323528000,-0.036000000000
21.562010649000,-0.029000000000
21.569697770000,-0.017000000000
21.577384891000,-0.002000000000
21.585072012000,0.009000000000
21.592759133000,0.009000000000
21.600446254000,-0.014000000000
21.608133375000,-0.029000000000
21.615820496000,-0.026000000000
21.623507617000,-0.029000000000
21.631194738000,-0.029000000000
21.638881859000,-0.024000000000
21.646568980000,-0.021000000000
21.654256101000,-0.036000000000
21.661943222000,-0.077000000000
21.669630343000,-0.041000000000
21.677317464000,0.374000000000
21.685004649000,1.092000000000
21.692691561000,1.330000000000
21.700378473000,0.562000000000
21.708065385000,-0.462000000000
21.715752297000,-0.625000000000
21.723439209000,-0.262000000000
21.731126121000,-0.194000000000
21.738813033000,-0.201000000000
21.746499945000,-0.065000000000
21.754186857000,-0.038000000000
21.761873769000,-0.075000000000
21.769560681000,-0.041000000000
21.777247593000,-0.014000000000
21.784934505000,-0.024000000000
21.792621417000,-0.017000000000
21.800308329000,-0.002000000000
21.807995241000,0.000000000000
21.815682153000,0.004000000000
21.823369065000,0.014000000000
21.831055977000,0.019000000000
21.838742889000,0.026000000000
21.846429801000,0.034000000000
21.854116713000,0.041000000000
21.861803625000,0.048000000000
21.869490537000,0.058000000000
21.877177449000,0.068000000000
21.884864361000,0.077000000000
21.892551273000,0.090000000000
21.900238185000,0.104000000000
21.907925097000,0.121000000000
21.915612009000,0.138000000000
21.923298921000,0.153000000000
21.930985833000,0.167000000000
21.938672745000,0.184000000000
21.946359657000,0.197000000000
21.954046569000,0.204000000000
21.961733481000,0.209000000000
21.969420393000,0.211000000000
21.977107305000,0.209000000000
21.984794217000,0.201000000000
21.992481129000,0.182000000000
22.000168041000,0.145000000000
22.007854953000,0.097000000000
22.015541865000,0.041000000000
22.023228777000,-0.014000000000
22.030915689000,-0.060000000000
22.038602601000,-0.097000000000
22.046289513000,-0.121000000000
22.053976425000,-0.136000000000
22.061663337000,-0.141000000000
22.069350249000,-0.141000000000
22.077037161000,-0.141000000000
22.084724073000,-0.136000000000
22.092410985000,-0.131000000000
22.100097897000,-0.126000000000
22.107784809000,-0.121000000000
22.115471721000,-0.116000000000
22.123158633000,-0.111000000000
22.130845545000,-0.109000000000
22.138532457000,-0.104000000000
22.146219369000,-0.102000000000
22.153906281000,-0.102000000000
22.161593193000,-0.099000000000
22.169280105000,-0.099000000000
22.176967017000,-0.102000000000
22.184653929000,-0.102000000000
22.192340841000,-0.102000000000
22.200027753000,-0.102000000000
22.207714665000,-0.102000000000
22.215401577000,-0.104000000000
22.223088489000,-0.102000000000
22.230775401000,-0.099000000000
22.238462313000,-0.097000000000
22.246149289000,-0.094000000000
22.253836201000,-0.092000000000
22.261523113000,-0.094000000000
22.269210025000,-0.092000000000
22.276896937000,-0.090000000000
22.284583849000,-0.087000000000
22.292270761000,-0.087000000000
22.299957673000,-0.085000000000
22.307644585000,-0.082000000000
22.315331497000,-0.080000000000
22.323018409000,-0.077000000000
22.330705321000,-0.075000000000
22.338392233000,-0.072000000000
22.346079145000,-0.072000000000
22.353766057000,-0.070000000000
22.361452969000,-0.065000000000
22.369139881000,-0.063000000000
22.376826793000,-0.060000000000
22.384513705000,-0.060000000000
22.392200617000,-0.058000000000
22.399887529000,-0.058000000000
22.407574441000,-0.055000000000
22.415261353000,-0.053000000000
22.422948265000,-0.053000000000
22.430635177000,-0.053000000000
22.438322089000,-0.048000000000
22.446009001000,-0.048000000000
22.453695913000,-0.048000000000
22.461382825000,-0.046000000000
22.469069737000,-0.046000000000
22.476756649000,-0.048000000000
22.484443561000,-0.043000000000
22.492130473000,-0.041000000000
22.499817385000,-0.046000000000
22.507504297000,-0.046000000000
22.515191209000,-0.041000000000
22.522878121000,-0.041000000000
22.530565033000,-0.043000000000
22.538251945000,-0.041000000000
22.545938857000,-0.038000000000
22.553625769000,-0.041000000000
22.561312681000,-0.041000000000
22.568999593000,-0.038000000000
22.576686505000,-0.036000000000
22.584373417000,-0.036000000000
22.592060329000,-0.036000000000
22.599747241000,-0.036000000000
22.607434153000,-0.034000000000
22.615121065000,-0.034000000000
22.622807977000,-0.034000000000
22.630494889000,-0.034000000000
22.638181801000,-0.029000000000
22.645868713000,-0.031000000000
22.653555625000,-0.036000000000
22.661242537000,-0.043000000000
22.668929449000,-0.046000000000
22.676616361000,-0.041000000000
22.684303273000,-0.038000000000
22.691990185000,-0.029000000000
22.699677097000,-0.014000000000
22.707364009000,-0.002000000000
22.715050921000,0.009000000000
22.722737833000,0.000000000000
22.730424745000,-0.024000000000
22.738111657000,-0.034000000000
22.745798569000,-0.029000000000
22.753485481000,-0.034000000000
22.761172393000,-0.034000000000
22.768859305000,-0.029000000000
22.776546217000,-0.031000000000
22.784233129000,-0.055000000000
22.791920041000,-0.104000000000
22.799606953000,0.000000000000
22.807293925000,0.537000000000
22.814981046000,1.233000000000
22.822668167000,1.265000000000
22.830355288000,0.362000000000
22.838042409000,-0.532000000000
22.845729530000,-0.520000000000
22.853416651000,-0.197000000000
22.861103772000,-0.201000000000
22.868790893000,-0.184000000000
22.876478014000,-0.065000000000
22.884165135000,-0.070000000000
22.891852256000,-0.094000000000
22.899539377000,-0.055000000000
22.907226498000,-0.041000000000
22.914913619000,-0.048000000000
22.922600740000,-0.036000000000
22.930287861000,-0.021000000000
22.937974982000,-0.021000000000
22.945662103000,-0.017000000000
22.953349224000,-0.004000000000
22.961036345000,0.002000000000
22.968723466000,0.007000000000
22.976410587000,0.014000000000
22.984097708000,0.021000000000
22.991784829000,0.031000000000
22.999471950000,0.041000000000
23.007159071000,0.048000000000
23.014846192000,0.060000000000
23.022533313000,0.070000000000
23.030220434000,0.082000000000
23.037907555000,0.094000000000
23.045594676000,0.107000000000
23.053281797000,0.121000000000
23.060968918000,0.133000000000
23.068656039000,0.145000000000
23.076343160000,0.155000000000
23.084030281000,0.165000000000
23.091717402000,0.167000000000
23.099404523000,0.170000000000
23.107091644000,0.170000000000
23.114778765000,0.165000000000
23.122465886000,0.153000000000
23.130153007000,0.131000000000
23.137840128000,0.097000000000
23.145527249000,0.051000000000
23.153214370000,0.004000000000
23.160901491000,-0.038000000000
23.168588612000,-0.072000000000
23.176275733000,-0.099000000000
23.183962854000,-0.116000000000
23.191649975000,-0.126000000000
23.199337096000,-0.133000000000
23.207024217000,-0.133000000000
23.214711338000,-0.131000000000
23.222398459000,-0.128000000000
23.230085580000,-0.124000000000
23.237772701000,-0.119000000000
23.245459822000,-0.116000000000
23.253146943000,-0.111000000000
23.260834064000,-0.111000000000
23.268521185000,-0.109000000000
23.276208306000,-0.107000000000
23.283895427000,-0.107000000000
23.291582548000,-0.109000000000
23.299269669000,-0.107000000000
23.306956790000,-0.107000000000
23.314643911000,-0.109000000000
23.322331032000,-0.109000000000
23.330018153000,-0.109000000000
23.337705274000,-0.111000000000
23.345392395000,-0.111000000000
23.353079516000,-0.109000000000
23.360766637000,-0.109000000000
23.368453822000,-0.107000000000
23.376140943000,-0.104000000000
23.383828064000,-0.102000000000
23.391515185000,-0.102000000000
23.399202306000,-0.099000000000
23.406889427000,-0.097000000000
23.414576548000,-0.094000000000
23.422263669000,-0.092000000000
23.429950790000,-0.090000000000
23.437637911000,-0.087000000000
23.445325032000,-0.085000000000
23.453012153000,-0.082000000000
23.460699274000,-0.080000000000
23.468386395000,-0.080000000000
23.476073516000,-0.075000000000
23.483760637000,-0.072000000000
23.491447758000,-0.070000000000
23.499134879000,-0.068000000000
23.506822000000,-0.065000000000
23.514509121000,-0.065000000000
23.522196242000,-0.065000000000
23.529883363000,-0.065000000000
23.537570484000,-0.063000000000
23.545257605000,-0.060000000000
23.552944726000,-0.060000000000
23.560631847000,-0.058000000000
23.568318968000,-0.055000000000
23.576006089000,-0.053000000000
23.583693210000,-0.053000000000
23.591380331000,-0.051000000000
23.599067452000,-0.051000000000
23.606754573000,-0.051000000000
23.614441694000,-0.048000000000
23.622128815000,-0.046000000000
23.629815936000,-0.046000000000
23.637503057000,-0.043000000000
23.645190178000,-0.041000000000
23.652877299000,-0.041000000000
23.660564420000,-0.041000000000
23.668251541000,-0.041000000000
23.675938662000,-0.038000000000
23.683625783000,-0.038000000000
23.691312904000,-0.036000000000
23.699000025000,-0.036000000000
23.706687146000,-0.036000000000
23.714374267000,-0.036000000000
23.722061388000,-0.036000000000
23.729748509000,-0.034000000000
23.737435630000,-0.034000000000
23.745122751000,-0.034000000000
23.752809872000,-0.041000000000
23.760496993000,-0.048000000000
23.768184114000,-0.048000000000
23.775871235000,-0.046000000000
23.783558356000,-0.041000000000
23.791245477000,-0.029000000000
23.798932598000,-0.014000000000
23.806619719000,-0.002000000000
23.814306840000,0.007000000000
23.821993961000,-0.007000000000
23.829681082000,-0.031000000000
23.837368203000,-0.034000000000
23.845055324000,-0.031000000000
23.852742445000,-0.036000000000
23.860429566000,-0.034000000000
23.868116687000,-0.029000000000
23.875803808000,-0.036000000000
23.883490929000,-0.068000000000
23.891178050000,-0.094000000000
23.898865171000,0.124000000000
23.906552292000,0.773000000000
23.914239413000,1.333000000000
23.921926534000,1.021000000000
23.929613719000,-0.019000000000
23.937300840000,-0.647000000000
23.944987961000,-0.413000000000
23.952675082000,-0.177000000000
23.960362203000,-0.221000000000
23.968049324000,-0.138000000000
23.975736445000,-0.048000000000
23.983423566000,-0.080000000000
23.991110687000,-0.080000000000
23.998797808000,-0.041000000000
24.006484929000,-0.038000000000
24.014172050000,-0.041000000000
24.021859171000,-0.021000000000
24.029546292000,-0.017000000000
24.037233413000,-0.017000000000
24.044920534000,-0.007000000000
24.052607655000,0.002000000000
24.060294776000,0.007000000000
24.067981897000,0.014000000000
24.075669018000,0.024000000000
24.083356139000,0.034000000000
24.091043260000,0.041000000000
24.098730381000,0.051000000000
24.106417502000,0.060000000000
24.114104623000,0.075000000000
24.121791744000,0.085000000000
24.129478865000,0.094000000000
24.137165986000,0.109000000000
24.144853107000,0.124000000000
24.152540228000,0.138000000000
24.160227349000,0.153000000000
24.167914470000,0.165000000000
24.175601591000,0.172000000000
24.183288712000,0.177000000000
24.190975833000,0.180000000000
24.198662954000,0.177000000000
24.206350075000,0.175000000000
24.214037196000,0.167000000000
24.221724317000,0.148000000000
24.229411438000,0.114000000000
24.237098559000,0.070000000000
24.244785680000,0.021000000000
24.252472801000,-0.024000000000
24.260159922000,-0.068000000000
24.267847043000,-0.099000000000
24.275534164000,-0.124000000000
24.283221285000,-0.136000000000
24.290908406000,-0.143000000000
24.298595527000,-0.143000000000
24.306282648000,-0.138000000000
24.313969769000,-0.136000000000
24.321656890000,-0.131000000000
24.329344011000,-0.124000000000
24.337031132000,-0.121000000000
24.344718253000,-0.116000000000
24.352405374000,-0.111000000000
24.360092495000,-0.111000000000
24.367779616000,-0.109000000000
24.375466737000,-0.107000000000
24.383153858000,-0.107000000000
24.390840979000,-0.107000000000
24.398528100000,-0.104000000000
24.406215221000,-0.107000000000
24.413902342000,-0.111000000000
24.421589463000,-0.111000000000
24.429276584000,-0.111000000000
24.436963705000,-0.111000000000
24.444650826000,-0.111000000000
24.452337947000,-0.109000000000
24.460025068000,-0.107000000000
24.467712189000,-0.107000000000
24.475399310000,-0.104000000000
24.483086431000,-0.104000000000
24.490773620000,-0.102000000000
24.498460463000,-0.099000000000
24.506147306000,-0.097000000000
24.513834149000,-0.092000000000
24.521520992000,-0.092000000000
24.529207835000,-0.092000000000
24.536894678000,-0.090000000000
24.544581521000,-0.087000000000
24.552268364000,-0.085000000000
24.559955207000,-0.082000000000
24.567642050000,-0.080000000000
24.575328893000,-0.077000000000
24.583015736000,-0.072000000000
24.590702579000,-0.072000000000
24.598389422000,-0.070000000000
24.606076265000,-0.068000000000
24.613763108000,-0.065000000000
24.621449951000,-0.065000000000
24.629136794000,-0.063000000000
24.636823637000,-0.060000000000
24.644510480000,-0.058000000000
24.652197323000,-0.055000000000
24.659884166000,-0.055000000000
24.667571009000,-0.053000000000
24.675257852000,-0.053000000000
24.682944695000,-0.053000000000
24.690631538000,-0.048000000000
24.698318381000,-0.046000000000
24.706005224000,-0.048000000000
24.713692067000,-0.046000000000
24.721378910000,-0.043000000000
24.729065753000,-0.043000000000
24.736752596000,-0.043000000000
24.744439439000,-0.041000000000
24.752126282000,-0.043000000000
24.759813125000,-0.043000000000
24.767499968000,-0.041000000000
24.775186811000,-0.038000000000
24.782873654000,-0.038000000000
24.790560497000,-0.043000000000
24.798247340000,-0.051000000000
24.805934183000,-0.051000000000
24.813621026000,-0.051000000000
24.821307869000,-0.046000000000
24.828994712000,-0.031000000000
24.836681555000,-0.019000000000
24.844368398000,-0.007000000000
24.852055241000,0.004000000000
24.859742084000,-0.009000000000
24.867428927000,-0.038000000000
24.875115770000,-0.038000000000
24.882802613000,-0.036000000000
24.890489456000,-0.041000000000
24.898176299000,-0.038000000000
24.905863142000,-0.031000000000
24.913549985000,-0.038000000000
24.921236828000,-0.070000000000
24.928923671000,-0.094000000000
24.936610514000,0.126000000000
24.944297357000,0.768000000000
24.951984200000,1.318000000000
24.959671043000,0.987000000000
24.967357886000,-0.063000000000
24.975044729000,-0.671000000000
24.982731572000,-0.425000000000
24.990418415000,-0.192000000000
24.998105258000,-0.226000000000
25.005792101000,-0.133000000000
25.013478944000,-0.041000000000
25.021165787000,-0.075000000000
25.028852630000,-0.072000000000
25.036539473000,-0.034000000000
25.044226316000,-0.036000000000
25.051913173000,-0.036000000000
25.059600155000,-0.014000000000
25.067287137000,-0.009000000000
25.074974119000,-0.009000000000
25.082661101000,-0.002000000000
25.090348083000,0.007000000000
25.098035065000,0.012000000000
25.105722047000,0.021000000000
25.113409029000,0.031000000000
25.121096011000,0.038000000000
25.128782993000,0.046000000000
25.136469975000,0.053000000000
25.144156957000,0.063000000000
25.151843939000,0.075000000000
25.159530921000,0.085000000000
25.167217903000,0.099000000000
25.174904885000,0.114000000000
25.182591867000,0.126000000000
25.190278849000,0.141000000000
25.197965831000,0.158000000000
25.205652813000,0.170000000000
25.213339795000,0.175000000000
25.221026777000,0.182000000000
25.228713759000,0.184000000000
25.236400741000,0.182000000000
25.244087723000,0.175000000000
25.251774705000,0.163000000000
25.259461687000,0.141000000000
25.267148669000,0.104000000000
25.274835651000,0.055000000000
25.282522633000,0.002000000000
25.290209615000,-0.048000000000
25.297896597000,-0.090000000000
25.305583579000,-0.121000000000
25.313270561000,-0.143000000000
25.320957543000,-0.155000000000
25.328644525000,-0.160000000000
25.336331507000,-0.160000000000
25.344018489000,-0.158000000000
25.351705471000,-0.153000000000
25.359392453000,-0.145000000000
25.367079435000,-0.141000000000
25.374766417000,-0.136000000000
25.382453399000,-0.133000000000
25.390140381000,-0.131000000000
25.397827363000,-0.126000000000
25.405514345000,-0.126000000000
25.413201327000,-0.126000000000
25.420888309000,-0.128000000000
25.428575291000,-0.128000000000
25.436262273000,-0.131000000000
25.443949255000,-0.136000000000
25.451636237000,-0.138000000000
25.459323219000,-0.138000000000
25.467010201000,-0.141000000000
25.474697183000,-0.141000000000
25.482384165000,-0.138000000000
25.490071147000,-0.136000000000
25.497758129000,-0.133000000000
25.505445111000,-0.136000000000
25.513132093000,-0.138000000000
25.520819075000,-0.133000000000
25.528506057000,-0.131000000000
25.536193039000,-0.131000000000
25.543880021000,-0.131000000000
25.551567003000,-0.126000000000
25.559253985000,-0.128000000000
25.566940967000,-0.128000000000
25.574627949000,-0.124000000000
25.582314931000,-0.121000000000
25.590001913000,-0.119000000000
25.597688895000,-0.121000000000
25.605375877000,-0.121000000000
25.613062896000,-0.119000000000
25.620750017000,-0.114000000000
25.628437138000,-0.114000000000
25.636124259000,-0.111000000000
25.643811380000,-0.109000000000
25.651498501000,-0.109000000000
25.659185622000,-0.109000000000
25.666872743000,-0.109000000000
25.674559864000,-0.109000000000
25.682246985000,-0.111000000000
25.689934106000,-0.109000000000
25.697621227000,-0.107000000000
25.705308348000,-0.109000000000
25.712995469000,-0.119000000000
25.720682590000,-0.121000000000
25.728369711000,-0.116000000000
25.736056832000,-0.109000000000
25.743743953000,-0.097000000000
25.751431074000,-0.085000000000
25.759118195000,-0.070000000000
25.766805316000,-0.063000000000
25.774492437000,-0.077000000000
25.782179558000,-0.102000000000
25.789866679000,-0.107000000000
25.797553800000,-0.107000000000
25.805240921000,-0.114000000000
25.812928042000,-0.109000000000
25.820615163000,-0.097000000000
25.828302284000,-0.102000000000
25.835989405000,-0.126000000000
25.843676526000,-0.128000000000
25.851363647000,0.107000000000
25.859050768000,0.754000000000
25.866737889000,1.262000000000
25.874425010000,0.810000000000
25.882112131000,-0.304000000000
25.889799252000,-0.815000000000
25.897486373000,-0.498000000000
25.905173494000,-0.289000000000
25.912860615000,-0.321000000000
25.920547736000,-0.192000000000
25.928234857000,-0.087000000000
25.935921978000,-0.128000000000
25.943609099000,-0.124000000000
25.951296220000,-0.075000000000
25.958983341000,-0.075000000000
25.966670462000,-0.080000000000
25.974357583000,-0.065000000000
25.982044704000,-0.058000000000
25.989731825000,-0.055000000000
25.997418946000,-0.046000000000
26.005106067000,-0.034000000000
26.012793188000,-0.026000000000
26.020480309000,-0.021000000000
26.028167430000,-0.012000000000
26.035854551000,-0.002000000000
26.043541672000,0.007000000000
26.051228793000,0.017000000000
26.058915914000,0.026000000000
26.066603035000,0.036000000000
26.074290156000,0.051000000000
26.081977277000,0.072000000000
26.089664398000,0.092000000000
26.097351519000,0.107000000000
26.105038640000,0.124000000000
26.112725761000,0.138000000000
26.120412882000,0.150000000000
26.128100003000,0.163000000000
26.135787124000,0.167000000000
26.143474245000,0.165000000000
26.151161366000,0.163000000000
26.158848487000,0.155000000000
26.166535608000,0.133000000000
26.174222793000,0.092000000000
26.181909845000,0.036000000000
26.189596897000,-0.024000000000
26.197283949000,-0.087000000000
26.204971001000,-0.143000000000
26.212658053000,-0.184000000000
26.220345105000,-0.209000000000
26.228032157000,-0.226000000000
26.235719209000,-0.233000000000
26.243406261000,-0.231000000000
26.251093313000,-0.226000000000
26.258780365000,-0.218000000000
26.266467417000,-0.209000000000
26.274154469000,-0.192000000000
26.281841521000,-0.182000000000
26.289528573000,-0.180000000000
26.297215625000,-0.177000000000
26.304902677000,-0.175000000000
26.312589729000,-0.170000000000
26.320276781000,-0.163000000000
26.327963833000,-0.165000000000
26.335650885000,-0.172000000000
26.343337937000,-0.175000000000
26.351024989000,-0.170000000000
26.358712041000,-0.167000000000
26.366399093000,-0.167000000000
26.374086145000,-0.170000000000
26.381773197000,-0.170000000000
26.389460249000,-0.167000000000
26.397147301000,-0.167000000000
26.404834353000,-0.165000000000
26.412521405000,-0.160000000000
26.420208457000,-0.155000000000
26.427895509000,-0.153000000000
26.435582561000,-0.155000000000
26.443269613000,-0.155000000000
26.450956665000,-0.153000000000
26.458643717000,-0.148000000000
26.466330769000,-0.141000000000
26.474017821000,-0.138000000000
26.481704873000,-0.138000000000
26.489391925000,-0.136000000000
26.497078977000,-0.133000000000
26.504766029000,-0.128000000000
26.512453081000,-0.124000000000
26.520140133000,-0.124000000000
26.527827185000,-0.124000000000
26.535514237000,-0.126000000000
26.543201289000,-0.128000000000
26.550888341000,-0.126000000000
26.558575393000,-0.124000000000
26.566262445000,-0.114000000000
26.573949497000,-0.099000000000
26.581636549000,-0.085000000000
26.589323601000,-0.068000000000
26.597010653000,-0.060000000000
26.604697705000,-0.085000000000
26.612384757000,-0.104000000000
26.620071809000,-0.099000000000
26.627758861000,-0.099000000000
26.635445913000,-0.102000000000
26.643132965000,-0.092000000000
26.650820017000,-0.090000000000
26.658507069000,-0.097000000000
26.666194121000,-0.116000000000
26.673881173000,-0.051000000000
26.681568225000,0.360000000000
26.689255277000,1.046000000000
26.696942329000,1.177000000000
26.704629381000,0.255000000000
26.712316433000,-0.739000000000
26.720003485000,-0.742000000000
26.727690537000,-0.355000000000
26.735377607000,-0.316000000000
26.743064380000,-0.265000000000
26.750751153000,-0.075000000000
26.758437926000,-0.048000000000
26.766124699000,-0.082000000000
26.773811472000,-0.041000000000
26.781498245000,-0.019000000000
26.789185018000,-0.031000000000
26.796871791000,-0.019000000000
26.804558564000,-0.002000000000
26.812245337000,0.000000000000
26.819932110000,0.004000000000
26.827618883000,0.014000000000
26.835305656000,0.019000000000
26.842992429000,0.029000000000
26.850679202000,0.043000000000
26.858365975000,0.055000000000
26.866052748000,0.060000000000
26.873739521000,0.072000000000
26.881426294000,0.085000000000
26.889113067000,0.094000000000
26.896799840000,0.107000000000
26.904486613000,0.124000000000
26.912173386000,0.141000000000
26.919860159000,0.160000000000
26.927546932000,0.177000000000
26.935233705000,0.194000000000
26.942920478000,0.211000000000
26.950607251000,0.228000000000
26.958294024000,0.233000000000
26.965980797000,0.238000000000
26.973667570000,0.240000000000
26.981354343000,0.233000000000
26.989041116000,0.214000000000
26.996727889000,0.180000000000
27.004414662000,0.126000000000
27.012101435000,0.058000000000
27.019788208000,-0.009000000000
27.027474981000,-0.068000000000
27.035161754000,-0.116000000000
27.042848527000,-0.148000000000
27.050535300000,-0.167000000000
27.058222073000,-0.175000000000
27.065908846000,-0.170000000000
27.073595619000,-0.167000000000
27.081282392000,-0.163000000000
27.088969165000,-0.150000000000
27.096655938000,-0.138000000000
27.104342711000,-0.128000000000
27.112029484000,-0.119000000000
27.119716257000,-0.111000000000
27.127403030000,-0.109000000000
27.135089803000,-0.104000000000
27.142776576000,-0.104000000000
27.150463349000,-0.104000000000
27.158150122000,-0.104000000000
27.165836895000,-0.104000000000
27.173523668000,-0.107000000000
27.181210441000,-0.107000000000
27.188897214000,-0.104000000000
27.196583987000,-0.107000000000
27.204270760000,-0.107000000000
27.211957533000,-0.107000000000
27.219644306000,-0.107000000000
27.227331079000,-0.104000000000
27.235017852000,-0.099000000000
27.242704625000,-0.097000000000
27.250391398000,-0.097000000000
27.258078171000,-0.092000000000
27.265764944000,-0.090000000000
27.273451717000,-0.087000000000
27.281138490000,-0.085000000000
27.288825263000,-0.082000000000
27.296512069000,-0.080000000000
27.304199190000,-0.075000000000
27.311886311000,-0.072000000000
27.319573432000,-0.070000000000
27.327260553000,-0.068000000000
27.334947674000,-0.065000000000
27.342634795000,-0.063000000000
27.350321916000,-0.060000000000
27.358009037000,-0.060000000000
27.365696158000,-0.065000000000
27.373383279000,-0.070000000000
27.381070400000,-0.070000000000
27.388757521000,-0.063000000000
27.396444642000,-0.055000000000
27.404131763000,-0.043000000000
27.411818884000,-0.029000000000
27.419506005000,-0.012000000000
27.427193126000,-0.002000000000
27.434880247000,-0.014000000000
27.442567368000,-0.038000000000
27.450254489000,-0.046000000000
27.457941610000,-0.041000000000
27.465628731000,-0.043000000000
27.473315852000,-0.041000000000
27.481002973000,-0.036000000000
27.488690094000,-0.038000000000
27.496377215000,-0.060000000000
27.504064336000,-0.097000000000
27.511751457000,0.036000000000
27.519438578000,0.613000000000
27.527125699000,1.289000000000
27.534812820000,1.182000000000
27.542499941000,0.153000000000
27.550187062000,-0.654000000000
27.557874183000,-0.501000000000
27.565561304000,-0.189000000000
27.573248425000,-0.209000000000
27.580935546000,-0.153000000000
27.588622667000,-0.034000000000
27.596309788000,-0.053000000000
27.603996909000,-0.072000000000
27.611684030000,-0.029000000000
27.619371151000,-0.019000000000
27.627058272000,-0.024000000000
27.634745393000,-0.009000000000
27.642432514000,0.000000000000
27.650119635000,0.004000000000
27.657806756000,0.012000000000
27.665493877000,0.019000000000
27.673180998000,0.026000000000
27.680868119000,0.036000000000
27.688555240000,0.043000000000
27.696242361000,0.048000000000
27.703929482000,0.058000000000
27.711616603000,0.070000000000
27.719303724000,0.080000000000
27.726990845000,0.092000000000
27.734677966000,0.104000000000
27.742365087000,0.119000000000
27.750052208000,0.136000000000
27.757739329000,0.155000000000
27.765426450000,0.172000000000
27.773113571000,0.187000000000
27.780800692000,0.201000000000
27.788487813000,0.214000000000
27.796174934000,0.218000000000
27.803862055000,0.221000000000
27.811549176000,0.218000000000
27.819236297000,0.209000000000
27.826923418000,0.192000000000
27.834610539000,0.158000000000
27.842297660000,0.109000000000
27.849984781000,0.055000000000
27.857671970000,0.000000000000
27.865359091000,-0.048000000000
27.873046212000,-0.085000000000
27.880733333000,-0.109000000000
27.888420454000,-0.124000000000
27.896107575000,-0.131000000000
27.903794696000,-0.133000000000
27.911481817000,-0.131000000000
27.919168938000,-0.128000000000
27.926856059000,-0.124000000000
27.934543180000,-0.119000000000
27.942230301000,-0.116000000000
27.949917422000,-0.111000000000
27.957604543000,-0.109000000000
27.965291664000,-0.107000000000
27.972978785000,-0.107000000000
27.980665906000,-0.104000000000
27.988353027000,-0.102000000000
27.996040148000,-0.102000000000
28.003727269000,-0.099000000000
28.011414390000,-0.099000000000
28.019101511000,-0.102000000000
28.026788632000,-0.102000000000
28.034475753000,-0.102000000000
28.042162874000,-0.102000000000
28.049849995000,-0.102000000000
28.057537116000,-0.097000000000
28.065224237000,-0.097000000000
28.072911358000,-0.097000000000
28.080598479000,-0.097000000000
28.088285600000,-0.092000000000
28.095972721000,-0.090000000000
28.103659842000,-0.087000000000
28.111346963000,-0.085000000000
28.119034084000,-0.082000000000
28.126721205000,-0.080000000000
28.134408326000,-0.077000000000
28.142095447000,-0.075000000000
28.149782568000,-0.072000000000
28.157469689000,-0.070000000000
28.165156810000,-0.068000000000
28.172843931000,-0.065000000000
28.180531052000,-0.063000000000
28.188218173000,-0.060000000000
28.195905294000,-0.060000000000
28.203592415000,-0.058000000000
28.211279536000,-0.053000000000
28.218966657000,-0.053000000000
28.226653778000,-0.051000000000
28.234340899000,-0.051000000000
28.242028020000,-0.048000000000
28.249715141000,-0.048000000000
28.257402262000,-0.046000000000
28.265089383000,-0.046000000000
28.272776504000,-0.043000000000
28.280463625000,-0.041000000000
28.288150746000,-0.041000000000
28.295837867000,-0.041000000000
28.303524988000,-0.041000000000
28.311212109000,-0.036000000000
28.318899230000,-0.036000000000
28.326586351000,-0.036000000000
28.334273472000,-0.036000000000
28.341960593000,-0.034000000000
28.349647714000,-0.034000000000
28.357334835000,-0.034000000000
28.365021956000,-0.038000000000
28.372709077000,-0.043000000000
28.380396198000,-0.048000000000
28.388083319000,-0.046000000000
28.395770440000,-0.043000000000
28.403457561000,-0.034000000000
28.411144682000,-0.019000000000
28.418831867000,-0.009000000000
28.426518779000,0.002000000000
28.434205691000,0.007000000000
28.441892603000,-0.012000000000
28.449579515000,-0.031000000000
28.457266427000,-0.031000000000
28.464953339000,-0.031000000000
28.472640251000,-0.034000000000
28.480327163000,-0.031000000000
28.488014075000,-0.029000000000
28.495700987000,-0.041000000000
28.503387899000,-0.080000000000
28.511074811000,-0.092000000000
28.518761723000,0.199000000000
28.526448635000,0.902000000000
28.534135547000,1.384000000000
28.541822459000,0.907000000000
28.549509371000,-0.175000000000
28.557196283000,-0.654000000000
28.564883195000,-0.347000000000
28.572570107000,-0.175000000000
28.580257019000,-0.226000000000
28.587943931000,-0.124000000000
28.595630843000,-0.055000000000
28.603317755000,-0.094000000000
28.611004667000,-0.082000000000
28.618691579000,-0.046000000000
28.626378491000,-0.051000000000
28.634065403000,-0.048000000000
28.641752315000,-0.031000000000
28.649439227000,-0.029000000000
28.657126139000,-0.026000000000
28.664813051000,-0.017000000000
28.672499963000,-0.009000000000
28.680186875000,-0.004000000000
28.687873787000,0.000000000000
28.695560699000,0.009000000000
28.703247611000,0.019000000000
28.710934523000,0.026000000000
28.718621435000,0.034000000000
28.726308347000,0.043000000000
28.733995259000,0.055000000000
28.741682171000,0.068000000000
28.749369083000,0.077000000000
28.757055995000,0.090000000000
28.764742907000,0.104000000000
28.772429819000,0.116000000000
28.780116731000,0.131000000000
28.787803643000,0.143000000000
28.795490555000,0.150000000000
28.803177467000,0.153000000000
28.810864379000,0.155000000000
28.818551291000,0.155000000000
28.826238203000,0.155000000000
28.833925115000,0.143000000000
28.841612027000,0.121000000000
28.849298939000,0.085000000000
28.856985851000,0.038000000000
28.864672763000,-0.014000000000
28.872359675000,-0.058000000000
28.880046587000,-0.094000000000
28.887733499000,-0.126000000000
28.895420411000,-0.145000000000
28.903107323000,-0.158000000000
28.910794235000,-0.163000000000
28.918481147000,-0.163000000000
28.926168059000,-0.160000000000
28.933854971000,-0.158000000000
28.941541883000,-0.153000000000
28.949228795000,-0.150000000000
28.956915707000,-0.148000000000
28.964602619000,-0.148000000000
28.972289531000,-0.143000000000
28.979976507000,-0.143000000000
28.987663419000,-0.141000000000
28.995350331000,-0.141000000000
29.003037243000,-0.141000000000
29.010724155000,-0.143000000000
29.018411067000,-0.145000000000
29.026097979000,-0.143000000000
29.033784891000,-0.145000000000
29.041471803000,-0.145000000000
29.049158715000,-0.145000000000
29.056845627000,-0.145000000000
29.064532539000,-0.145000000000
29.072219451000,-0.145000000000
29.079906363000,-0.145000000000
29.087593275000,-0.143000000000
29.095280187000,-0.143000000000
29.102967099000,-0.138000000000
29.110654011000,-0.136000000000
29.118340923000,-0.136000000000
29.126027835000,-0.133000000000
29.133714747000,-0.128000000000
29.141401659000,-0.128000000000
29.149088571000,-0.126000000000
29.156775483000,-0.121000000000
29.164462395000,-0.119000000000
29.172149307000,-0.116000000000
29.179836219000,-0.114000000000
29.187523131000,-0.114000000000
29.195210043000,-0.111000000000
29.202896955000,-0.111000000000
29.210583867000,-0.107000000000
29.218270779000,-0.104000000000
29.225957691000,-0.104000000000
29.233644603000,-0.099000000000
29.241331515000,-0.097000000000
29.249018427000,-0.097000000000
29.256705339000,-0.094000000000
29.264392251000,-0.092000000000
29.272079163000,-0.094000000000
29.279766075000,-0.092000000000
29.287452987000,-0.090000000000
29.295139899000,-0.090000000000
29.302826811000,-0.087000000000
29.310513723000,-0.085000000000
29.318200635000,-0.080000000000
29.325887547000,-0.080000000000
29.333574459000,-0.080000000000
29.341261371000,-0.080000000000
