time,LSB
0.000000000000,0.788000000000
0.007687539000,1.084000000000
0.015375078000,0.627000000000
0.023062617000,-0.141000000000
0.030750156000,-0.401000000000
0.038437695000,-0.194000000000
0.046125234000,-0.139000000000
0.053812773000,-0.182000000000
0.061500312000,-0.093000000000
0.069187851000,-0.048000000000
0.076875390000,-0.079000000000
0.084562929000,-0.062000000000
0.092250468000,-0.033000000000
0.099938007000,-0.036000000000
0.107625546000,-0.028000000000
0.115313085000,-0.014000000000
0.123000696000,-0.009000000000
0.130687887000,-0.004000000000
0.138375078000,0.002000000000
0.146062269000,0.009000000000
0.153749460000,0.016000000000
0.161436651000,0.024000000000
0.169123842000,0.031000000000
0.176811033000,0.040000000000
0.184498224000,0.045000000000
0.192185415000,0.052000000000
0.199872606000,0.062000000000
0.207559797000,0.069000000000
0.215246988000,0.076000000000
0.222934179000,0.084000000000
0.230621370000,0.088000000000
0.238308561000,0.093000000000
0.245995752000,0.093000000000
0.253682943000,0.093000000000
0.261370134000,0.096000000000
0.269057325000,0.101000000000
0.276744516000,0.098000000000
0.284431707000,0.098000000000
0.292118898000,0.088000000000
0.299806089000,0.067000000000
0.307493280000,0.043000000000
0.315180471000,0.014000000000
0.322867662000,-0.014000000000
0.330554853000,-0.038000000000
0.338242044000,-0.055000000000
0.345929235000,-0.069000000000
0.353616426000,-0.079000000000
0.361303617000,-0.084000000000
0.368990808000,-0.084000000000
0.376677999000,-0.086000000000
0.384365190000,-0.084000000000
0.392052381000,-0.081000000000
0.399739572000,-0.084000000000
0.407426763000,-0.084000000000
0.415113954000,-0.084000000000
0.422801145000,-0.084000000000
0.430488336000,-0.084000000000
0.438175527000,-0.086000000000
0.445862718000,-0.088000000000
0.453549909000,-0.088000000000
0.461237100000,-0.091000000000
0.468924291000,-0.091000000000
0.476611482000,-0.088000000000
0.484298673000,-0.088000000000
0.491985864000,-0.091000000000
0.499673055000,-0.088000000000
0.507360246000,-0.086000000000
0.515047437000,-0.086000000000
0.522734628000,-0.084000000000
0.530421819000,-0.081000000000
0.538109010000,-0.081000000000
0.545796201000,-0.079000000000
0.553483392000,-0.076000000000
0.561170583000,-0.076000000000
0.568857774000,-0.072000000000
0.576544965000,-0.069000000000
0.584232156000,-0.069000000000
0.591919347000,-0.064000000000
0.599606538000,-0.060000000000
0.607293729000,-0.060000000000
0.614980920000,-0.062000000000
0.622668111000,-0.060000000000
0.630355302000,-0.055000000000
0.638042493000,-0.055000000000
0.645729684000,-0.055000000000
0.653416875000,-0.050000000000
0.661104066000,-0.052000000000
0.668791257000,-0.052000000000
0.676478448000,-0.050000000000
0.684165680000,-0.048000000000
0.691853150000,-0.052000000000
0.699540620000,-0.060000000000
0.707228090000,-0.064000000000
0.714915560000,-0.062000000000
0.722603030000,-0.055000000000
0.730290500000,-0.043000000000
0.737977970000,-0.031000000000
0.745665440000,-0.016000000000
0.753352910000,0.002000000000
0.761040380000,0.004000000000
0.768727850000,-0.016000000000
0.776415320000,-0.031000000000
0.784102790000,-0.028000000000
0.791790260000,-0.026000000000
0.799477730000,-0.026000000000
0.807165200000,-0.024000000000
0.814852670000,-0.024000000000
0.822540140000,-0.036000000000
0.830227610000,-0.076000000000
0.837915080000,-0.079000000000
0.845602550000,0.209000000000
0.853290020000,0.795000000000
0.860977490000,1.101000000000
0.868664960000,0.651000000000
0.876352430000,-0.146000000000
0.884039900000,-0.440000000000
0.891727370000,-0.216000000000
0.899414840000,-0.144000000000
0.907102310000,-0.197000000000
0.914789780000,-0.108000000000
0.922477250000,-0.057000000000
0.930164720000,-0.091000000000
0.937852190000,-0.074000000000
0.945539660000,-0.043000000000
0.953227130000,-0.045000000000
0.960914600000,-0.043000000000
0.968602070000,-0.026000000000
0.976289540000,-0.019000000000
0.983977010000,-0.019000000000
0.991664480000,-0.009000000000
0.999351950000,-0.002000000000
1.007039420000,0.000000000000
1.014726890000,0.007000000000
1.022414360000,0.019000000000
1.030101830000,0.026000000000
1.037789300000,0.028000000000
1.045476770000,0.036000000000
1.053164240000,0.045000000000
1.060851710000,0.055000000000
1.068539180000,0.062000000000
1.076226650000,0.072000000000
1.083914120000,0.076000000000
1.091601590000,0.074000000000
1.099289060000,0.076000000000
1.106976530000,0.076000000000
1.114664000000,0.074000000000
1.122351470000,0.072000000000
1.130038940000,0.069000000000
1.137726410000,0.062000000000
1.145413880000,0.052000000000
1.153101350000,0.036000000000
1.160788820000,0.004000000000
1.168476290000,-0.028000000000
1.176163760000,-0.060000000000
1.183851230000,-0.086000000000
1.191538700000,-0.110000000000
1.199226170000,-0.125000000000
1.206913640000,-0.134000000000
1.214601110000,-0.139000000000
1.222288580000,-0.144000000000
1.229976050000,-0.146000000000
1.237663520000,-0.149000000000
1.245351008000,-0.149000000000
1.253038338000,-0.151000000000
1.260725668000,-0.153000000000
1.268412998000,-0.158000000000
1.276100328000,-0.163000000000
1.283787658000,-0.165000000000
1.291474988000,-0.168000000000
1.299162318000,-0.175000000000
1.306849648000,-0.180000000000
1.314536978000,-0.182000000000
1.322224308000,-0.185000000000
1.329911638000,-0.187000000000
1.337598968000,-0.187000000000
1.345286298000,-0.189000000000
1.352973628000,-0.192000000000
1.360660958000,-0.192000000000
1.368348288000,-0.192000000000
1.376035618000,-0.192000000000
1.383722948000,-0.194000000000
1.391410278000,-0.194000000000
1.399097608000,-0.192000000000
1.406784938000,-0.194000000000
1.414472268000,-0.197000000000
1.422159598000,-0.194000000000
1.429846928000,-0.197000000000
1.437534258000,-0.204000000000
1.445221588000,-0.211000000000
1.452908918000,-0.216000000000
1.460596248000,-0.218000000000
1.468283578000,-0.214000000000
1.475970908000,-0.204000000000
1.483658238000,-0.194000000000
1.491345568000,-0.185000000000
1.499032898000,-0.161000000000
1.506720228000,-0.158000000000
1.514407558000,-0.182000000000
1.522094888000,-0.202000000000
1.529782218000,-0.199000000000
1.537469548000,-0.202000000000
1.545156878000,-0.204000000000
1.552844208000,-0.199000000000
1.560531538000,-0.197000000000
1.568218868000,-0.206000000000
1.575906198000,-0.238000000000
1.583593528000,-0.259000000000
1.591280858000,-0.045000000000
1.598968188000,0.526000000000
1.606655518000,0.940000000000
1.614342848000,0.589000000000
1.622030178000,-0.247000000000
1.629717508000,-0.649000000000
1.637404838000,-0.452000000000
1.645092168000,-0.331000000000
1.652779498000,-0.379000000000
1.660466828000,-0.290000000000
1.668154158000,-0.216000000000
1.675841488000,-0.245000000000
1.683528818000,-0.240000000000
1.691216148000,-0.202000000000
1.698903478000,-0.199000000000
1.706590808000,-0.197000000000
1.714278138000,-0.177000000000
1.721965468000,-0.168000000000
1.729652798000,-0.165000000000
1.737340128000,-0.153000000000
1.745027458000,-0.144000000000
1.752714788000,-0.137000000000
1.760402118000,-0.127000000000
1.768089448000,-0.115000000000
1.775776778000,-0.105000000000
1.783464108000,-0.096000000000
1.791151438000,-0.081000000000
1.798838768000,-0.069000000000
1.806526166000,-0.057000000000
1.814213496000,-0.043000000000
1.821900826000,-0.028000000000
1.829588156000,-0.019000000000
1.837275486000,-0.009000000000
1.844962816000,-0.004000000000
1.852650146000,-0.007000000000
1.860337476000,-0.009000000000
1.868024806000,-0.004000000000
1.875712136000,-0.007000000000
1.883399466000,-0.019000000000
1.891086796000,-0.043000000000
1.898774126000,-0.076000000000
1.906461456000,-0.115000000000
1.914148786000,-0.149000000000
1.921836116000,-0.180000000000
1.929523446000,-0.206000000000
1.937210776000,-0.223000000000
1.944898106000,-0.228000000000
1.952585436000,-0.233000000000
1.960272766000,-0.233000000000
1.967960096000,-0.230000000000
1.975647426000,-0.228000000000
1.983334756000,-0.228000000000
1.991022086000,-0.226000000000
1.998709416000,-0.221000000000
2.006396746000,-0.218000000000
2.014084076000,-0.223000000000
2.021771406000,-0.223000000000
2.029458736000,-0.223000000000
2.037146066000,-0.223000000000
2.044833396000,-0.223000000000
2.052520726000,-0.223000000000
2.060208056000,-0.226000000000
2.067895386000,-0.226000000000
2.075582716000,-0.223000000000
2.083270046000,-0.223000000000
2.090957376000,-0.223000000000
2.098644706000,-0.221000000000
2.106332036000,-0.216000000000
2.114019366000,-0.214000000000
2.121706696000,-0.216000000000
2.129394026000,-0.221000000000
2.137081356000,-0.226000000000
2.144768686000,-0.230000000000
2.152456016000,-0.230000000000
2.160143346000,-0.226000000000
2.167830676000,-0.214000000000
2.175518006000,-0.204000000000
2.183205336000,-0.194000000000
2.190892666000,-0.168000000000
2.198579996000,-0.158000000000
2.206267326000,-0.177000000000
2.213954656000,-0.194000000000
2.221641986000,-0.192000000000
2.229329316000,-0.192000000000
2.237016646000,-0.192000000000
2.244703976000,-0.185000000000
2.252391306000,-0.182000000000
2.260078636000,-0.192000000000
2.267765966000,-0.221000000000
2.275453296000,-0.247000000000
2.283140626000,-0.067000000000
2.290827956000,0.483000000000
2.298515286000,0.971000000000
2.306202616000,0.723000000000
2.313889946000,-0.122000000000
2.321577276000,-0.642000000000
2.329264606000,-0.483000000000
2.336951936000,-0.315000000000
2.344639266000,-0.365000000000
2.352326596000,-0.298000000000
2.360013926000,-0.204000000000
2.367701320000,-0.223000000000
2.375388441000,-0.228000000000
2.383075562000,-0.187000000000
2.390762683000,-0.180000000000
2.398449804000,-0.182000000000
2.406136925000,-0.165000000000
2.413824046000,-0.153000000000
2.421511167000,-0.149000000000
2.429198288000,-0.139000000000
2.436885409000,-0.127000000000
2.444572530000,-0.120000000000
2.452259651000,-0.113000000000
2.459946772000,-0.101000000000
2.467633893000,-0.093000000000
2.475321014000,-0.084000000000
2.483008135000,-0.072000000000
2.490695256000,-0.055000000000
2.498382377000,-0.040000000000
2.506069498000,-0.028000000000
2.513756619000,-0.012000000000
2.521443740000,0.002000000000
2.529130861000,0.012000000000
2.536817982000,0.014000000000
2.544505103000,0.016000000000
2.552192224000,0.019000000000
2.559879345000,0.019000000000
2.567566466000,0.016000000000
2.575253587000,0.004000000000
2.582940708000,-0.028000000000
2.590627829000,-0.072000000000
2.598314950000,-0.113000000000
2.606002071000,-0.151000000000
2.613689192000,-0.182000000000
2.621376313000,-0.209000000000
2.629063434000,-0.226000000000
2.636750555000,-0.238000000000
2.644437676000,-0.240000000000
2.652124797000,-0.238000000000
2.659811918000,-0.233000000000
2.667499039000,-0.226000000000
2.675186160000,-0.221000000000
2.682873281000,-0.221000000000
2.690560402000,-0.223000000000
2.698247523000,-0.221000000000
2.705934644000,-0.218000000000
2.713621765000,-0.218000000000
2.721308886000,-0.223000000000
2.728996007000,-0.223000000000
2.736683128000,-0.221000000000
2.744370249000,-0.218000000000
2.752057370000,-0.216000000000
2.759744491000,-0.216000000000
2.767431612000,-0.216000000000
2.775118733000,-0.216000000000
2.782805854000,-0.218000000000
2.790492975000,-0.221000000000
2.798180096000,-0.221000000000
2.805867217000,-0.216000000000
2.813554338000,-0.204000000000
2.821241459000,-0.194000000000
2.828928580000,-0.187000000000
2.836615701000,-0.165000000000
2.844302822000,-0.141000000000
2.851989943000,-0.149000000000
2.859677064000,-0.170000000000
2.867364185000,-0.168000000000
2.875051306000,-0.163000000000
2.882738427000,-0.170000000000
2.890425548000,-0.168000000000
2.898112669000,-0.158000000000
2.905799790000,-0.156000000000
2.913486911000,-0.163000000000
2.921174032000,-0.187000000000
2.928861217000,-0.110000000000
2.936548756000,0.324000000000
2.944236295000,0.952000000000
2.951923834000,1.002000000000
2.959611373000,0.175000000000
2.967298912000,-0.634000000000
2.974986451000,-0.646000000000
2.982673990000,-0.365000000000
2.990361529000,-0.346000000000
2.998049068000,-0.312000000000
3.005736607000,-0.170000000000
3.013424146000,-0.139000000000
3.021111685000,-0.158000000000
3.028799224000,-0.127000000000
3.036486763000,-0.103000000000
3.044174302000,-0.103000000000
3.051861841000,-0.091000000000
3.059549380000,-0.072000000000
3.067236919000,-0.064000000000
3.074924458000,-0.057000000000
3.082611997000,-0.043000000000
3.090299536000,-0.033000000000
3.097987075000,-0.024000000000
3.105674614000,-0.009000000000
3.113362153000,0.004000000000
3.121049692000,0.019000000000
3.128737231000,0.031000000000
3.136424770000,0.050000000000
3.144112309000,0.069000000000
3.151799848000,0.088000000000
3.159487387000,0.110000000000
3.167174926000,0.129000000000
3.174862465000,0.144000000000
3.182550004000,0.153000000000
3.190237543000,0.158000000000
3.197925082000,0.163000000000
3.205612621000,0.163000000000
3.213300160000,0.158000000000
3.220987699000,0.137000000000
3.228675238000,0.096000000000
3.236362777000,0.043000000000
3.244050316000,-0.012000000000
3.251737855000,-0.067000000000
3.259425394000,-0.113000000000
3.267112933000,-0.146000000000
3.274800472000,-0.165000000000
3.282488011000,-0.173000000000
3.290175550000,-0.175000000000
3.297863089000,-0.170000000000
3.305550628000,-0.163000000000
3.313238167000,-0.153000000000
3.320925706000,-0.149000000000
3.328613245000,-0.144000000000
3.336300784000,-0.141000000000
3.343988323000,-0.141000000000
3.351675862000,-0.141000000000
3.359363401000,-0.139000000000
3.367050940000,-0.141000000000
3.374738479000,-0.141000000000
3.382426018000,-0.141000000000
3.390113557000,-0.141000000000
3.397801096000,-0.144000000000
3.405488635000,-0.141000000000
3.413176174000,-0.141000000000
3.420863713000,-0.144000000000
3.428551252000,-0.149000000000
3.436238791000,-0.149000000000
3.443926330000,-0.146000000000
3.451613869000,-0.139000000000
3.459301408000,-0.127000000000
3.466988947000,-0.120000000000
3.474676486000,-0.105000000000
3.482364025000,-0.076000000000
3.490051636000,-0.069000000000
3.497738827000,-0.096000000000
3.505426018000,-0.105000000000
3.513113209000,-0.096000000000
3.520800400000,-0.096000000000
3.528487591000,-0.096000000000
3.536174782000,-0.088000000000
3.543861973000,-0.084000000000
3.551549164000,-0.093000000000
3.559236355000,-0.129000000000
3.566923546000,-0.134000000000
3.574610737000,0.151000000000
3.582297928000,0.793000000000
3.589985119000,1.202000000000
3.597672310000,0.762000000000
3.605359501000,-0.156000000000
3.613046692000,-0.560000000000
3.620733883000,-0.327000000000
3.628421074000,-0.202000000000
3.636108265000,-0.252000000000
3.643795456000,-0.163000000000
3.651482647000,-0.088000000000
3.659169838000,-0.117000000000
3.666857029000,-0.105000000000
3.674544220000,-0.069000000000
3.682231411000,-0.069000000000
3.689918602000,-0.064000000000
3.697605793000,-0.045000000000
3.705292984000,-0.036000000000
3.712980175000,-0.033000000000
3.720667366000,-0.024000000000
3.728354557000,-0.012000000000
3.736041748000,0.000000000000
3.743728939000,0.009000000000
3.751416130000,0.016000000000
3.759103321000,0.031000000000
3.766790512000,0.043000000000
3.774477703000,0.055000000000
3.782164894000,0.069000000000
3.789852085000,0.086000000000
3.797539276000,0.101000000000
3.805226467000,0.115000000000
3.812913658000,0.129000000000
3.820600849000,0.137000000000
3.828288040000,0.141000000000
3.835975231000,0.144000000000
3.843662422000,0.146000000000
3.851349613000,0.146000000000
3.859036804000,0.139000000000
3.866723995000,0.120000000000
3.874411186000,0.088000000000
3.882098377000,0.048000000000
3.889785568000,0.002000000000
3.897472759000,-0.036000000000
3.905159950000,-0.067000000000
3.912847141000,-0.086000000000
3.920534332000,-0.103000000000
3.928221523000,-0.110000000000
3.935908714000,-0.110000000000
3.943595905000,-0.108000000000
3.951283096000,-0.103000000000
3.958970287000,-0.101000000000
3.966657478000,-0.098000000000
3.974344669000,-0.096000000000
3.982031860000,-0.093000000000
3.989719051000,-0.093000000000
3.997406242000,-0.093000000000
4.005093433000,-0.096000000000
4.012780624000,-0.098000000000
4.020467815000,-0.098000000000
4.028155006000,-0.101000000000
4.035842197000,-0.101000000000
4.043529388000,-0.101000000000
4.051216620000,-0.101000000000
4.058904090000,-0.101000000000
4.066591560000,-0.098000000000
4.074279030000,-0.098000000000
4.081966500000,-0.098000000000
4.089653970000,-0.096000000000
4.097341440000,-0.098000000000
4.105028910000,-0.105000000000
4.112716380000,-0.110000000000
4.120403850000,-0.108000000000
4.128091320000,-0.098000000000
4.135778790000,-0.084000000000
4.143466260000,-0.076000000000
4.151153730000,-0.060000000000
4.158841200000,-0.036000000000
4.166528670000,-0.036000000000
4.174216140000,-0.060000000000
4.181903610000,-0.069000000000
4.189591080000,-0.064000000000
4.197278550000,-0.064000000000
4.204966020000,-0.064000000000
4.212653490000,-0.057000000000
4.220340960000,-0.057000000000
4.228028430000,-0.069000000000
4.235715900000,-0.115000000000
4.243403370000,-0.139000000000
4.251090840000,0.125000000000
4.258778310000,0.759000000000
4.266465780000,1.216000000000
4.274153250000,0.860000000000
4.281840720000,-0.036000000000
4.289528190000,-0.471000000000
4.297215660000,-0.262000000000
4.304903130000,-0.158000000000
4.312590600000,-0.233000000000
4.320278070000,-0.153000000000
4.327965540000,-0.086000000000
4.335653010000,-0.120000000000
4.343340480000,-0.108000000000
4.351027950000,-0.072000000000
4.358715420000,-0.072000000000
4.366402890000,-0.067000000000
4.374090360000,-0.050000000000
4.381777830000,-0.043000000000
4.389465300000,-0.040000000000
4.397152770000,-0.033000000000
4.404840240000,-0.026000000000
4.412527710000,-0.016000000000
4.420215180000,-0.009000000000
4.427902650000,-0.002000000000
4.435590120000,0.004000000000
4.443277590000,0.016000000000
4.450965060000,0.026000000000
4.458652530000,0.038000000000
4.466340000000,0.050000000000
4.474027470000,0.064000000000
4.481714940000,0.076000000000
4.489402410000,0.086000000000
4.497089880000,0.093000000000
4.504777350000,0.096000000000
4.512464820000,0.098000000000
4.520152290000,0.098000000000
4.527839760000,0.098000000000
4.535527230000,0.093000000000
4.543214700000,0.081000000000
4.550902170000,0.062000000000
4.558589640000,0.036000000000
4.566277110000,0.002000000000
4.573964580000,-0.031000000000
4.581652050000,-0.062000000000
4.589339520000,-0.086000000000
4.597026990000,-0.101000000000
4.604714460000,-0.108000000000
4.612401948000,-0.115000000000
4.620089069000,-0.117000000000
4.627776190000,-0.115000000000
4.635463311000,-0.113000000000
4.643150432000,-0.110000000000
4.650837553000,-0.110000000000
4.658524674000,-0.110000000000
4.666211795000,-0.110000000000
4.673898916000,-0.110000000000
4.681586037000,-0.110000000000
4.689273158000,-0.113000000000
4.696960279000,-0.113000000000
4.704647400000,-0.113000000000
4.712334521000,-0.115000000000
4.720021642000,-0.115000000000
4.727708763000,-0.115000000000
4.735395884000,-0.113000000000
4.743083005000,-0.113000000000
4.750770126000,-0.113000000000
4.758457247000,-0.110000000000
4.766144368000,-0.110000000000
4.773831489000,-0.110000000000
4.781518610000,-0.105000000000
4.789205731000,-0.101000000000
4.796892852000,-0.103000000000
4.804579973000,-0.103000000000
4.812267094000,-0.096000000000
4.819954215000,-0.093000000000
4.827641336000,-0.091000000000
4.835328457000,-0.088000000000
4.843015578000,-0.088000000000
4.850702699000,-0.096000000000
4.858389820000,-0.101000000000
4.866076941000,-0.103000000000
4.873764062000,-0.101000000000
4.881451183000,-0.086000000000
4.889138304000,-0.072000000000
4.896825425000,-0.067000000000
4.904512546000,-0.048000000000
4.912199667000,-0.033000000000
4.919886788000,-0.048000000000
4.927573909000,-0.067000000000
4.935261030000,-0.067000000000
4.942948151000,-0.064000000000
4.950635272000,-0.069000000000
4.958322393000,-0.064000000000
4.966009514000,-0.057000000000
4.973696635000,-0.064000000000
4.981383756000,-0.093000000000
4.989070877000,-0.144000000000
4.996757998000,-0.040000000000
5.004445119000,0.461000000000
5.012132240000,1.074000000000
5.019819361000,1.079000000000
5.027506482000,0.303000000000
5.035193603000,-0.420000000000
5.042880724000,-0.404000000000
5.050567845000,-0.180000000000
5.058254966000,-0.221000000000
5.065942087000,-0.206000000000
5.073629208000,-0.103000000000
5.081316329000,-0.110000000000
5.089003450000,-0.129000000000
5.096690571000,-0.091000000000
5.104377692000,-0.074000000000
5.112064813000,-0.076000000000
5.119751934000,-0.064000000000
5.127439055000,-0.052000000000
5.135126176000,-0.050000000000
5.142813297000,-0.040000000000
5.150500418000,-0.031000000000
5.158187539000,-0.031000000000
5.165874660000,-0.024000000000
5.173561845000,-0.012000000000
5.181249245000,-0.007000000000
5.188936645000,-0.004000000000
5.196624045000,0.009000000000
5.204311445000,0.024000000000
5.211998845000,0.028000000000
5.219686245000,0.038000000000
5.227373645000,0.057000000000
5.235061045000,0.069000000000
5.242748445000,0.072000000000
5.250435845000,0.079000000000
5.258123245000,0.084000000000
5.265810645000,0.084000000000
5.273498045000,0.086000000000
5.281185445000,0.088000000000
5.288872845000,0.084000000000
5.296560245000,0.074000000000
5.304247645000,0.062000000000
5.311935045000,0.038000000000
5.319622445000,0.002000000000
5.327309845000,-0.033000000000
5.334997245000,-0.062000000000
5.342684645000,-0.086000000000
5.350372045000,-0.105000000000
5.358059445000,-0.113000000000
5.365746845000,-0.120000000000
5.373434245000,-0.122000000000
5.381121645000,-0.122000000000
5.388809045000,-0.122000000000
5.396496445000,-0.122000000000
5.404183845000,-0.122000000000
5.411871245000,-0.122000000000
5.419558645000,-0.125000000000
5.427246045000,-0.122000000000
5.434933445000,-0.117000000000
5.442620845000,-0.120000000000
5.450308245000,-0.122000000000
5.457995645000,-0.125000000000
5.465683045000,-0.127000000000
5.473370445000,-0.127000000000
5.481057845000,-0.125000000000
5.488745245000,-0.129000000000
5.496432645000,-0.129000000000
5.504120045000,-0.125000000000
5.511807445000,-0.122000000000
5.519494845000,-0.125000000000
5.527182245000,-0.122000000000
5.534869645000,-0.120000000000
5.542557045000,-0.120000000000
5.550244445000,-0.117000000000
5.557931845000,-0.115000000000
5.565619245000,-0.113000000000
5.573306645000,-0.110000000000
5.580994045000,-0.108000000000
5.588681445000,-0.108000000000
5.596368845000,-0.105000000000
5.604056245000,-0.101000000000
5.611743645000,-0.098000000000
5.619431045000,-0.101000000000
5.627118445000,-0.105000000000
5.634805845000,-0.105000000000
5.642493245000,-0.108000000000
5.650180645000,-0.110000000000
5.657868045000,-0.098000000000
5.665555445000,-0.088000000000
5.673242845000,-0.086000000000
5.680930245000,-0.067000000000
5.688617645000,-0.045000000000
5.696305045000,-0.057000000000
5.703992445000,-0.079000000000
5.711679845000,-0.064000000000
5.719367245000,-0.043000000000
5.727054645000,-0.050000000000
5.734742090000,-0.069000000000
5.742429351000,-0.093000000000
5.750116612000,-0.122000000000
5.757803873000,-0.170000000000
5.765491134000,-0.194000000000
5.773178395000,0.028000000000
5.780865656000,0.615000000000
5.788552917000,1.132000000000
5.796240178000,0.896000000000
5.803927439000,0.009000000000
5.811614700000,-0.565000000000
5.819301961000,-0.401000000000
5.826989222000,-0.202000000000
5.834676483000,-0.281000000000
5.842363744000,-0.250000000000
5.850051005000,-0.120000000000
5.857738266000,-0.103000000000
5.865425527000,-0.115000000000
5.873112788000,-0.079000000000
5.880800049000,-0.028000000000
5.888487310000,-0.019000000000
5.896174571000,-0.055000000000
5.903861832000,-0.045000000000
5.911549093000,-0.012000000000
5.919236354000,-0.024000000000
5.926923615000,-0.007000000000
5.934610876000,0.021000000000
5.942298137000,-0.012000000000
5.949985398000,-0.021000000000
5.957672659000,0.048000000000
5.965359920000,0.081000000000
5.973047181000,0.045000000000
5.980734442000,0.033000000000
5.988421703000,0.069000000000
5.996108964000,0.105000000000
6.003796225000,0.110000000000
6.011483486000,0.103000000000
6.019170747000,0.122000000000
6.026858008000,0.149000000000
6.034545269000,0.144000000000
6.042232530000,0.139000000000
6.049919791000,0.153000000000
6.057607052000,0.168000000000
6.065294313000,0.158000000000
6.072981574000,0.146000000000
6.080668835000,0.113000000000
6.088356096000,0.045000000000
6.096043357000,0.007000000000
6.103730618000,-0.012000000000
6.111417879000,-0.055000000000
6.119105140000,-0.081000000000
6.126792401000,-0.079000000000
6.134479662000,-0.084000000000
6.142166923000,-0.103000000000
6.149854184000,-0.110000000000
6.157541445000,-0.105000000000
6.165228706000,-0.093000000000
6.172915967000,-0.096000000000
6.180603228000,-0.093000000000
6.188290489000,-0.074000000000
6.195977750000,-0.064000000000
6.203665011000,-0.081000000000
6.211352272000,-0.084000000000
6.219039533000,-0.086000000000
6.226726794000,-0.103000000000
6.234414055000,-0.113000000000
6.242101316000,-0.101000000000
6.249788577000,-0.091000000000
6.257475838000,-0.113000000000
6.265163099000,-0.127000000000
6.272850360000,-0.108000000000
6.280537621000,-0.101000000000
6.288224882000,-0.110000000000
6.295912157000,-0.108000000000
6.303599696000,-0.098000000000
6.311287235000,-0.101000000000
6.318974774000,-0.108000000000
6.326662313000,-0.105000000000
6.334349852000,-0.093000000000
6.342037391000,-0.093000000000
6.349724930000,-0.101000000000
6.357412469000,-0.098000000000
6.365100008000,-0.096000000000
6.372787547000,-0.103000000000
6.380475086000,-0.108000000000
6.388162625000,-0.115000000000
6.395850164000,-0.120000000000
6.403537703000,-0.110000000000
6.411225242000,-0.091000000000
6.418912781000,-0.084000000000
6.426600320000,-0.079000000000
6.434287859000,-0.060000000000
6.441975398000,-0.060000000000
6.449662937000,-0.081000000000
6.457350476000,-0.096000000000
6.465038015000,-0.096000000000
6.472725554000,-0.096000000000
6.480413093000,-0.096000000000
6.488100632000,-0.098000000000
6.495788171000,-0.101000000000
6.503475710000,-0.120000000000
6.511163249000,-0.165000000000
6.518850788000,-0.122000000000
6.526538327000,0.283000000000
6.534225866000,0.918000000000
6.541913405000,1.062000000000
6.549600944000,0.363000000000
6.557288483000,-0.476000000000
6.564976022000,-0.606000000000
6.572663561000,-0.334000000000
6.580351100000,-0.303000000000
6.588038639000,-0.307000000000
6.595726178000,-0.182000000000
6.603413717000,-0.156000000000
6.611101256000,-0.194000000000
6.618788795000,-0.168000000000
6.626476334000,-0.144000000000
6.634163873000,-0.149000000000
6.641851412000,-0.144000000000
6.649538951000,-0.132000000000
6.657226490000,-0.132000000000
6.664914029000,-0.127000000000
6.672601568000,-0.117000000000
6.680289107000,-0.113000000000
6.687976646000,-0.108000000000
6.695664185000,-0.103000000000
6.703351724000,-0.096000000000
6.711039263000,-0.088000000000
6.718726802000,-0.081000000000
6.726414341000,-0.072000000000
6.734101880000,-0.060000000000
6.741789419000,-0.050000000000
6.749476958000,-0.033000000000
6.757164497000,-0.016000000000
6.764852036000,-0.004000000000
6.772539575000,0.012000000000
6.780227114000,0.016000000000
6.787914653000,-0.009000000000
6.795602192000,-0.021000000000
6.803289731000,0.000000000000
6.810977270000,0.000000000000
6.818664809000,-0.014000000000
6.826352348000,-0.031000000000
6.834039887000,-0.076000000000
6.841727426000,-0.134000000000
6.849414965000,-0.175000000000
6.857102576000,-0.206000000000
6.864789767000,-0.242000000000
6.872476958000,-0.274000000000
6.880164149000,-0.298000000000
6.887851340000,-0.319000000000
6.895538531000,-0.322000000000
6.903225722000,-0.286000000000
6.910912913000,-0.252000000000
6.918600104000,-0.257000000000
6.926287295000,-0.264000000000
6.933974486000,-0.254000000000
6.941661677000,-0.262000000000
6.949348868000,-0.276000000000
6.957036059000,-0.276000000000
6.964723250000,-0.269000000000
6.972410441000,-0.271000000000
6.980097632000,-0.278000000000
6.987784823000,-0.281000000000
6.995472014000,-0.281000000000
7.003159205000,-0.283000000000
7.010846396000,-0.283000000000
7.018533587000,-0.283000000000
7.026220778000,-0.278000000000
7.033907969000,-0.274000000000
7.041595160000,-0.274000000000
7.049282351000,-0.274000000000
7.056969542000,-0.271000000000
7.064656733000,-0.269000000000
7.072343924000,-0.264000000000
7.080031115000,-0.259000000000
7.087718306000,-0.257000000000
7.095405497000,-0.254000000000
7.103092688000,-0.250000000000
7.110779879000,-0.250000000000
7.118467070000,-0.247000000000
7.126154261000,-0.240000000000
7.133841452000,-0.235000000000
7.141528643000,-0.233000000000
7.149215834000,-0.230000000000
7.156903025000,-0.228000000000
7.164590216000,-0.228000000000
7.172277407000,-0.226000000000
7.179964598000,-0.221000000000
7.187651789000,-0.221000000000
7.195338980000,-0.228000000000
7.203026171000,-0.230000000000
7.210713362000,-0.230000000000
7.218400553000,-0.223000000000
7.226087744000,-0.211000000000
7.233774935000,-0.197000000000
7.241462126000,-0.189000000000
7.249149317000,-0.173000000000
7.256836508000,-0.151000000000
7.264523699000,-0.153000000000
7.272210890000,-0.170000000000
7.279898081000,-0.177000000000
7.287585272000,-0.180000000000
7.295272463000,-0.177000000000
7.302959654000,-0.170000000000
7.310646845000,-0.165000000000
7.318334036000,-0.168000000000
7.326021227000,-0.199000000000
7.333708418000,-0.262000000000
7.341395609000,-0.168000000000
7.349082800000,0.334000000000
7.356769991000,0.983000000000
7.364457182000,1.086000000000
7.372144373000,0.375000000000
7.379831564000,-0.435000000000
7.387518755000,-0.517000000000
7.395205946000,-0.271000000000
7.402893137000,-0.298000000000
7.410580328000,-0.317000000000
7.418267560000,-0.209000000000
7.425955030000,-0.197000000000
7.433642500000,-0.223000000000
7.441329970000,-0.192000000000
7.449017440000,-0.168000000000
7.456704910000,-0.173000000000
7.464392380000,-0.158000000000
7.472079850000,-0.146000000000
7.479767320000,-0.141000000000
7.487454790000,-0.137000000000
7.495142260000,-0.127000000000
7.502829730000,-0.120000000000
7.510517200000,-0.113000000000
7.518204670000,-0.103000000000
7.525892140000,-0.096000000000
7.533579610000,-0.088000000000
7.541267080000,-0.079000000000
7.548954550000,-0.069000000000
7.556642020000,-0.057000000000
7.564329490000,-0.045000000000
7.572016960000,-0.031000000000
7.579704430000,-0.014000000000
7.587391900000,0.000000000000
7.595079370000,0.009000000000
7.602766840000,0.019000000000
7.610454310000,0.024000000000
7.618141780000,0.024000000000
7.625829250000,0.024000000000
7.633516720000,0.026000000000
7.641204190000,0.024000000000
7.648891660000,0.014000000000
7.656579130000,-0.002000000000
7.664266600000,-0.026000000000
7.671954070000,-0.052000000000
7.679641540000,-0.084000000000
7.687329010000,-0.110000000000
7.695016480000,-0.132000000000
7.702703950000,-0.149000000000
7.710391420000,-0.158000000000
7.718078890000,-0.161000000000
7.725766360000,-0.158000000000
7.733453830000,-0.156000000000
7.741141300000,-0.153000000000
7.748828770000,-0.153000000000
7.756516240000,-0.151000000000
7.764203710000,-0.146000000000
7.771891180000,-0.144000000000
7.779578650000,-0.141000000000
7.787266120000,-0.141000000000
7.794953590000,-0.144000000000
7.802641060000,-0.139000000000
7.810328530000,-0.139000000000
7.818016000000,-0.144000000000
7.825703470000,-0.144000000000
7.833390940000,-0.141000000000
7.841078410000,-0.141000000000
7.848765880000,-0.141000000000
7.856453350000,-0.137000000000
7.864140820000,-0.137000000000
7.871828290000,-0.137000000000
7.879515760000,-0.134000000000
7.887203230000,-0.132000000000
7.894890700000,-0.127000000000
7.902578170000,-0.122000000000
7.910265640000,-0.117000000000
7.917953110000,-0.120000000000
7.925640580000,-0.122000000000
7.933328050000,-0.117000000000
7.941015520000,-0.113000000000
7.948702990000,-0.110000000000
7.956390460000,-0.105000000000
7.964077930000,-0.105000000000
7.971765400000,-0.105000000000
7.979452888000,-0.101000000000
7.987140218000,-0.098000000000
7.994827548000,-0.101000000000
8.002514878000,-0.096000000000
8.010202208000,-0.088000000000
8.017889538000,-0.086000000000
8.025576868000,-0.088000000000
8.033264198000,-0.093000000000
8.040951528000,-0.098000000000
8.048638858000,-0.103000000000
8.056326188000,-0.105000000000
8.064013518000,-0.093000000000
8.071700848000,-0.076000000000
8.079388178000,-0.072000000000
8.087075508000,-0.060000000000
8.094762838000,-0.033000000000
8.102450168000,-0.028000000000
8.110137498000,-0.055000000000
8.117824828000,-0.069000000000
8.125512158000,-0.062000000000
8.133199488000,-0.062000000000
8.140886818000,-0.064000000000
8.148574148000,-0.057000000000
8.156261478000,-0.055000000000
8.163948808000,-0.074000000000
8.171636138000,-0.129000000000
8.179323468000,-0.108000000000
8.187010798000,0.276000000000
8.194698128000,0.947000000000
8.202385458000,1.216000000000
8.210072788000,0.637000000000
8.217760118000,-0.262000000000
8.225447448000,-0.548000000000
8.233134778000,-0.281000000000
8.240822108000,-0.197000000000
8.248509438000,-0.245000000000
8.256196768000,-0.141000000000
8.263884098000,-0.081000000000
8.271571428000,-0.113000000000
8.279258758000,-0.096000000000
8.286946088000,-0.064000000000
8.294633418000,-0.064000000000
8.302320748000,-0.057000000000
8.310008078000,-0.048000000000
8.317695408000,-0.043000000000
8.325382738000,-0.033000000000
8.333070068000,-0.024000000000
8.340757398000,-0.019000000000
8.348444728000,-0.009000000000
8.356132058000,0.000000000000
8.363819388000,0.004000000000
8.371506718000,0.012000000000
8.379194048000,0.024000000000
8.386881378000,0.038000000000
8.394568708000,0.050000000000
8.402256038000,0.062000000000
8.409943368000,0.074000000000
8.417630698000,0.093000000000
8.425318028000,0.113000000000
8.433005358000,0.120000000000
8.440692688000,0.127000000000
8.448380018000,0.134000000000
8.456067348000,0.132000000000
8.463754678000,0.132000000000
8.471442008000,0.132000000000
8.479129338000,0.129000000000
8.486816668000,0.122000000000
8.494503998000,0.103000000000
8.502191328000,0.072000000000
8.509878658000,0.038000000000
8.517565988000,-0.002000000000
8.525253318000,-0.040000000000
8.532940648000,-0.067000000000
8.540628046000,-0.086000000000
8.548315376000,-0.101000000000
8.556002706000,-0.103000000000
8.563690036000,-0.101000000000
8.571377366000,-0.098000000000
8.579064696000,-0.093000000000
8.586752026000,-0.091000000000
8.594439356000,-0.091000000000
8.602126686000,-0.091000000000
8.609814016000,-0.088000000000
8.617501346000,-0.091000000000
8.625188676000,-0.093000000000
8.632876006000,-0.096000000000
8.640563336000,-0.096000000000
8.648250666000,-0.101000000000
8.655937996000,-0.098000000000
8.663625326000,-0.098000000000
8.671312656000,-0.103000000000
8.678999986000,-0.103000000000
8.686687316000,-0.101000000000
8.694374646000,-0.101000000000
8.702061976000,-0.101000000000
8.709749306000,-0.098000000000
8.717436636000,-0.093000000000
8.725123966000,-0.088000000000
8.732811296000,-0.086000000000
8.740498626000,-0.088000000000
8.748185956000,-0.086000000000
8.755873286000,-0.081000000000
8.763560616000,-0.081000000000
8.771247946000,-0.076000000000
8.778935276000,-0.072000000000
8.786622606000,-0.069000000000
8.794309936000,-0.069000000000
8.801997266000,-0.072000000000
8.809684596000,-0.076000000000
8.817371926000,-0.081000000000
8.825059256000,-0.079000000000
8.832746586000,-0.069000000000
8.840433916000,-0.055000000000
8.848121246000,-0.050000000000
8.855808576000,-0.045000000000
8.863495906000,-0.021000000000
8.871183236000,-0.009000000000
8.878870566000,-0.028000000000
8.886557896000,-0.045000000000
8.894245226000,-0.043000000000
8.901932556000,-0.043000000000
8.909619886000,-0.043000000000
8.917307216000,-0.040000000000
8.924994546000,-0.038000000000
8.932681876000,-0.050000000000
8.940369206000,-0.091000000000
8.948056536000,-0.079000000000
8.955743866000,0.266000000000
8.963431196000,0.921000000000
8.971118526000,1.197000000000
8.978805856000,0.606000000000
8.986493186000,-0.310000000000
8.994180516000,-0.581000000000
9.001867846000,-0.298000000000
9.009555176000,-0.204000000000
9.017242506000,-0.238000000000
9.024929836000,-0.120000000000
9.032617166000,-0.060000000000
9.040304496000,-0.091000000000
9.047991826000,-0.072000000000
9.055679156000,-0.038000000000
9.063366486000,-0.043000000000
9.071053816000,-0.038000000000
9.078741146000,-0.024000000000
9.086428476000,-0.021000000000
9.094115806000,-0.019000000000
9.101803200000,-0.009000000000
9.109490670000,-0.004000000000
9.117178140000,0.000000000000
9.124865610000,0.009000000000
9.132553080000,0.016000000000
9.140240550000,0.021000000000
9.147928020000,0.028000000000
9.155615490000,0.038000000000
9.163302960000,0.048000000000
9.170990430000,0.060000000000
9.178677900000,0.074000000000
9.186365370000,0.088000000000
9.194052840000,0.103000000000
9.201740310000,0.115000000000
9.209427780000,0.122000000000
9.217115250000,0.125000000000
9.224802720000,0.125000000000
9.232490190000,0.127000000000
9.240177660000,0.125000000000
9.247865130000,0.117000000000
9.255552600000,0.103000000000
9.263240070000,0.081000000000
9.270927540000,0.048000000000
9.278615010000,0.007000000000
9.286302480000,-0.033000000000
9.293989950000,-0.069000000000
9.301677420000,-0.096000000000
9.309364890000,-0.113000000000
9.317052360000,-0.125000000000
9.324739830000,-0.127000000000
9.332427300000,-0.125000000000
9.340114770000,-0.120000000000
9.347802240000,-0.115000000000
9.355489710000,-0.110000000000
9.363177180000,-0.105000000000
9.370864650000,-0.103000000000
9.378552120000,-0.101000000000
9.386239590000,-0.103000000000
9.393927060000,-0.105000000000
9.401614530000,-0.105000000000
9.409302000000,-0.108000000000
9.416989470000,-0.110000000000
9.424676940000,-0.113000000000
9.432364410000,-0.115000000000
9.440051880000,-0.115000000000
9.447739350000,-0.115000000000
9.455426820000,-0.115000000000
9.463114290000,-0.113000000000
9.470801760000,-0.110000000000
9.478489230000,-0.110000000000
9.486176700000,-0.108000000000
9.493864170000,-0.105000000000
9.501551640000,-0.105000000000
9.509239110000,-0.103000000000
9.516926580000,-0.098000000000
9.524614050000,-0.093000000000
9.532301520000,-0.093000000000
9.539988990000,-0.088000000000
9.547676460000,-0.086000000000
9.555363930000,-0.084000000000
9.563051400000,-0.084000000000
9.570738870000,-0.079000000000
9.578426340000,-0.076000000000
9.586113810000,-0.079000000000
9.593801280000,-0.086000000000
9.601488750000,-0.096000000000
9.609176220000,-0.098000000000
9.616863690000,-0.091000000000
9.624551160000,-0.076000000000
9.632238630000,-0.064000000000
9.639926100000,-0.060000000000
9.647613570000,-0.045000000000
9.655301040000,-0.028000000000
9.662988532000,-0.033000000000
9.670675723000,-0.052000000000
9.678362914000,-0.060000000000
9.686050105000,-0.060000000000
9.693737296000,-0.060000000000
9.701424487000,-0.057000000000
9.709111678000,-0.055000000000
9.716798869000,-0.057000000000
9.724486060000,-0.091000000000
9.732173251000,-0.161000000000
9.739860442000,-0.069000000000
9.747547633000,0.423000000000
9.755234824000,1.079000000000
9.762922015000,1.216000000000
9.770609206000,0.517000000000
9.778296397000,-0.310000000000
9.785983588000,-0.406000000000
9.793670779000,-0.165000000000
9.801357970000,-0.194000000000
9.809045161000,-0.221000000000
9.816732352000,-0.120000000000
9.824419543000,-0.113000000000
9.832106734000,-0.137000000000
9.839793925000,-0.105000000000
9.847481116000,-0.086000000000
9.855168307000,-0.088000000000
9.862855498000,-0.076000000000
9.870542689000,-0.064000000000
9.878229880000,-0.064000000000
9.885917071000,-0.060000000000
9.893604262000,-0.050000000000
9.901291453000,-0.045000000000
9.908978644000,-0.040000000000
9.916665835000,-0.033000000000
9.924353026000,-0.028000000000
9.932040217000,-0.021000000000
9.939727408000,-0.014000000000
9.947414599000,-0.007000000000
9.955101790000,0.002000000000
9.962788981000,0.009000000000
9.970476172000,0.016000000000
9.978163363000,0.026000000000
9.985850554000,0.031000000000
9.993537745000,0.038000000000
10.001224936000,0.040000000000
10.008912127000,0.043000000000
10.016599318000,0.040000000000
10.024286509000,0.040000000000
10.031973700000,0.040000000000
10.039660891000,0.040000000000
10.047348082000,0.036000000000
10.055035273000,0.028000000000
10.062722464000,0.014000000000
10.070409655000,-0.004000000000
10.078096846000,-0.028000000000
10.085784037000,-0.052000000000
10.093471228000,-0.072000000000
10.101158419000,-0.091000000000
10.108845610000,-0.103000000000
10.116532801000,-0.108000000000
10.124219992000,-0.110000000000
10.131907183000,-0.110000000000
10.139594374000,-0.108000000000
10.147281565000,-0.105000000000
10.154968756000,-0.105000000000
10.162655947000,-0.103000000000
10.170343138000,-0.103000000000
10.178030329000,-0.103000000000
10.185717520000,-0.101000000000
10.193404711000,-0.103000000000
10.201091902000,-0.105000000000
10.208779093000,-0.105000000000
10.216466284000,-0.105000000000
10.224153512000,-0.108000000000
10.231841051000,-0.110000000000
10.239528590000,-0.108000000000
10.247216129000,-0.108000000000
10.254903668000,-0.108000000000
10.262591207000,-0.108000000000
10.270278746000,-0.108000000000
10.277966285000,-0.108000000000
10.285653824000,-0.105000000000
10.293341363000,-0.103000000000
10.301028902000,-0.101000000000
10.308716441000,-0.103000000000
10.316403980000,-0.103000000000
10.324091519000,-0.101000000000
10.331779058000,-0.098000000000
10.339466597000,-0.101000000000
10.347154136000,-0.101000000000
10.354841675000,-0.101000000000
10.362529214000,-0.098000000000
10.370216753000,-0.098000000000
10.377904292000,-0.098000000000
10.385591831000,-0.101000000000
10.393279370000,-0.101000000000
10.400966909000,-0.101000000000
10.408654448000,-0.101000000000
10.416341987000,-0.101000000000
10.424029526000,-0.101000000000
10.431717065000,-0.101000000000
10.439404604000,-0.105000000000
10.447092143000,-0.115000000000
10.454779682000,-0.125000000000
10.462467221000,-0.125000000000
10.470154760000,-0.117000000000
10.477842299000,-0.108000000000
10.485529838000,-0.103000000000
10.493217377000,-0.093000000000
10.500904916000,-0.074000000000
10.508592455000,-0.069000000000
10.516279994000,-0.088000000000
10.523967533000,-0.108000000000
10.531655072000,-0.110000000000
10.539342611000,-0.110000000000
10.547030150000,-0.115000000000
10.554717689000,-0.115000000000
10.562405228000,-0.113000000000
10.570092767000,-0.127000000000
10.577780306000,-0.180000000000
10.585467845000,-0.211000000000
10.593155384000,0.038000000000
10.600842923000,0.661000000000
10.608530462000,1.139000000000
10.616218001000,0.856000000000
10.623905540000,-0.024000000000
10.631593079000,-0.533000000000
10.639280618000,-0.351000000000
10.646968157000,-0.226000000000
10.654655696000,-0.315000000000
10.662343235000,-0.250000000000
10.670030774000,-0.177000000000
10.677718313000,-0.211000000000
10.685405852000,-0.206000000000
10.693093391000,-0.170000000000
10.700780930000,-0.168000000000
10.708468469000,-0.170000000000
10.716156008000,-0.156000000000
10.723843547000,-0.151000000000
10.731531086000,-0.146000000000
10.739218625000,-0.141000000000
10.746906164000,-0.137000000000
10.754593703000,-0.132000000000
10.762281242000,-0.125000000000
10.769968781000,-0.117000000000
10.777656320000,-0.115000000000
10.785343931000,-0.108000000000
10.793031052000,-0.101000000000
10.800718173000,-0.096000000000
10.808405294000,-0.088000000000
10.816092415000,-0.081000000000
10.823779536000,-0.074000000000
10.831466657000,-0.072000000000
10.839153778000,-0.067000000000
10.846840899000,-0.064000000000
10.854528020000,-0.067000000000
10.862215141000,-0.064000000000
10.869902262000,-0.064000000000
10.877589383000,-0.062000000000
10.885276504000,-0.057000000000
10.892963625000,-0.052000000000
10.900650746000,-0.048000000000
10.908337867000,-0.052000000000
10.916024988000,-0.062000000000
10.923712109000,-0.074000000000
10.931399230000,-0.093000000000
10.939086351000,-0.117000000000
10.946773472000,-0.139000000000
10.954460593000,-0.151000000000
10.962147714000,-0.161000000000
10.969834835000,-0.165000000000
10.977521956000,-0.168000000000
10.985209077000,-0.165000000000
10.992896198000,-0.163000000000
11.000583319000,-0.161000000000
11.008270440000,-0.158000000000
11.015957561000,-0.158000000000
11.023644682000,-0.158000000000
11.031331803000,-0.156000000000
11.039018924000,-0.153000000000
11.046706045000,-0.156000000000
11.054393166000,-0.156000000000
11.062080287000,-0.158000000000
11.069767408000,-0.156000000000
11.077454529000,-0.156000000000
11.085141650000,-0.156000000000
11.092828771000,-0.153000000000
11.100515892000,-0.149000000000
11.108203013000,-0.144000000000
11.115890134000,-0.144000000000
11.123577255000,-0.141000000000
11.131264376000,-0.137000000000
11.138951497000,-0.137000000000
11.146638618000,-0.134000000000
11.154325739000,-0.129000000000
11.162012860000,-0.125000000000
11.169699981000,-0.122000000000
11.177387102000,-0.120000000000
11.185074223000,-0.115000000000
11.192761344000,-0.110000000000
11.200448465000,-0.110000000000
11.208135586000,-0.110000000000
11.215822707000,-0.108000000000
11.223509828000,-0.103000000000
11.231196949000,-0.103000000000
11.238884070000,-0.101000000000
11.246571191000,-0.096000000000
11.254258312000,-0.093000000000
11.261945433000,-0.088000000000
11.269632554000,-0.086000000000
11.277319675000,-0.086000000000
11.285006796000,-0.084000000000
11.292693917000,-0.081000000000
11.300381038000,-0.079000000000
11.308068159000,-0.076000000000
11.315755280000,-0.076000000000
11.323442401000,-0.076000000000
11.331129522000,-0.074000000000
11.338816643000,-0.069000000000
11.346503828000,-0.067000000000
11.354191367000,-0.067000000000
11.361878906000,-0.064000000000
11.369566445000,-0.062000000000
11.377253984000,-0.067000000000
11.384941523000,-0.072000000000
11.392629062000,-0.074000000000
11.400316601000,-0.076000000000
11.408004140000,-0.076000000000
11.415691679000,-0.062000000000
11.423379218000,-0.040000000000
11.431066757000,-0.031000000000
11.438754296000,-0.024000000000
11.446441835000,-0.019000000000
11.454129374000,-0.036000000000
11.461816913000,-0.055000000000
11.469504452000,-0.055000000000
11.477191991000,-0.055000000000
11.484879530000,-0.057000000000
11.492567069000,-0.050000000000
11.500254608000,-0.048000000000
11.507942147000,-0.067000000000
11.515629686000,-0.113000000000
11.523317225000,-0.110000000000
11.531004764000,0.202000000000
11.538692303000,0.841000000000
11.546379842000,1.183000000000
11.554067381000,0.704000000000
11.561754920000,-0.182000000000
11.569442459000,-0.543000000000
11.577129998000,-0.303000000000
11.584817537000,-0.194000000000
11.592505076000,-0.247000000000
11.600192615000,-0.156000000000
11.607880154000,-0.091000000000
11.615567693000,-0.120000000000
11.623255232000,-0.103000000000
11.630942771000,-0.064000000000
11.638630310000,-0.067000000000
11.646317849000,-0.069000000000
11.654005388000,-0.060000000000
11.661692927000,-0.052000000000
11.669380466000,-0.045000000000
11.677068005000,-0.038000000000
11.684755544000,-0.036000000000
11.692443083000,-0.036000000000
11.700130622000,-0.031000000000
11.707818161000,-0.024000000000
11.715505700000,-0.012000000000
11.723193239000,-0.004000000000
11.730880778000,0.000000000000
11.738568317000,0.004000000000
11.746255856000,0.016000000000
11.753943395000,0.026000000000
11.761630934000,0.031000000000
11.769318473000,0.038000000000
11.777006012000,0.045000000000
11.784693551000,0.048000000000
11.792381090000,0.050000000000
11.800068629000,0.055000000000
11.807756168000,0.060000000000
11.815443707000,0.067000000000
11.823131246000,0.069000000000
11.830818785000,0.069000000000
11.838506324000,0.064000000000
11.846193863000,0.060000000000
11.853881402000,0.045000000000
11.861568941000,0.024000000000
11.869256480000,0.000000000000
11.876944019000,-0.021000000000
11.884631558000,-0.045000000000
11.892319097000,-0.064000000000
11.900006636000,-0.074000000000
11.907694243000,-0.081000000000
11.915381364000,-0.086000000000
11.923068485000,-0.088000000000
11.930755606000,-0.088000000000
11.938442727000,-0.088000000000
11.946129848000,-0.091000000000
11.953816969000,-0.093000000000
11.961504090000,-0.098000000000
11.969191211000,-0.101000000000
11.976878332000,-0.103000000000
11.984565453000,-0.105000000000
11.992252574000,-0.110000000000
11.999939695000,-0.113000000000
12.007626816000,-0.113000000000
12.015313937000,-0.113000000000
12.023001058000,-0.113000000000
12.030688179000,-0.110000000000
12.038375300000,-0.108000000000
12.046062421000,-0.105000000000
12.053749542000,-0.105000000000
12.061436663000,-0.103000000000
12.069123784000,-0.101000000000
12.076810905000,-0.098000000000
12.084498026000,-0.096000000000
12.092185147000,-0.091000000000
12.099872268000,-0.088000000000
12.107559389000,-0.086000000000
12.115246510000,-0.081000000000
12.122933631000,-0.079000000000
12.130620752000,-0.076000000000
12.138307873000,-0.074000000000
12.145994994000,-0.072000000000
12.153682115000,-0.067000000000
12.161369236000,-0.067000000000
12.169056357000,-0.064000000000
12.176743478000,-0.062000000000
12.184430599000,-0.062000000000
12.192117720000,-0.064000000000
12.199804841000,-0.072000000000
12.207491962000,-0.076000000000
12.215179083000,-0.076000000000
12.222866204000,-0.074000000000
12.230553325000,-0.062000000000
12.238240446000,-0.048000000000
12.245927567000,-0.038000000000
12.253614688000,-0.024000000000
12.261301809000,-0.012000000000
12.268988930000,-0.024000000000
12.276676051000,-0.043000000000
12.284363172000,-0.048000000000
12.292050293000,-0.045000000000
12.299737414000,-0.045000000000
12.307424535000,-0.040000000000
12.315111656000,-0.040000000000
12.322798777000,-0.045000000000
12.330485898000,-0.076000000000
12.338173019000,-0.113000000000
12.345860140000,0.067000000000
12.353547261000,0.637000000000
12.361234382000,1.156000000000
12.368921503000,0.937000000000
12.376608624000,0.060000000000
12.384295745000,-0.521000000000
12.391982866000,-0.363000000000
12.399669987000,-0.163000000000
12.407357108000,-0.221000000000
12.415044229000,-0.165000000000
12.422731350000,-0.064000000000
12.430418471000,-0.086000000000
12.438105592000,-0.093000000000
12.445792713000,-0.052000000000
12.453479834000,-0.048000000000
12.461166955000,-0.052000000000
12.468854140000,-0.038000000000
12.476541261000,-0.031000000000
12.484228382000,-0.028000000000
12.491915503000,-0.021000000000
12.499602624000,-0.014000000000
12.507289745000,-0.009000000000
12.514976866000,-0.002000000000
12.522663987000,0.002000000000
12.530351108000,0.009000000000
12.538038229000,0.014000000000
12.545725350000,0.021000000000
12.553412471000,0.026000000000
12.561099592000,0.033000000000
12.568786713000,0.043000000000
12.576473834000,0.050000000000
12.584160955000,0.057000000000
12.591848076000,0.060000000000
12.599535197000,0.064000000000
12.607222318000,0.067000000000
12.614909439000,0.067000000000
12.622596560000,0.069000000000
12.630283681000,0.072000000000
12.637970802000,0.074000000000
12.645657923000,0.069000000000
12.653345044000,0.060000000000
12.661032165000,0.045000000000
12.668719286000,0.028000000000
12.676406407000,0.004000000000
12.684093528000,-0.019000000000
12.691780649000,-0.043000000000
12.699467770000,-0.062000000000
12.707154891000,-0.076000000000
12.714842012000,-0.086000000000
12.722529133000,-0.091000000000
12.730216254000,-0.091000000000
12.737903375000,-0.091000000000
12.745590496000,-0.091000000000
12.753277617000,-0.091000000000
12.760964738000,-0.093000000000
12.768651859000,-0.093000000000
12.776338980000,-0.093000000000
12.784026101000,-0.096000000000
12.791713222000,-0.098000000000
12.799400343000,-0.101000000000
12.807087464000,-0.103000000000
12.814774585000,-0.105000000000
12.822461706000,-0.105000000000
12.830148827000,-0.103000000000
12.837835948000,-0.103000000000
12.845523069000,-0.105000000000
12.853210190000,-0.103000000000
12.860897311000,-0.101000000000
12.868584432000,-0.101000000000
12.876271553000,-0.098000000000
12.883958674000,-0.096000000000
12.891645795000,-0.093000000000
12.899332916000,-0.091000000000
12.907020037000,-0.088000000000
12.914707158000,-0.086000000000
12.922394279000,-0.084000000000
12.930081400000,-0.081000000000
12.937768521000,-0.076000000000
12.945455642000,-0.074000000000
12.953142763000,-0.076000000000
12.960829884000,-0.074000000000
12.968517005000,-0.072000000000
12.976204126000,-0.069000000000
12.983891247000,-0.069000000000
12.991578368000,-0.069000000000
12.999265489000,-0.067000000000
13.006952610000,-0.064000000000
13.014639731000,-0.064000000000
13.022326852000,-0.064000000000
13.030014037000,-0.062000000000
13.037701576000,-0.060000000000
13.045389115000,-0.060000000000
13.053076654000,-0.062000000000
13.060764193000,-0.062000000000
13.068451732000,-0.060000000000
13.076139271000,-0.057000000000
13.083826810000,-0.057000000000
13.091514349000,-0.055000000000
13.099201888000,-0.052000000000
13.106889427000,-0.050000000000
13.114576966000,-0.055000000000
13.122264505000,-0.062000000000
13.129952044000,-0.072000000000
13.137639583000,-0.074000000000
13.145327122000,-0.074000000000
13.153014661000,-0.060000000000
13.160702200000,-0.043000000000
13.168389739000,-0.033000000000
13.176077278000,-0.026000000000
13.183764817000,-0.014000000000
13.191452356000,-0.016000000000
13.199139895000,-0.038000000000
13.206827434000,-0.048000000000
13.214514973000,-0.045000000000
13.222202512000,-0.048000000000
13.229890051000,-0.045000000000
13.237577590000,-0.043000000000
13.245265129000,-0.048000000000
13.252952668000,-0.086000000000
13.260640207000,-0.149000000000
13.268327746000,-0.033000000000
13.276015285000,0.483000000000
13.283702824000,1.106000000000
13.291390363000,1.156000000000
13.299077902000,0.418000000000
13.306765441000,-0.339000000000
13.314452980000,-0.365000000000
13.322140519000,-0.151000000000
13.329828058000,-0.209000000000
13.337515597000,-0.216000000000
13.345203136000,-0.117000000000
13.352890675000,-0.122000000000
13.360578214000,-0.141000000000
13.368265753000,-0.105000000000
13.375953292000,-0.091000000000
13.383640831000,-0.098000000000
13.391328370000,-0.086000000000
13.399015909000,-0.074000000000
13.406703448000,-0.074000000000
13.414390987000,-0.067000000000
13.422078526000,-0.060000000000
13.429766065000,-0.055000000000
13.437453604000,-0.050000000000
13.445141143000,-0.045000000000
13.452828682000,-0.040000000000
13.460516221000,-0.033000000000
13.468203760000,-0.031000000000
13.475891299000,-0.026000000000
13.483578838000,-0.019000000000
13.491266377000,-0.016000000000
13.498953916000,-0.014000000000
13.506641455000,-0.012000000000
13.514328994000,-0.009000000000
13.522016533000,-0.009000000000
13.529704072000,-0.012000000000
13.537391611000,-0.012000000000
13.545079150000,-0.009000000000
13.552766689000,-0.004000000000
13.560454228000,0.002000000000
13.568141767000,0.009000000000
13.575829306000,0.014000000000
13.583516845000,0.014000000000
13.591204456000,0.014000000000
13.598891647000,0.007000000000
13.606578838000,-0.007000000000
13.614266029000,-0.024000000000
13.621953220000,-0.045000000000
13.629640411000,-0.064000000000
13.637327602000,-0.076000000000
13.645014793000,-0.084000000000
13.652701984000,-0.088000000000
13.660389175000,-0.091000000000
13.668076366000,-0.093000000000
13.675763557000,-0.096000000000
13.683450748000,-0.098000000000
13.691137939000,-0.101000000000
13.698825130000,-0.101000000000
13.706512321000,-0.101000000000
13.714199512000,-0.103000000000
13.721886703000,-0.105000000000
13.729573894000,-0.105000000000
13.737261085000,-0.110000000000
13.744948276000,-0.113000000000
13.752635467000,-0.113000000000
13.760322658000,-0.113000000000
13.768009849000,-0.113000000000
13.775697040000,-0.110000000000
13.783384231000,-0.110000000000
13.791071422000,-0.110000000000
13.798758613000,-0.108000000000
13.806445804000,-0.105000000000
13.814132995000,-0.103000000000
13.821820186000,-0.101000000000
13.829507377000,-0.101000000000
13.837194568000,-0.098000000000
13.844881759000,-0.096000000000
13.852568950000,-0.093000000000
13.860256141000,-0.091000000000
13.867943332000,-0.091000000000
13.875630523000,-0.088000000000
13.883317714000,-0.086000000000
13.891004905000,-0.084000000000
13.898692096000,-0.084000000000
13.906379287000,-0.084000000000
13.914066478000,-0.081000000000
13.921753669000,-0.081000000000
13.929440860000,-0.079000000000
13.937128051000,-0.079000000000
13.944815242000,-0.074000000000
13.952502433000,-0.072000000000
13.960189624000,-0.072000000000
13.967876815000,-0.072000000000
13.975564006000,-0.069000000000
13.983251197000,-0.069000000000
13.990938388000,-0.069000000000
13.998625579000,-0.067000000000
14.006312770000,-0.069000000000
14.013999961000,-0.074000000000
14.021687152000,-0.084000000000
14.029374343000,-0.088000000000
14.037061534000,-0.086000000000
14.044748725000,-0.074000000000
14.052435916000,-0.060000000000
14.060123107000,-0.050000000000
14.067810298000,-0.038000000000
14.075497489000,-0.024000000000
14.083184680000,-0.031000000000
14.090871871000,-0.052000000000
14.098559062000,-0.062000000000
14.106246253000,-0.060000000000
14.113933444000,-0.057000000000
14.121620635000,-0.057000000000
14.129307826000,-0.055000000000
14.136995017000,-0.057000000000
14.144682208000,-0.091000000000
14.152369440000,-0.141000000000
14.160056631000,-0.016000000000
14.167743822000,0.490000000000
14.175431013000,1.062000000000
14.183118204000,1.026000000000
14.190805395000,0.257000000000
14.198492586000,-0.425000000000
14.206179777000,-0.382000000000
14.213866968000,-0.170000000000
14.221554159000,-0.223000000000
14.229241350000,-0.206000000000
14.236928541000,-0.105000000000
14.244615732000,-0.115000000000
14.252302923000,-0.129000000000
14.259990114000,-0.093000000000
14.267677305000,-0.081000000000
14.275364496000,-0.088000000000
14.283051687000,-0.074000000000
14.290738878000,-0.064000000000
14.298426069000,-0.064000000000
14.306113260000,-0.057000000000
14.313800451000,-0.048000000000
14.321487642000,-0.045000000000
14.329174833000,-0.040000000000
14.336862024000,-0.033000000000
14.344549215000,-0.028000000000
14.352236406000,-0.021000000000
14.359923597000,-0.014000000000
14.367610788000,-0.009000000000
14.375297979000,-0.004000000000
14.382985170000,0.000000000000
14.390672361000,0.004000000000
14.398359552000,0.009000000000
14.406046743000,0.014000000000
14.413733934000,0.016000000000
14.421421125000,0.016000000000
14.429108316000,0.016000000000
14.436795507000,0.019000000000
14.444482698000,0.026000000000
14.452169889000,0.031000000000
14.459857080000,0.033000000000
14.467544271000,0.031000000000
14.475231462000,0.024000000000
14.482918653000,0.014000000000
14.490605844000,0.000000000000
14.498293035000,-0.019000000000
14.505980226000,-0.038000000000
14.513667417000,-0.057000000000
14.521354608000,-0.072000000000
14.529041799000,-0.081000000000
14.536728990000,-0.091000000000
14.544416181000,-0.096000000000
14.552103372000,-0.096000000000
14.559790563000,-0.098000000000
14.567477754000,-0.101000000000
14.575164945000,-0.103000000000
14.582852136000,-0.103000000000
14.590539327000,-0.103000000000
14.598226518000,-0.108000000000
14.605913709000,-0.110000000000
14.613600900000,-0.110000000000
14.621288091000,-0.113000000000
14.628975282000,-0.115000000000
14.636662473000,-0.115000000000
14.644349664000,-0.113000000000
14.652036855000,-0.113000000000
14.659724046000,-0.110000000000
14.667411237000,-0.108000000000
14.675098428000,-0.105000000000
14.682785619000,-0.105000000000
14.690472810000,-0.103000000000
14.698160001000,-0.103000000000
14.705847192000,-0.101000000000
14.713534424000,-0.098000000000
14.721221824000,-0.096000000000
14.728909224000,-0.093000000000
14.736596624000,-0.091000000000
14.744284024000,-0.091000000000
14.751971424000,-0.086000000000
14.759658824000,-0.084000000000
14.767346224000,-0.084000000000
14.775033624000,-0.081000000000
14.782721024000,-0.076000000000
14.790408424000,-0.074000000000
14.798095824000,-0.076000000000
14.805783224000,-0.074000000000
14.813470624000,-0.072000000000
14.821158024000,-0.072000000000
14.828845424000,-0.069000000000
14.836532824000,-0.067000000000
14.844220224000,-0.072000000000
14.851907624000,-0.079000000000
14.859595024000,-0.084000000000
14.867282424000,-0.088000000000
14.874969824000,-0.086000000000
14.882657224000,-0.069000000000
14.890344624000,-0.057000000000
14.898032024000,-0.050000000000
14.905719424000,-0.031000000000
14.913406824000,-0.019000000000
14.921094224000,-0.033000000000
14.928781624000,-0.055000000000
14.936469024000,-0.057000000000
14.944156424000,-0.055000000000
14.951843824000,-0.057000000000
14.959531224000,-0.052000000000
14.967218624000,-0.050000000000
14.974906024000,-0.057000000000
14.982593424000,-0.088000000000
14.990280824000,-0.110000000000
14.997968224000,0.101000000000
15.005655624000,0.668000000000
15.013343024000,1.101000000000
15.021030424000,0.776000000000
15.028717824000,-0.076000000000
15.036405224000,-0.526000000000
15.044092624000,-0.329000000000
15.051780024000,-0.180000000000
15.059467424000,-0.233000000000
15.067154824000,-0.158000000000
15.074842224000,-0.079000000000
15.082529624000,-0.108000000000
15.090217024000,-0.105000000000
15.097904424000,-0.067000000000
15.105591824000,-0.062000000000
15.113279224000,-0.067000000000
15.120966624000,-0.050000000000
15.128654024000,-0.040000000000
15.136341424000,-0.043000000000
15.144028824000,-0.038000000000
15.151716224000,-0.031000000000
15.159403624000,-0.024000000000
15.167091024000,-0.016000000000
15.174778424000,-0.007000000000
15.182465824000,-0.002000000000
15.190153224000,0.000000000000
15.197840624000,0.004000000000
15.205528024000,0.012000000000
15.213215424000,0.024000000000
15.220902824000,0.031000000000
15.228590224000,0.038000000000
15.236277624000,0.043000000000
15.243965024000,0.052000000000
15.251652424000,0.060000000000
15.259339824000,0.064000000000
15.267027224000,0.069000000000
15.274714665000,0.076000000000
15.282402065000,0.084000000000
15.290089465000,0.081000000000
15.297776865000,0.076000000000
15.305464265000,0.062000000000
15.313151665000,0.043000000000
15.320839065000,0.024000000000
15.328526465000,0.000000000000
15.336213865000,-0.031000000000
15.343901265000,-0.060000000000
15.351588665000,-0.081000000000
15.359276065000,-0.096000000000
15.366963465000,-0.110000000000
15.374650865000,-0.117000000000
15.382338265000,-0.122000000000
15.390025665000,-0.122000000000
15.397713065000,-0.125000000000
15.405400465000,-0.127000000000
15.413087865000,-0.127000000000
15.420775265000,-0.132000000000
15.428462665000,-0.134000000000
15.436150065000,-0.137000000000
15.443837465000,-0.141000000000
15.451524865000,-0.139000000000
15.459212265000,-0.139000000000
15.466899665000,-0.141000000000
15.474587065000,-0.144000000000
15.482274465000,-0.141000000000
15.489961865000,-0.139000000000
15.497649265000,-0.137000000000
15.505336665000,-0.134000000000
15.513024065000,-0.137000000000
15.520711465000,-0.134000000000
15.528398865000,-0.129000000000
15.536086265000,-0.127000000000
15.543773665000,-0.125000000000
15.551461065000,-0.122000000000
15.559148465000,-0.120000000000
15.566835865000,-0.117000000000
15.574523265000,-0.113000000000
15.582210665000,-0.113000000000
15.589898065000,-0.113000000000
15.597585465000,-0.110000000000
15.605272865000,-0.105000000000
15.612960265000,-0.105000000000
15.620647665000,-0.101000000000
15.628335065000,-0.101000000000
15.636022465000,-0.105000000000
15.643709865000,-0.113000000000
15.651397265000,-0.113000000000
15.659084665000,-0.113000000000
15.666772065000,-0.105000000000
15.674459465000,-0.088000000000
15.682146865000,-0.079000000000
15.689834265000,-0.069000000000
15.697521665000,-0.050000000000
15.705209065000,-0.048000000000
15.712896465000,-0.072000000000
15.720583865000,-0.084000000000
15.728271265000,-0.081000000000
15.735958665000,-0.081000000000
15.743646065000,-0.081000000000
15.751333465000,-0.079000000000
15.759020865000,-0.079000000000
15.766708265000,-0.088000000000
15.774395665000,-0.117000000000
15.782083065000,-0.048000000000
15.789770465000,0.358000000000
15.797457865000,0.942000000000
15.805145265000,0.981000000000
15.812832665000,0.206000000000
15.820520065000,-0.555000000000
15.828207465000,-0.562000000000
15.835894910000,-0.286000000000
15.843582171000,-0.269000000000
15.851269432000,-0.242000000000
15.858956693000,-0.105000000000
15.866643954000,-0.084000000000
15.874331215000,-0.110000000000
15.882018476000,-0.079000000000
15.889705737000,-0.057000000000
15.897392998000,-0.064000000000
15.905080259000,-0.057000000000
15.912767520000,-0.045000000000
15.920454781000,-0.043000000000
15.928142042000,-0.038000000000
15.935829303000,-0.028000000000
15.943516564000,-0.021000000000
15.951203825000,-0.016000000000
15.958891086000,-0.012000000000
15.966578347000,-0.004000000000
15.974265608000,0.002000000000
15.981952869000,0.009000000000
15.989640130000,0.019000000000
15.997327391000,0.028000000000
16.005014652000,0.036000000000
16.012701913000,0.050000000000
16.020389174000,0.064000000000
16.028076435000,0.076000000000
16.035763696000,0.088000000000
16.043450957000,0.101000000000
16.051138218000,0.108000000000
16.058825479000,0.113000000000
16.066512740000,0.117000000000
16.074200001000,0.115000000000
16.081887262000,0.105000000000
16.089574523000,0.086000000000
16.097261784000,0.062000000000
16.104949045000,0.033000000000
16.112636306000,-0.002000000000
16.120323567000,-0.040000000000
16.128010828000,-0.074000000000
16.135698089000,-0.098000000000
16.143385350000,-0.115000000000
16.151072611000,-0.127000000000
16.158759872000,-0.134000000000
16.166447133000,-0.137000000000
16.174134394000,-0.139000000000
16.181821655000,-0.139000000000
16.189508916000,-0.137000000000
16.197196177000,-0.137000000000
16.204883438000,-0.139000000000
16.212570699000,-0.141000000000
16.220257960000,-0.141000000000
16.227945221000,-0.144000000000
16.235632482000,-0.146000000000
16.243319743000,-0.149000000000
16.251007004000,-0.149000000000
16.258694265000,-0.146000000000
16.266381526000,-0.146000000000
16.274068787000,-0.146000000000
16.281756048000,-0.144000000000
16.289443309000,-0.141000000000
16.297130570000,-0.141000000000
16.304817831000,-0.137000000000
16.312505092000,-0.137000000000
16.320192353000,-0.134000000000
16.327879614000,-0.129000000000
16.335566875000,-0.127000000000
16.343254136000,-0.125000000000
16.350941397000,-0.122000000000
16.358628658000,-0.117000000000
16.366315919000,-0.115000000000
16.374003180000,-0.113000000000
16.381690441000,-0.110000000000
16.389377702000,-0.105000000000
16.397064977000,-0.103000000000
16.404752516000,-0.101000000000
16.412440055000,-0.098000000000
16.420127594000,-0.098000000000
16.427815133000,-0.096000000000
16.435502672000,-0.096000000000
16.443190211000,-0.098000000000
16.450877750000,-0.108000000000
16.458565289000,-0.113000000000
16.466252828000,-0.110000000000
16.473940367000,-0.098000000000
16.481627906000,-0.084000000000
16.489315445000,-0.072000000000
16.497002984000,-0.060000000000
16.504690523000,-0.043000000000
16.512378062000,-0.043000000000
16.520065601000,-0.062000000000
16.527753140000,-0.072000000000
16.535440679000,-0.072000000000
16.543128218000,-0.072000000000
16.550815757000,-0.072000000000
16.558503296000,-0.067000000000
16.566190835000,-0.067000000000
16.573878374000,-0.084000000000
16.581565913000,-0.134000000000
16.589253452000,-0.110000000000
16.596940991000,0.245000000000
16.604628530000,0.868000000000
16.612316069000,1.130000000000
16.620003608000,0.596000000000
16.627691147000,-0.233000000000
16.635378686000,-0.466000000000
16.643066225000,-0.228000000000
16.650753764000,-0.192000000000
16.658441303000,-0.238000000000
16.666128842000,-0.139000000000
16.673816381000,-0.103000000000
16.681503920000,-0.134000000000
16.689191459000,-0.110000000000
16.696878998000,-0.081000000000
16.704566537000,-0.084000000000
16.712254076000,-0.079000000000
16.719941615000,-0.064000000000
16.727629154000,-0.062000000000
16.735316693000,-0.060000000000
16.743004232000,-0.048000000000
16.750691771000,-0.043000000000
16.758379310000,-0.038000000000
16.766066849000,-0.031000000000
16.773754388000,-0.024000000000
16.781441927000,-0.019000000000
16.789129466000,-0.012000000000
16.796817005000,-0.007000000000
16.804504544000,-0.002000000000
16.812192083000,0.004000000000
16.819879622000,0.012000000000
16.827567161000,0.014000000000
16.835254700000,0.019000000000
16.842942239000,0.021000000000
16.850629778000,0.024000000000
16.858317317000,0.026000000000
16.866004856000,0.028000000000
16.873692395000,0.033000000000
16.881379934000,0.038000000000
16.889067473000,0.043000000000
16.896755012000,0.040000000000
16.904442551000,0.031000000000
16.912130090000,0.019000000000
16.919817629000,0.004000000000
16.927505168000,-0.016000000000
16.935192707000,-0.040000000000
16.942880246000,-0.062000000000
16.950567785000,-0.076000000000
16.958255396000,-0.088000000000
16.965942517000,-0.096000000000
16.973629638000,-0.101000000000
16.981316759000,-0.105000000000
16.989003880000,-0.108000000000
16.996691001000,-0.105000000000
17.004378122000,-0.108000000000
17.012065243000,-0.110000000000
17.019752364000,-0.113000000000
17.027439485000,-0.113000000000
17.035126606000,-0.115000000000
17.042813727000,-0.117000000000
17.050500848000,-0.120000000000
17.058187969000,-0.120000000000
17.065875090000,-0.120000000000
17.073562211000,-0.120000000000
17.081249332000,-0.117000000000
17.088936453000,-0.117000000000
17.096623574000,-0.115000000000
17.104310695000,-0.115000000000
17.111997816000,-0.113000000000
17.119684937000,-0.110000000000
17.127372058000,-0.110000000000
17.135059179000,-0.108000000000
17.142746300000,-0.105000000000
17.150433421000,-0.103000000000
17.158120542000,-0.103000000000
17.165807663000,-0.101000000000
17.173494784000,-0.098000000000
17.181181905000,-0.096000000000
17.188869026000,-0.096000000000
17.196556147000,-0.093000000000
17.204243268000,-0.091000000000
17.211930389000,-0.091000000000
17.219617510000,-0.091000000000
17.227304631000,-0.091000000000
17.234991752000,-0.088000000000
17.242678873000,-0.086000000000
17.250365994000,-0.086000000000
17.258053115000,-0.086000000000
17.265740236000,-0.084000000000
17.273427357000,-0.084000000000
17.281114478000,-0.084000000000
17.288801599000,-0.086000000000
17.296488720000,-0.091000000000
17.304175841000,-0.101000000000
17.311862962000,-0.105000000000
17.319550083000,-0.105000000000
17.327237204000,-0.098000000000
17.334924325000,-0.084000000000
17.342611446000,-0.074000000000
17.350298567000,-0.062000000000
17.357985688000,-0.045000000000
17.365672809000,-0.048000000000
17.373359930000,-0.072000000000
17.381047051000,-0.084000000000
17.388734172000,-0.081000000000
17.396421293000,-0.084000000000
17.404108414000,-0.086000000000
17.411795535000,-0.081000000000
17.419482656000,-0.081000000000
17.427169777000,-0.101000000000
17.434856898000,-0.149000000000
17.442544019000,-0.122000000000
17.450231140000,0.238000000000
17.457918261000,0.846000000000
17.465605382000,1.070000000000
17.473292503000,0.512000000000
17.480979624000,-0.283000000000
17.488666745000,-0.473000000000
17.496353866000,-0.242000000000
17.504040987000,-0.223000000000
17.511728108000,-0.262000000000
17.519415293000,-0.161000000000
17.527102554000,-0.132000000000
17.534789815000,-0.161000000000
17.542477076000,-0.134000000000
17.550164337000,-0.110000000000
17.557851598000,-0.117000000000
17.565538859000,-0.110000000000
17.573226120000,-0.098000000000
17.580913381000,-0.096000000000
17.588600642000,-0.091000000000
17.596287903000,-0.081000000000
17.603975164000,-0.076000000000
17.611662425000,-0.072000000000
17.619349686000,-0.067000000000
17.627036947000,-0.060000000000
17.634724208000,-0.055000000000
17.642411469000,-0.050000000000
17.650098730000,-0.045000000000
17.657785991000,-0.040000000000
17.665473252000,-0.033000000000
17.673160513000,-0.028000000000
17.680847774000,-0.024000000000
17.688535035000,-0.021000000000
17.696222296000,-0.016000000000
17.703909557000,-0.014000000000
17.711596818000,-0.012000000000
17.719284079000,-0.007000000000
17.726971340000,-0.002000000000
17.734658601000,0.004000000000
17.742345862000,0.007000000000
17.750033123000,0.004000000000
17.757720384000,-0.002000000000
17.765407645000,-0.014000000000
17.773094906000,-0.028000000000
17.780782167000,-0.050000000000
17.788469428000,-0.074000000000
17.796156689000,-0.098000000000
17.803843950000,-0.115000000000
17.811531211000,-0.127000000000
17.819218472000,-0.134000000000
17.826905733000,-0.139000000000
17.834592994000,-0.141000000000
17.842280255000,-0.144000000000
17.849967516000,-0.144000000000
17.857654777000,-0.144000000000
17.865342038000,-0.146000000000
17.873029299000,-0.149000000000
17.880716560000,-0.149000000000
17.888403821000,-0.149000000000
17.896091082000,-0.151000000000
17.903778343000,-0.151000000000
17.911465604000,-0.151000000000
17.919152865000,-0.151000000000
17.926840126000,-0.149000000000
17.934527387000,-0.149000000000
17.942214648000,-0.146000000000
17.949901909000,-0.144000000000
17.957589170000,-0.141000000000
17.965276431000,-0.139000000000
17.972963692000,-0.139000000000
17.980650953000,-0.137000000000
17.988338214000,-0.134000000000
17.996025475000,-0.132000000000
18.003712736000,-0.129000000000
18.011399997000,-0.127000000000
18.019087258000,-0.122000000000
18.026774519000,-0.120000000000
18.034461780000,-0.117000000000
18.042149041000,-0.117000000000
18.049836302000,-0.115000000000
18.057523563000,-0.113000000000
18.065210824000,-0.110000000000
18.072898085000,-0.110000000000
18.080585364000,-0.105000000000
18.088272764000,-0.103000000000
18.095960164000,-0.103000000000
18.103647564000,-0.101000000000
18.111334964000,-0.098000000000
18.119022364000,-0.096000000000
18.126709764000,-0.093000000000
18.134397164000,-0.093000000000
18.142084564000,-0.091000000000
18.149771964000,-0.088000000000
18.157459364000,-0.088000000000
18.165146764000,-0.084000000000
18.172834164000,-0.084000000000
18.180521564000,-0.086000000000
18.188208964000,-0.093000000000
18.195896364000,-0.101000000000
18.203583764000,-0.103000000000
18.211271164000,-0.098000000000
18.218958564000,-0.084000000000
18.226645964000,-0.064000000000
18.234333364000,-0.055000000000
18.242020764000,-0.045000000000
18.249708164000,-0.033000000000
18.257395564000,-0.043000000000
18.265082964000,-0.064000000000
18.272770364000,-0.069000000000
18.280457764000,-0.067000000000
18.288145164000,-0.067000000000
18.295832564000,-0.064000000000
18.303519964000,-0.062000000000
18.311207364000,-0.067000000000
18.318894764000,-0.098000000000
18.326582164000,-0.137000000000
18.334269564000,0.016000000000
18.341956964000,0.538000000000
18.349644364000,1.038000000000
18.357331764000,0.880000000000
18.365019164000,0.103000000000
18.372706564000,-0.444000000000
18.380393964000,-0.336000000000
18.388081364000,-0.175000000000
18.395768764000,-0.230000000000
18.403456164000,-0.185000000000
18.411143564000,-0.096000000000
18.418830964000,-0.113000000000
18.426518364000,-0.117000000000
18.434205764000,-0.079000000000
18.441893164000,-0.072000000000
18.449580564000,-0.076000000000
18.457267964000,-0.062000000000
18.464955364000,-0.052000000000
18.472642764000,-0.050000000000
18.480330164000,-0.045000000000
18.488017564000,-0.033000000000
18.495704964000,-0.028000000000
18.503392364000,-0.024000000000
18.511079764000,-0.019000000000
18.518767164000,-0.012000000000
18.526454564000,-0.004000000000
18.534141964000,0.000000000000
18.541829364000,0.004000000000
18.549516764000,0.009000000000
18.557204164000,0.016000000000
18.564891564000,0.024000000000
18.572578964000,0.031000000000
18.580266364000,0.038000000000
18.587953764000,0.043000000000
18.595641164000,0.050000000000
18.603328564000,0.057000000000
18.611015964000,0.062000000000
18.618703364000,0.069000000000
18.626390764000,0.074000000000
18.634078164000,0.072000000000
18.641765605000,0.064000000000
18.649453005000,0.052000000000
18.657140405000,0.038000000000
18.664827805000,0.016000000000
18.672515205000,-0.007000000000
18.680202605000,-0.033000000000
18.687890005000,-0.055000000000
18.695577405000,-0.069000000000
18.703264805000,-0.081000000000
18.710952205000,-0.088000000000
18.718639605000,-0.093000000000
18.726327005000,-0.096000000000
18.734014405000,-0.096000000000
18.741701805000,-0.098000000000
18.749389205000,-0.098000000000
18.757076605000,-0.098000000000
18.764764005000,-0.101000000000
18.772451405000,-0.101000000000
18.780138805000,-0.098000000000
18.787826205000,-0.098000000000
18.795513605000,-0.101000000000
18.803201005000,-0.101000000000
18.810888405000,-0.101000000000
18.818575805000,-0.098000000000
18.826263205000,-0.096000000000
18.833950605000,-0.096000000000
18.841638005000,-0.096000000000
18.849325405000,-0.093000000000
18.857012805000,-0.088000000000
18.864700205000,-0.088000000000
18.872387605000,-0.086000000000
18.880075005000,-0.084000000000
18.887762405000,-0.081000000000
18.895449805000,-0.079000000000
18.903137205000,-0.076000000000
18.910824605000,-0.074000000000
18.918512005000,-0.072000000000
18.926199405000,-0.069000000000
18.933886805000,-0.067000000000
18.941574205000,-0.064000000000
18.949261605000,-0.062000000000
18.956949005000,-0.062000000000
18.964636405000,-0.060000000000
18.972323805000,-0.057000000000
18.980011205000,-0.055000000000
18.987698605000,-0.055000000000
18.995386005000,-0.055000000000
19.003073405000,-0.052000000000
19.010760805000,-0.050000000000
19.018448205000,-0.048000000000
19.026135605000,-0.045000000000
19.033823005000,-0.043000000000
19.041510405000,-0.043000000000
19.049197805000,-0.048000000000
19.056885205000,-0.055000000000
19.064572605000,-0.060000000000
19.072260005000,-0.062000000000
19.079947405000,-0.055000000000
19.087634805000,-0.043000000000
19.095322205000,-0.031000000000
19.103009605000,-0.019000000000
19.110697005000,-0.002000000000
19.118384405000,0.004000000000
19.126071805000,-0.014000000000
19.133759205000,-0.031000000000
19.141446605000,-0.031000000000
19.149134005000,-0.033000000000
19.156821405000,-0.033000000000
19.164508805000,-0.028000000000
19.172196205000,-0.031000000000
19.179883605000,-0.043000000000
19.187571005000,-0.076000000000
19.195258405000,-0.079000000000
19.202945850000,0.192000000000
19.210633111000,0.771000000000
19.218320372000,1.070000000000
19.226007633000,0.598000000000
19.233694894000,-0.189000000000
19.241382155000,-0.454000000000
19.249069416000,-0.240000000000
19.256756677000,-0.175000000000
19.264443938000,-0.209000000000
19.272131199000,-0.113000000000
19.279818460000,-0.062000000000
19.287505721000,-0.093000000000
19.295192982000,-0.076000000000
19.302880243000,-0.043000000000
19.310567504000,-0.045000000000
19.318254765000,-0.045000000000
19.325942026000,-0.031000000000
19.333629287000,-0.026000000000
19.341316548000,-0.026000000000
19.349003809000,-0.014000000000
19.356691070000,-0.004000000000
19.364378331000,-0.002000000000
19.372065592000,0.004000000000
19.379752853000,0.012000000000
19.387440114000,0.019000000000
19.395127375000,0.024000000000
19.402814636000,0.031000000000
19.410501897000,0.038000000000
19.418189158000,0.048000000000
19.425876419000,0.060000000000
19.433563680000,0.067000000000
19.441250941000,0.072000000000
19.448938202000,0.081000000000
19.456625463000,0.088000000000
19.464312724000,0.093000000000
19.471999985000,0.098000000000
19.479687246000,0.103000000000
19.487374507000,0.108000000000
19.495061768000,0.108000000000
19.502749029000,0.098000000000
19.510436290000,0.081000000000
19.518123551000,0.062000000000
19.525810812000,0.038000000000
19.533498073000,0.004000000000
19.541185334000,-0.028000000000
19.548872595000,-0.055000000000
19.556559856000,-0.074000000000
19.564247117000,-0.088000000000
19.571934378000,-0.096000000000
19.579621639000,-0.101000000000
19.587308900000,-0.103000000000
19.594996161000,-0.101000000000
19.602683422000,-0.105000000000
19.610370683000,-0.108000000000
19.618057944000,-0.108000000000
19.625745205000,-0.110000000000
19.633432466000,-0.113000000000
19.641119727000,-0.110000000000
19.648806988000,-0.113000000000
19.656494249000,-0.117000000000
19.664181510000,-0.115000000000
19.671868771000,-0.113000000000
19.679556032000,-0.117000000000
19.687243293000,-0.117000000000
19.694930554000,-0.117000000000
19.702617815000,-0.115000000000
19.710305076000,-0.110000000000
19.717992337000,-0.113000000000
19.725679598000,-0.110000000000
19.733366859000,-0.105000000000
19.741054120000,-0.105000000000
19.748741381000,-0.108000000000
19.756428642000,-0.103000000000
19.764115917000,-0.098000000000
19.771803456000,-0.103000000000
19.779490995000,-0.098000000000
19.787178534000,-0.091000000000
19.794866073000,-0.091000000000
19.802553612000,-0.093000000000
19.810241151000,-0.096000000000
19.817928690000,-0.101000000000
19.825616229000,-0.103000000000
19.833303768000,-0.098000000000
19.840991307000,-0.091000000000
19.848678846000,-0.079000000000
19.856366385000,-0.074000000000
19.864053924000,-0.067000000000
19.871741463000,-0.043000000000
19.879429002000,-0.033000000000
19.887116541000,-0.057000000000
19.894804080000,-0.074000000000
19.902491619000,-0.067000000000
19.910179158000,-0.069000000000
19.917866697000,-0.072000000000
19.925554236000,-0.067000000000
19.933241775000,-0.067000000000
19.940929314000,-0.076000000000
19.948616853000,-0.093000000000
19.956304392000,-0.055000000000
19.963991931000,0.276000000000
19.971679470000,0.882000000000
19.979367009000,1.065000000000
19.987054548000,0.372000000000
19.994742087000,-0.478000000000
20.002429626000,-0.610000000000
20.010117165000,-0.324000000000
20.017804704000,-0.262000000000
20.025492243000,-0.257000000000
20.033179782000,-0.120000000000
20.040867321000,-0.067000000000
20.048554860000,-0.093000000000
20.056242399000,-0.069000000000
20.063929938000,-0.043000000000
20.071617477000,-0.043000000000
20.079305016000,-0.036000000000
20.086992555000,-0.021000000000
20.094680094000,-0.016000000000
20.102367633000,-0.012000000000
20.110055172000,-0.007000000000
20.117742711000,0.000000000000
20.125430250000,0.009000000000
20.133117789000,0.019000000000
20.140805328000,0.026000000000
20.148492867000,0.036000000000
20.156180406000,0.045000000000
20.163867945000,0.057000000000
20.171555484000,0.069000000000
20.179243023000,0.081000000000
20.186930562000,0.101000000000
20.194618101000,0.117000000000
20.202305640000,0.132000000000
20.209993179000,0.144000000000
20.217680718000,0.153000000000
20.225368257000,0.158000000000
20.233055796000,0.161000000000
20.240743335000,0.161000000000
20.248430874000,0.153000000000
20.256118413000,0.134000000000
20.263805952000,0.103000000000
20.271493491000,0.067000000000
20.279181030000,0.024000000000
20.286868569000,-0.021000000000
20.294556108000,-0.064000000000
20.302243647000,-0.098000000000
20.309931186000,-0.125000000000
20.317618725000,-0.139000000000
20.325306336000,-0.146000000000
20.332993527000,-0.149000000000
20.340680718000,-0.151000000000
20.348367909000,-0.149000000000
20.356055100000,-0.146000000000
20.363742291000,-0.146000000000
20.371429482000,-0.144000000000
20.379116673000,-0.144000000000
20.386803864000,-0.146000000000
20.394491055000,-0.146000000000
20.402178246000,-0.149000000000
20.409865437000,-0.149000000000
20.417552628000,-0.151000000000
20.425239819000,-0.151000000000
20.432927010000,-0.151000000000
20.440614201000,-0.151000000000
20.448301392000,-0.151000000000
20.455988583000,-0.149000000000
20.463675774000,-0.146000000000
20.471362965000,-0.144000000000
20.479050156000,-0.141000000000
20.486737347000,-0.139000000000
20.494424538000,-0.134000000000
20.502111729000,-0.132000000000
20.509798920000,-0.137000000000
20.517486111000,-0.141000000000
20.525173302000,-0.144000000000
20.532860493000,-0.141000000000
20.540547684000,-0.132000000000
20.548234875000,-0.120000000000
20.555922066000,-0.110000000000
20.563609257000,-0.096000000000
20.571296448000,-0.074000000000
20.578983639000,-0.072000000000
20.586670830000,-0.093000000000
20.594358021000,-0.101000000000
20.602045212000,-0.096000000000
20.609732403000,-0.098000000000
20.617419594000,-0.096000000000
20.625106785000,-0.091000000000
20.632793976000,-0.091000000000
20.640481167000,-0.101000000000
20.648168358000,-0.139000000000
20.655855549000,-0.125000000000
20.663542740000,0.199000000000
20.671229931000,0.834000000000
20.678917122000,1.125000000000
20.686604313000,0.565000000000
20.694291504000,-0.315000000000
20.701978695000,-0.574000000000
20.709665886000,-0.312000000000
20.717353077000,-0.226000000000
20.725040268000,-0.257000000000
20.732727459000,-0.153000000000
20.740414650000,-0.098000000000
20.748101841000,-0.127000000000
20.755789032000,-0.108000000000
20.763476223000,-0.076000000000
20.771163414000,-0.076000000000
20.778850605000,-0.072000000000
20.786537796000,-0.055000000000
20.794224987000,-0.050000000000
20.801912178000,-0.045000000000
20.809599369000,-0.036000000000
20.817286560000,-0.028000000000
20.824973751000,-0.019000000000
20.832660942000,-0.009000000000
20.840348133000,0.000000000000
20.848035324000,0.007000000000
20.855722515000,0.016000000000
20.863409706000,0.026000000000
20.871096897000,0.038000000000
20.878784088000,0.050000000000
20.886471320000,0.062000000000
20.894158511000,0.072000000000
20.901845702000,0.084000000000
20.909532893000,0.091000000000
20.917220084000,0.096000000000
20.924907275000,0.096000000000
20.932594466000,0.098000000000
20.940281657000,0.101000000000
20.947968848000,0.101000000000
20.955656039000,0.088000000000
20.963343230000,0.067000000000
20.971030421000,0.036000000000
20.978717612000,0.004000000000
20.986404803000,-0.028000000000
20.994091994000,-0.064000000000
21.001779185000,-0.088000000000
21.009466376000,-0.108000000000
21.017153567000,-0.117000000000
21.024840758000,-0.125000000000
21.032527949000,-0.127000000000
21.040215140000,-0.127000000000
21.047902331000,-0.127000000000
21.055589522000,-0.125000000000
21.063276713000,-0.125000000000
21.070963904000,-0.125000000000
21.078651095000,-0.125000000000
21.086338286000,-0.125000000000
21.094025477000,-0.127000000000
21.101712668000,-0.127000000000
21.109399859000,-0.127000000000
21.117087050000,-0.127000000000
21.124774241000,-0.127000000000
21.132461432000,-0.127000000000
21.140148623000,-0.127000000000
21.147835814000,-0.127000000000
21.155523005000,-0.125000000000
21.163210196000,-0.122000000000
21.170897387000,-0.120000000000
21.178584578000,-0.115000000000
21.186271769000,-0.115000000000
21.193958960000,-0.120000000000
21.201646151000,-0.125000000000
21.209333342000,-0.127000000000
21.217020533000,-0.125000000000
21.224707724000,-0.117000000000
21.232394915000,-0.101000000000
21.240082106000,-0.088000000000
21.247769297000,-0.074000000000
21.255456488000,-0.052000000000
21.263143679000,-0.050000000000
21.270830870000,-0.072000000000
21.278518061000,-0.081000000000
21.286205252000,-0.079000000000
21.293892443000,-0.079000000000
21.301579634000,-0.081000000000
21.309266825000,-0.076000000000
21.316954016000,-0.074000000000
21.324641207000,-0.081000000000
21.332328398000,-0.122000000000
21.340015589000,-0.156000000000
21.347702780000,0.062000000000
21.355389971000,0.658000000000
21.363077162000,1.137000000000
21.370764353000,0.856000000000
21.378451544000,0.002000000000
21.386138735000,-0.480000000000
21.393825926000,-0.305000000000
21.401513117000,-0.173000000000
21.409200308000,-0.240000000000
21.416887499000,-0.175000000000
21.424574690000,-0.098000000000
21.432261881000,-0.127000000000
21.439949072000,-0.120000000000
21.447636304000,-0.081000000000
21.455323704000,-0.079000000000
21.463011104000,-0.076000000000
21.470698504000,-0.057000000000
21.478385904000,-0.050000000000
21.486073304000,-0.048000000000
21.493760704000,-0.038000000000
21.501448104000,-0.031000000000
21.509135504000,-0.024000000000
21.516822904000,-0.016000000000
21.524510304000,-0.009000000000
21.532197704000,0.000000000000
21.539885104000,0.009000000000
21.547572504000,0.016000000000
21.555259904000,0.028000000000
21.562947304000,0.036000000000
21.570634704000,0.043000000000
21.578322104000,0.052000000000
21.586009504000,0.060000000000
21.593696904000,0.062000000000
21.601384304000,0.060000000000
21.609071704000,0.060000000000
21.616759104000,0.062000000000
21.624446504000,0.062000000000
21.632133904000,0.064000000000
21.639821304000,0.060000000000
21.647508704000,0.043000000000
21.655196104000,0.021000000000
21.662883504000,0.000000000000
21.670570904000,-0.024000000000
21.678258304000,-0.050000000000
21.685945704000,-0.072000000000
21.693633104000,-0.091000000000
21.701320504000,-0.101000000000
21.709007904000,-0.108000000000
21.716695304000,-0.108000000000
21.724382704000,-0.110000000000
21.732070104000,-0.110000000000
21.739757504000,-0.108000000000
21.747444904000,-0.108000000000
21.755132304000,-0.105000000000
21.762819704000,-0.105000000000
21.770507104000,-0.105000000000
21.778194504000,-0.108000000000
21.785881904000,-0.108000000000
21.793569304000,-0.110000000000
21.801256704000,-0.110000000000
21.808944104000,-0.110000000000
21.816631504000,-0.108000000000
21.824318904000,-0.108000000000
21.832006304000,-0.110000000000
21.839693704000,-0.108000000000
21.847381104000,-0.105000000000
21.855068504000,-0.103000000000
21.862755904000,-0.103000000000
21.870443304000,-0.103000000000
21.878130704000,-0.101000000000
21.885818104000,-0.098000000000
21.893505504000,-0.096000000000
21.901192904000,-0.093000000000
21.908880304000,-0.088000000000
21.916567704000,-0.086000000000
21.924255104000,-0.086000000000
21.931942504000,-0.084000000000
21.939629904000,-0.081000000000
21.947317304000,-0.079000000000
21.955004704000,-0.079000000000
21.962692104000,-0.076000000000
21.970379504000,-0.079000000000
21.978066904000,-0.084000000000
21.985754304000,-0.091000000000
21.993441704000,-0.093000000000
22.001129104000,-0.091000000000
22.008816545000,-0.076000000000
22.016503666000,-0.062000000000
22.024190787000,-0.052000000000
22.031877908000,-0.036000000000
22.039565029000,-0.021000000000
22.047252150000,-0.036000000000
22.054939271000,-0.057000000000
22.062626392000,-0.062000000000
22.070313513000,-0.060000000000
22.078000634000,-0.060000000000
22.085687755000,-0.057000000000
22.093374876000,-0.055000000000
22.101061997000,-0.057000000000
22.108749118000,-0.074000000000
22.116436239000,-0.125000000000
22.124123360000,-0.113000000000
22.131810481000,0.230000000000
22.139497602000,0.851000000000
22.147184723000,1.108000000000
22.154871844000,0.565000000000
22.162558965000,-0.240000000000
22.170246086000,-0.454000000000
22.177933207000,-0.226000000000
22.185620328000,-0.197000000000
22.193307449000,-0.235000000000
22.200994570000,-0.139000000000
22.208681691000,-0.110000000000
22.216368812000,-0.141000000000
22.224055933000,-0.115000000000
22.231743054000,-0.091000000000
22.239430175000,-0.098000000000
22.247117296000,-0.091000000000
22.254804417000,-0.081000000000
22.262491538000,-0.079000000000
22.270178659000,-0.074000000000
22.277865780000,-0.067000000000
22.285552901000,-0.064000000000
22.293240022000,-0.060000000000
22.300927143000,-0.055000000000
22.308614264000,-0.052000000000
22.316301385000,-0.048000000000
22.323988506000,-0.043000000000
22.331675627000,-0.036000000000
22.339362748000,-0.031000000000
22.347049869000,-0.028000000000
22.354736990000,-0.026000000000
22.362424111000,-0.024000000000
22.370111232000,-0.021000000000
22.377798353000,-0.021000000000
22.385485474000,-0.024000000000
22.393172595000,-0.026000000000
22.400859716000,-0.024000000000
22.408546837000,-0.024000000000
22.416233958000,-0.024000000000
22.423921079000,-0.026000000000
22.431608200000,-0.038000000000
22.439295321000,-0.052000000000
22.446982442000,-0.072000000000
22.454669563000,-0.096000000000
22.462356684000,-0.122000000000
22.470043805000,-0.151000000000
22.477730926000,-0.173000000000
22.485418047000,-0.187000000000
22.493105168000,-0.199000000000
22.500792289000,-0.206000000000
22.508479410000,-0.211000000000
22.516166531000,-0.214000000000
22.523853652000,-0.214000000000
22.531540773000,-0.218000000000
22.539227894000,-0.221000000000
22.546915015000,-0.221000000000
22.554602136000,-0.226000000000
22.562289257000,-0.230000000000
22.569976442000,-0.235000000000
22.577663912000,-0.238000000000
22.585351382000,-0.240000000000
22.593038852000,-0.245000000000
22.600726322000,-0.247000000000
22.608413792000,-0.247000000000
22.616101262000,-0.250000000000
22.623788732000,-0.250000000000
22.631476202000,-0.247000000000
22.639163672000,-0.247000000000
22.646851142000,-0.250000000000
22.654538612000,-0.252000000000
22.662226082000,-0.250000000000
22.669913552000,-0.247000000000
22.677601022000,-0.247000000000
22.685288492000,-0.247000000000
22.692975962000,-0.247000000000
22.700663432000,-0.247000000000
22.708350902000,-0.245000000000
22.716038372000,-0.242000000000
22.723725842000,-0.242000000000
22.731413312000,-0.240000000000
22.739100782000,-0.235000000000
22.746788252000,-0.233000000000
22.754475722000,-0.233000000000
22.762163192000,-0.233000000000
22.769850662000,-0.233000000000
22.777538132000,-0.230000000000
22.785225602000,-0.230000000000
22.792913072000,-0.230000000000
22.800600542000,-0.228000000000
22.808288012000,-0.223000000000
22.815975482000,-0.223000000000
22.823662952000,-0.221000000000
22.831350422000,-0.221000000000
22.839037892000,-0.221000000000
22.846725362000,-0.228000000000
22.854412832000,-0.235000000000
22.862100302000,-0.235000000000
22.869787772000,-0.230000000000
22.877475242000,-0.214000000000
22.885162712000,-0.197000000000
22.892850182000,-0.185000000000
22.900537652000,-0.175000000000
22.908225122000,-0.165000000000
22.915912592000,-0.173000000000
22.923600062000,-0.192000000000
22.931287532000,-0.199000000000
22.938975002000,-0.194000000000
22.946662472000,-0.192000000000
22.954349942000,-0.189000000000
22.962037412000,-0.185000000000
22.969724882000,-0.185000000000
22.977412352000,-0.197000000000
22.985099822000,-0.242000000000
22.992787292000,-0.233000000000
23.000474762000,0.093000000000
23.008162232000,0.714000000000
23.015849702000,0.976000000000
23.023537172000,0.435000000000
23.031224642000,-0.370000000000
23.038912112000,-0.596000000000
23.046599582000,-0.360000000000
23.054287052000,-0.305000000000
23.061974522000,-0.339000000000
23.069661992000,-0.240000000000
23.077349462000,-0.197000000000
23.085036932000,-0.226000000000
23.092724402000,-0.202000000000
23.100411872000,-0.170000000000
23.108099342000,-0.173000000000
23.115786812000,-0.165000000000
23.123474282000,-0.149000000000
23.131161774000,-0.139000000000
23.138848965000,-0.129000000000
23.146536156000,-0.122000000000
23.154223347000,-0.117000000000
23.161910538000,-0.105000000000
23.169597729000,-0.093000000000
23.177284920000,-0.086000000000
23.184972111000,-0.076000000000
23.192659302000,-0.064000000000
23.200346493000,-0.057000000000
23.208033684000,-0.048000000000
23.215720875000,-0.036000000000
23.223408066000,-0.026000000000
23.231095257000,-0.019000000000
23.238782448000,-0.009000000000
23.246469639000,-0.007000000000
23.254156830000,-0.004000000000
23.261844021000,0.000000000000
23.269531212000,0.007000000000
23.277218403000,0.014000000000
23.284905594000,0.019000000000
23.292592785000,0.019000000000
23.300279976000,0.014000000000
23.307967167000,0.000000000000
23.315654358000,-0.016000000000
23.323341549000,-0.036000000000
23.331028740000,-0.060000000000
23.338715931000,-0.088000000000
23.346403122000,-0.110000000000
23.354090313000,-0.125000000000
23.361777504000,-0.132000000000
23.369464695000,-0.137000000000
23.377151886000,-0.137000000000
23.384839077000,-0.134000000000
23.392526268000,-0.132000000000
23.400213459000,-0.134000000000
23.407900650000,-0.134000000000
23.415587841000,-0.132000000000
23.423275032000,-0.127000000000
23.430962223000,-0.129000000000
23.438649414000,-0.134000000000
23.446336605000,-0.134000000000
23.454023796000,-0.134000000000
23.461710987000,-0.137000000000
23.469398178000,-0.137000000000
23.477085369000,-0.137000000000
23.484772560000,-0.137000000000
23.492459751000,-0.134000000000
23.500146942000,-0.129000000000
23.507834133000,-0.127000000000
23.515521324000,-0.125000000000
23.523208515000,-0.122000000000
23.530895706000,-0.117000000000
23.538582897000,-0.115000000000
23.546270088000,-0.113000000000
23.553957279000,-0.108000000000
23.561644470000,-0.105000000000
23.569331661000,-0.103000000000
23.577018852000,-0.101000000000
23.584706043000,-0.098000000000
23.592393234000,-0.093000000000
23.600080425000,-0.091000000000
23.607767616000,-0.088000000000
23.615454807000,-0.086000000000
23.623141998000,-0.084000000000
23.630829189000,-0.081000000000
23.638516380000,-0.079000000000
23.646203571000,-0.076000000000
23.653890762000,-0.074000000000
23.661577953000,-0.072000000000
23.669265144000,-0.069000000000
23.676952335000,-0.067000000000
23.684639526000,-0.064000000000
23.692326754000,-0.064000000000
23.700013945000,-0.072000000000
23.707701136000,-0.074000000000
23.715388327000,-0.074000000000
23.723075518000,-0.072000000000
23.730762709000,-0.057000000000
23.738449900000,-0.040000000000
23.746137091000,-0.033000000000
23.753824282000,-0.019000000000
23.761511473000,-0.007000000000
23.769198664000,-0.024000000000
23.776885855000,-0.040000000000
23.784573046000,-0.043000000000
23.792260237000,-0.040000000000
23.799947428000,-0.040000000000
23.807634619000,-0.038000000000
23.815321810000,-0.033000000000
23.823009001000,-0.036000000000
23.830696192000,-0.060000000000
23.838383383000,-0.091000000000
23.846070574000,0.040000000000
23.853757765000,0.550000000000
23.861444956000,1.084000000000
23.869132147000,0.928000000000
23.876819338000,0.105000000000
23.884506529000,-0.497000000000
23.892193720000,-0.406000000000
23.899880911000,-0.194000000000
23.907568102000,-0.216000000000
23.915255293000,-0.165000000000
23.922942484000,-0.057000000000
23.930629675000,-0.062000000000
23.938316866000,-0.074000000000
23.946004057000,-0.038000000000
23.953691248000,-0.026000000000
23.961378439000,-0.028000000000
23.969065630000,-0.014000000000
23.976752821000,-0.004000000000
23.984440012000,0.000000000000
23.992127203000,0.007000000000
23.999814394000,0.019000000000
24.007501585000,0.026000000000
24.015188776000,0.033000000000
24.022875967000,0.040000000000
24.030563158000,0.050000000000
24.038250349000,0.060000000000
24.045937540000,0.067000000000
24.053624731000,0.076000000000
24.061311922000,0.084000000000
24.068999113000,0.096000000000
24.076686304000,0.105000000000
24.084373495000,0.115000000000
24.092060686000,0.122000000000
24.099747877000,0.127000000000
24.107435068000,0.129000000000
24.115122259000,0.129000000000
24.122809450000,0.132000000000
24.130496641000,0.134000000000
24.138183832000,0.132000000000
24.145871023000,0.122000000000
24.153558214000,0.103000000000
24.161245405000,0.076000000000
24.168932596000,0.045000000000
24.176619787000,0.014000000000
24.184306978000,-0.016000000000
24.191994169000,-0.040000000000
24.199681360000,-0.060000000000
24.207368551000,-0.069000000000
24.215055742000,-0.076000000000
24.222742933000,-0.076000000000
24.230430124000,-0.074000000000
24.238117315000,-0.074000000000
24.245804506000,-0.072000000000
24.253491742000,-0.069000000000
24.261179212000,-0.069000000000
24.268866682000,-0.069000000000
24.276554152000,-0.069000000000
24.284241622000,-0.072000000000
24.291929092000,-0.074000000000
24.299616562000,-0.079000000000
24.307304032000,-0.081000000000
24.314991502000,-0.081000000000
24.322678972000,-0.081000000000
24.330366442000,-0.084000000000
24.338053912000,-0.084000000000
24.345741382000,-0.081000000000
24.353428852000,-0.079000000000
24.361116322000,-0.079000000000
24.368803792000,-0.079000000000
24.376491262000,-0.076000000000
24.384178732000,-0.072000000000
24.391866202000,-0.072000000000
24.399553672000,-0.069000000000
24.407241142000,-0.069000000000
24.414928612000,-0.067000000000
24.422616082000,-0.064000000000
24.430303552000,-0.060000000000
24.437991022000,-0.057000000000
24.445678492000,-0.057000000000
24.453365962000,-0.052000000000
24.461053432000,-0.052000000000
24.468740902000,-0.050000000000
24.476428372000,-0.048000000000
24.484115842000,-0.048000000000
24.491803312000,-0.045000000000
24.499490782000,-0.043000000000
24.507178252000,-0.043000000000
24.514865722000,-0.040000000000
24.522553192000,-0.038000000000
24.530240662000,-0.038000000000
24.537928132000,-0.038000000000
24.545615602000,-0.036000000000
24.553303072000,-0.033000000000
24.560990542000,-0.033000000000
24.568678012000,-0.033000000000
24.576365482000,-0.033000000000
24.584052952000,-0.031000000000
24.591740422000,-0.031000000000
24.599427892000,-0.036000000000
24.607115362000,-0.043000000000
24.614802832000,-0.050000000000
24.622490302000,-0.050000000000
24.630177772000,-0.043000000000
24.637865242000,-0.026000000000
24.645552712000,-0.007000000000
24.653240182000,0.000000000000
24.660927652000,0.004000000000
24.668615122000,0.009000000000
24.676302592000,-0.007000000000
24.683990062000,-0.028000000000
24.691677532000,-0.028000000000
24.699365002000,-0.024000000000
24.707052472000,-0.024000000000
24.714739942000,-0.024000000000
24.722427412000,-0.021000000000
24.730114882000,-0.026000000000
24.737802352000,-0.060000000000
24.745489822000,-0.115000000000
24.753177292000,0.014000000000
24.760864762000,0.538000000000
24.768552232000,1.111000000000
24.776239702000,1.065000000000
24.783927172000,0.312000000000
24.791614642000,-0.336000000000
24.799302112000,-0.303000000000
24.806989582000,-0.129000000000
24.814677070000,-0.192000000000
24.822364191000,-0.175000000000
24.830051312000,-0.081000000000
24.837738433000,-0.093000000000
24.845425554000,-0.105000000000
24.853112675000,-0.069000000000
24.860799796000,-0.060000000000
24.868486917000,-0.064000000000
24.876174038000,-0.048000000000
24.883861159000,-0.038000000000
24.891548280000,-0.036000000000
24.899235401000,-0.028000000000
24.906922522000,-0.019000000000
24.914609643000,-0.014000000000
24.922296764000,-0.004000000000
24.929983885000,0.004000000000
24.937671006000,0.012000000000
24.945358127000,0.019000000000
24.953045248000,0.026000000000
24.960732369000,0.033000000000
24.968419490000,0.043000000000
24.976106611000,0.050000000000
24.983793732000,0.060000000000
24.991480853000,0.067000000000
24.999167974000,0.072000000000
25.006855095000,0.072000000000
25.014542216000,0.072000000000
25.022229337000,0.069000000000
25.029916458000,0.067000000000
25.037603579000,0.064000000000
25.045290700000,0.064000000000
25.052977821000,0.062000000000
25.060664942000,0.055000000000
25.068352063000,0.038000000000
25.076039184000,0.016000000000
25.083726305000,-0.002000000000
25.091413426000,-0.028000000000
25.099100547000,-0.052000000000
25.106787668000,-0.069000000000
25.114474789000,-0.081000000000
25.122161910000,-0.088000000000
25.129849031000,-0.093000000000
25.137536152000,-0.096000000000
25.145223273000,-0.093000000000
25.152910394000,-0.091000000000
25.160597515000,-0.088000000000
25.168284636000,-0.088000000000
25.175971757000,-0.091000000000
25.183658878000,-0.091000000000
25.191345999000,-0.091000000000
25.199033120000,-0.093000000000
25.206720241000,-0.096000000000
25.214407362000,-0.098000000000
25.222094483000,-0.098000000000
25.229781604000,-0.101000000000
25.237468725000,-0.101000000000
25.245155846000,-0.101000000000
25.252842967000,-0.101000000000
25.260530088000,-0.101000000000
25.268217209000,-0.098000000000
25.275904330000,-0.098000000000
25.283591451000,-0.098000000000
25.291278572000,-0.096000000000
25.298965693000,-0.093000000000
25.306652814000,-0.091000000000
25.314339935000,-0.088000000000
25.322027056000,-0.086000000000
25.329714177000,-0.086000000000
25.337401298000,-0.086000000000
25.345088419000,-0.084000000000
25.352775540000,-0.081000000000
25.360462661000,-0.079000000000
25.368149782000,-0.076000000000
25.375836967000,-0.076000000000
25.383524367000,-0.074000000000
25.391211767000,-0.072000000000
25.398899167000,-0.072000000000
25.406586567000,-0.069000000000
25.414273967000,-0.067000000000
25.421961367000,-0.067000000000
25.429648767000,-0.067000000000
25.437336167000,-0.064000000000
25.445023567000,-0.064000000000
25.452710967000,-0.062000000000
25.460398367000,-0.060000000000
25.468085767000,-0.060000000000
25.475773167000,-0.060000000000
25.483460567000,-0.057000000000
25.491147967000,-0.057000000000
25.498835367000,-0.057000000000
25.506522767000,-0.057000000000
25.514210167000,-0.060000000000
25.521897567000,-0.067000000000
25.529584967000,-0.074000000000
25.537272367000,-0.074000000000
25.544959767000,-0.067000000000
25.552647167000,-0.052000000000
25.560334567000,-0.031000000000
25.568021967000,-0.024000000000
25.575709367000,-0.021000000000
25.583396767000,-0.014000000000
25.591084167000,-0.026000000000
25.598771567000,-0.048000000000
25.606458967000,-0.052000000000
25.614146367000,-0.050000000000
25.621833767000,-0.050000000000
25.629521167000,-0.050000000000
25.637208567000,-0.048000000000
25.644895967000,-0.050000000000
25.652583367000,-0.074000000000
25.660270767000,-0.132000000000
25.667958167000,-0.076000000000
25.675645567000,0.346000000000
25.683332967000,0.952000000000
25.691020367000,1.082000000000
25.698707767000,0.456000000000
25.706395167000,-0.283000000000
25.714082567000,-0.389000000000
25.721769967000,-0.180000000000
25.729457367000,-0.197000000000
25.737144767000,-0.218000000000
25.744832167000,-0.120000000000
25.752519567000,-0.105000000000
25.760206967000,-0.129000000000
25.767894367000,-0.098000000000
25.775581767000,-0.079000000000
25.783269167000,-0.084000000000
25.790956567000,-0.074000000000
25.798643967000,-0.060000000000
25.806331367000,-0.055000000000
25.814018767000,-0.050000000000
25.821706167000,-0.038000000000
25.829393567000,-0.033000000000
25.837080967000,-0.026000000000
25.844768367000,-0.016000000000
25.852455767000,-0.009000000000
25.860143167000,-0.002000000000
25.867830567000,0.007000000000
25.875517967000,0.014000000000
25.883205367000,0.021000000000
25.890892767000,0.031000000000
25.898580167000,0.040000000000
25.906267567000,0.050000000000
25.913954967000,0.057000000000
25.921642367000,0.057000000000
25.929329767000,0.060000000000
25.937017212000,0.057000000000
25.944704403000,0.055000000000
25.952391594000,0.052000000000
25.960078785000,0.052000000000
25.967765976000,0.048000000000
25.975453167000,0.038000000000
25.983140358000,0.024000000000
25.990827549000,0.004000000000
25.998514740000,-0.019000000000
26.006201931000,-0.043000000000
26.013889122000,-0.064000000000
26.021576313000,-0.084000000000
26.029263504000,-0.101000000000
26.036950695000,-0.108000000000
26.044637886000,-0.110000000000
26.052325077000,-0.113000000000
26.060012268000,-0.110000000000
26.067699459000,-0.108000000000
26.075386650000,-0.105000000000
26.083073841000,-0.103000000000
26.090761032000,-0.101000000000
26.098448223000,-0.101000000000
26.106135414000,-0.103000000000
26.113822605000,-0.105000000000
26.121509796000,-0.105000000000
26.129196987000,-0.108000000000
26.136884178000,-0.108000000000
26.144571369000,-0.108000000000
26.152258560000,-0.110000000000
26.159945751000,-0.110000000000
26.167632942000,-0.110000000000
26.175320133000,-0.110000000000
26.183007324000,-0.108000000000
26.190694515000,-0.105000000000
26.198381706000,-0.105000000000
26.206068897000,-0.103000000000
26.213756088000,-0.101000000000
26.221443279000,-0.098000000000
26.229130470000,-0.096000000000
26.236817661000,-0.096000000000
26.244504852000,-0.091000000000
26.252192043000,-0.088000000000
26.259879234000,-0.088000000000
26.267566425000,-0.088000000000
26.275253616000,-0.084000000000
26.282940807000,-0.084000000000
26.290627998000,-0.081000000000
26.298315189000,-0.079000000000
26.306002380000,-0.076000000000
26.313689571000,-0.074000000000
26.321376762000,-0.074000000000
26.329063953000,-0.072000000000
26.336751144000,-0.069000000000
26.344438335000,-0.069000000000
26.352125526000,-0.067000000000
26.359812717000,-0.067000000000
26.367499908000,-0.067000000000
26.375187099000,-0.064000000000
26.382874290000,-0.064000000000
26.390561481000,-0.067000000000
26.398248672000,-0.072000000000
26.405935863000,-0.079000000000
26.413623054000,-0.084000000000
26.421310245000,-0.084000000000
26.428997436000,-0.072000000000
26.436684627000,-0.050000000000
26.444371818000,-0.033000000000
26.452059009000,-0.028000000000
26.459746200000,-0.024000000000
26.467433391000,-0.024000000000
26.475120582000,-0.043000000000
26.482807773000,-0.060000000000
26.490494964000,-0.060000000000
26.498182196000,-0.057000000000
26.505869387000,-0.060000000000
26.513556578000,-0.057000000000
26.521243769000,-0.055000000000
26.528930960000,-0.064000000000
26.536618151000,-0.101000000000
26.544305342000,-0.137000000000
26.551992533000,0.055000000000
26.559679724000,0.615000000000
26.567366915000,1.070000000000
26.575054106000,0.810000000000
26.582741297000,0.009000000000
26.590428488000,-0.464000000000
26.598115679000,-0.317000000000
26.605802870000,-0.180000000000
26.613490061000,-0.238000000000
26.621177252000,-0.175000000000
26.628864443000,-0.096000000000
26.636551634000,-0.120000000000
26.644238825000,-0.120000000000
26.651926016000,-0.084000000000
26.659613207000,-0.079000000000
26.667300398000,-0.079000000000
26.674987589000,-0.064000000000
26.682674780000,-0.057000000000
26.690361971000,-0.055000000000
26.698049162000,-0.045000000000
26.705736353000,-0.038000000000
26.713423544000,-0.031000000000
26.721110735000,-0.024000000000
26.728797926000,-0.016000000000
26.736485117000,-0.007000000000
26.744172308000,0.002000000000
26.751859499000,0.009000000000
26.759546690000,0.016000000000
26.767233881000,0.028000000000
26.774921072000,0.040000000000
26.782608263000,0.052000000000
26.790295454000,0.062000000000
26.797982645000,0.067000000000
26.805669836000,0.069000000000
26.813357027000,0.069000000000
26.821044218000,0.067000000000
26.828731409000,0.064000000000
26.836418600000,0.064000000000
26.844105791000,0.062000000000
26.851792982000,0.052000000000
26.859480173000,0.036000000000
26.867167364000,0.009000000000
26.874854555000,-0.016000000000
26.882541746000,-0.043000000000
26.890228937000,-0.069000000000
26.897916128000,-0.093000000000
26.905603319000,-0.108000000000
26.913290510000,-0.117000000000
26.920977701000,-0.125000000000
26.928664892000,-0.127000000000
26.936352083000,-0.125000000000
26.944039274000,-0.125000000000
26.951726465000,-0.122000000000
26.959413656000,-0.120000000000
26.967100847000,-0.120000000000
26.974788038000,-0.122000000000
26.982475229000,-0.122000000000
26.990162420000,-0.122000000000
26.997849611000,-0.125000000000
27.005536802000,-0.129000000000
27.013223993000,-0.132000000000
27.020911184000,-0.132000000000
27.028598375000,-0.132000000000
27.036285566000,-0.134000000000
27.043972757000,-0.132000000000
27.051659948000,-0.132000000000
27.059347176000,-0.132000000000
27.067034715000,-0.129000000000
27.074722254000,-0.129000000000
27.082409793000,-0.127000000000
27.090097332000,-0.125000000000
27.097784871000,-0.122000000000
27.105472410000,-0.120000000000
27.113159949000,-0.120000000000
27.120847488000,-0.117000000000
27.128535027000,-0.115000000000
27.136222566000,-0.110000000000
27.143910105000,-0.108000000000
27.151597644000,-0.108000000000
27.159285183000,-0.105000000000
27.166972722000,-0.105000000000
27.174660261000,-0.103000000000
27.182347800000,-0.098000000000
27.190035339000,-0.098000000000
27.197722878000,-0.096000000000
27.205410417000,-0.093000000000
27.213097956000,-0.093000000000
27.220785495000,-0.091000000000
27.228473034000,-0.088000000000
27.236160573000,-0.086000000000
27.243848112000,-0.084000000000
27.251535651000,-0.084000000000
27.259223190000,-0.084000000000
27.266910729000,-0.086000000000
27.274598268000,-0.088000000000
27.282285807000,-0.091000000000
27.289973346000,-0.091000000000
27.297660885000,-0.091000000000
27.305348424000,-0.088000000000
27.313035963000,-0.072000000000
27.320723502000,-0.052000000000
27.328411041000,-0.043000000000
27.336098580000,-0.038000000000
27.343786119000,-0.036000000000
27.351473658000,-0.052000000000
27.359161197000,-0.067000000000
27.366848736000,-0.067000000000
27.374536275000,-0.067000000000
27.382223814000,-0.069000000000
27.389911353000,-0.067000000000
27.397598892000,-0.064000000000
27.405286431000,-0.072000000000
27.412973970000,-0.093000000000
27.420661509000,-0.117000000000
27.428349048000,0.057000000000
27.436036587000,0.606000000000
27.443724126000,1.079000000000
27.451411665000,0.810000000000
27.459099204000,-0.038000000000
27.466786743000,-0.562000000000
27.474474282000,-0.416000000000
27.482161821000,-0.230000000000
27.489849360000,-0.262000000000
27.497536899000,-0.194000000000
27.505224438000,-0.091000000000
27.512911977000,-0.103000000000
27.520599516000,-0.108000000000
27.528287055000,-0.069000000000
27.535974594000,-0.062000000000
27.543662133000,-0.067000000000
27.551349672000,-0.050000000000
27.559037211000,-0.038000000000
27.566724750000,-0.038000000000
27.574412289000,-0.031000000000
27.582099828000,-0.021000000000
27.589787367000,-0.014000000000
27.597474906000,-0.007000000000
27.605162445000,0.002000000000
27.612849984000,0.009000000000
27.620537595000,0.019000000000
27.628224716000,0.028000000000
27.635911837000,0.038000000000
27.643598958000,0.050000000000
27.651286079000,0.064000000000
27.658973200000,0.076000000000
27.666660321000,0.091000000000
27.674347442000,0.101000000000
27.682034563000,0.108000000000
27.689721684000,0.108000000000
27.697408805000,0.110000000000
27.705095926000,0.113000000000
27.712783047000,0.110000000000
27.720470168000,0.105000000000
27.728157289000,0.093000000000
27.735844410000,0.069000000000
27.743531531000,0.038000000000
27.751218652000,0.004000000000
27.758905773000,-0.033000000000
27.766592894000,-0.069000000000
27.774280015000,-0.098000000000
27.781967136000,-0.115000000000
27.789654257000,-0.127000000000
27.797341378000,-0.129000000000
27.805028499000,-0.129000000000
27.812715620000,-0.127000000000
27.820402741000,-0.125000000000
27.828089862000,-0.122000000000
27.835776983000,-0.117000000000
27.843464104000,-0.117000000000
27.851151225000,-0.117000000000
27.858838346000,-0.117000000000
27.866525467000,-0.120000000000
27.874212588000,-0.122000000000
27.881899709000,-0.125000000000
27.889586830000,-0.127000000000
27.897273951000,-0.129000000000
27.904961072000,-0.129000000000
27.912648193000,-0.129000000000
27.920335314000,-0.129000000000
27.928022435000,-0.127000000000
27.935709556000,-0.125000000000
27.943396677000,-0.122000000000
27.951083798000,-0.120000000000
27.958770919000,-0.117000000000
27.966458040000,-0.117000000000
27.974145161000,-0.113000000000
27.981832282000,-0.110000000000
27.989519403000,-0.110000000000
27.997206524000,-0.108000000000
28.004893645000,-0.103000000000
28.012580766000,-0.101000000000
28.020267887000,-0.098000000000
28.027955008000,-0.096000000000
28.035642129000,-0.091000000000
28.043329250000,-0.088000000000
28.051016371000,-0.086000000000
28.058703492000,-0.086000000000
28.066390613000,-0.084000000000
28.074077734000,-0.081000000000
28.081764855000,-0.079000000000
28.089451976000,-0.076000000000
28.097139097000,-0.076000000000
28.104826218000,-0.084000000000
28.112513339000,-0.091000000000
28.120200460000,-0.096000000000
28.127887581000,-0.093000000000
28.135574702000,-0.081000000000
28.143261823000,-0.060000000000
28.150948944000,-0.040000000000
28.158636065000,-0.038000000000
28.166323186000,-0.033000000000
28.174010307000,-0.028000000000
28.181697492000,-0.045000000000
28.189384822000,-0.062000000000
28.197072152000,-0.062000000000
28.204759482000,-0.060000000000
28.212446812000,-0.060000000000
28.220134142000,-0.057000000000
28.227821472000,-0.052000000000
28.235508802000,-0.062000000000
28.243196132000,-0.103000000000
28.250883462000,-0.132000000000
28.258570792000,0.081000000000
28.266258122000,0.656000000000
28.273945452000,1.111000000000
28.281632782000,0.853000000000
28.289320112000,0.038000000000
28.297007442000,-0.444000000000
28.304694772000,-0.288000000000
28.312382102000,-0.156000000000
28.320069432000,-0.226000000000
28.327756762000,-0.165000000000
28.335444092000,-0.088000000000
28.343131422000,-0.115000000000
28.350818752000,-0.115000000000
28.358506082000,-0.076000000000
28.366193412000,-0.072000000000
28.373880742000,-0.069000000000
28.381568072000,-0.052000000000
28.389255402000,-0.045000000000
28.396942732000,-0.040000000000
28.404630062000,-0.031000000000
28.412317392000,-0.026000000000
28.420004722000,-0.021000000000
28.427692052000,-0.009000000000
28.435379382000,0.000000000000
28.443066712000,0.007000000000
28.450754042000,0.016000000000
28.458441372000,0.026000000000
28.466128702000,0.036000000000
28.473816032000,0.048000000000
28.481503362000,0.057000000000
28.489190692000,0.064000000000
28.496878022000,0.076000000000
28.504565352000,0.086000000000
28.512252682000,0.088000000000
28.519940012000,0.086000000000
28.527627342000,0.084000000000
28.535314672000,0.081000000000
28.543002002000,0.076000000000
28.550689332000,0.072000000000
28.558376662000,0.060000000000
28.566063992000,0.045000000000
28.573751322000,0.024000000000
28.581438652000,-0.002000000000
28.589125982000,-0.033000000000
28.596813312000,-0.060000000000
28.604500642000,-0.079000000000
28.612187972000,-0.093000000000
28.619875302000,-0.103000000000
28.627562632000,-0.108000000000
28.635249962000,-0.113000000000
28.642937292000,-0.110000000000
28.650624622000,-0.108000000000
28.658311952000,-0.105000000000
28.665999282000,-0.105000000000
28.673686612000,-0.103000000000
28.681373942000,-0.101000000000
28.689061272000,-0.103000000000
28.696748602000,-0.105000000000
28.704435932000,-0.105000000000
28.712123262000,-0.105000000000
28.719810592000,-0.105000000000
28.727497922000,-0.108000000000
28.735185252000,-0.110000000000
28.742872650000,-0.110000000000
28.750559980000,-0.108000000000
28.758247310000,-0.108000000000
28.765934640000,-0.108000000000
28.773621970000,-0.105000000000
28.781309300000,-0.105000000000
28.788996630000,-0.103000000000
28.796683960000,-0.103000000000
28.804371290000,-0.101000000000
28.812058620000,-0.098000000000
28.819745950000,-0.096000000000
28.827433280000,-0.093000000000
28.835120610000,-0.093000000000
28.842807940000,-0.091000000000
28.850495270000,-0.088000000000
28.858182600000,-0.088000000000
28.865869930000,-0.093000000000
28.873557260000,-0.103000000000
28.881244590000,-0.110000000000
28.888931920000,-0.110000000000
28.896619250000,-0.101000000000
28.904306580000,-0.084000000000
28.911993910000,-0.069000000000
28.919681240000,-0.060000000000
28.927368570000,-0.045000000000
28.935055900000,-0.043000000000
28.942743230000,-0.060000000000
28.950430560000,-0.076000000000
28.958117890000,-0.076000000000
28.965805220000,-0.076000000000
28.973492550000,-0.079000000000
28.981179880000,-0.076000000000
28.988867210000,-0.076000000000
28.996554540000,-0.084000000000
29.004241870000,-0.122000000000
29.011929200000,-0.151000000000
29.019616530000,0.060000000000
29.027303860000,0.634000000000
29.034991190000,1.082000000000
29.042678520000,0.791000000000
29.050365850000,-0.043000000000
29.058053180000,-0.514000000000
29.065740510000,-0.339000000000
29.073427840000,-0.202000000000
29.081115170000,-0.259000000000
29.088802500000,-0.187000000000
29.096489830000,-0.110000000000
29.104177160000,-0.139000000000
29.111864490000,-0.137000000000
29.119551820000,-0.101000000000
29.127239150000,-0.098000000000
29.134926480000,-0.098000000000
29.142613810000,-0.081000000000
29.150301140000,-0.076000000000
29.157988470000,-0.074000000000
29.165675800000,-0.064000000000
29.173363130000,-0.057000000000
29.181050460000,-0.052000000000
29.188737790000,-0.045000000000
29.196425120000,-0.036000000000
29.204112450000,-0.031000000000
29.211799780000,-0.021000000000
29.219487110000,-0.009000000000
29.227174440000,0.000000000000
29.234861770000,0.009000000000
29.242549100000,0.021000000000
29.250236430000,0.031000000000
29.257923760000,0.038000000000
29.265611090000,0.043000000000
29.273298420000,0.045000000000
29.280985750000,0.040000000000
29.288673080000,0.036000000000
29.296360410000,0.033000000000
29.304047804000,0.028000000000
