time,LSB
0.000000000000,-0.214000000000
0.007685867000,-0.206000000000
0.015371734000,-0.174000000000
0.023057601000,-0.130000000000
0.030743468000,-0.128000000000
0.038429335000,-0.177000000000
0.046115202000,-0.192000000000
0.053801069000,-0.199000000000
0.061486936000,-0.224000000000
0.069172803000,-0.209000000000
0.076858670000,-0.196000000000
0.084544537000,-0.216000000000
0.092230404000,-0.199000000000
0.099916271000,-0.150000000000
0.107602138000,-0.152000000000
0.115288005000,-0.201000000000
0.122973872000,-0.273000000000
0.130659739000,-0.307000000000
0.138345606000,-0.189000000000
0.146031473000,0.233000000000
0.153717340000,0.910000000000
0.161403207000,1.385000000000
0.169089074000,1.046000000000
0.176774941000,-0.061000000000
0.184460808000,-0.745000000000
0.192146675000,-0.428000000000
0.199832542000,-0.135000000000
0.207518409000,-0.275000000000
0.215204276000,-0.253000000000
0.222890143000,-0.130000000000
0.230576010000,-0.216000000000
0.238261877000,-0.241000000000
0.245947744000,-0.132000000000
0.253633611000,-0.103000000000
0.261319478000,-0.076000000000
0.269005345000,-0.034000000000
0.276691212000,-0.066000000000
0.284377079000,-0.041000000000
0.292062946000,0.027000000000
0.299748813000,0.007000000000
0.307434680000,0.029000000000
0.315120547000,0.160000000000
0.322806414000,0.206000000000
0.330492281000,0.194000000000
0.338178148000,0.275000000000
0.345864015000,0.342000000000
0.353549882000,0.322000000000
0.361235749000,0.320000000000
0.368921616000,0.310000000000
0.376607483000,0.268000000000
0.384293350000,0.263000000000
0.391979217000,0.201000000000
0.399665084000,0.059000000000
0.407350951000,-0.012000000000
0.415036818000,-0.066000000000
0.422722685000,-0.204000000000
0.430408552000,-0.285000000000
0.438094419000,-0.297000000000
0.445780286000,-0.364000000000
0.453466153000,-0.411000000000
0.461152020000,-0.379000000000
0.468837887000,-0.339000000000
0.476523754000,-0.354000000000
0.484209621000,-0.374000000000
0.491895488000,-0.320000000000
0.499581411000,-0.288000000000
0.507266860000,-0.327000000000
0.514952309000,-0.317000000000
0.522637758000,-0.265000000000
0.530323207000,-0.248000000000
0.538008656000,-0.263000000000
0.545694105000,-0.263000000000
0.553379554000,-0.228000000000
0.561065003000,-0.209000000000
0.568750452000,-0.219000000000
0.576435901000,-0.201000000000
0.584121350000,-0.211000000000
0.591806799000,-0.256000000000
0.599492248000,-0.243000000000
0.607177697000,-0.211000000000
0.614863146000,-0.214000000000
0.622548595000,-0.209000000000
0.630234044000,-0.216000000000
0.637919493000,-0.238000000000
0.645604942000,-0.216000000000
0.653290391000,-0.216000000000
0.660975840000,-0.226000000000
0.668661289000,-0.182000000000
0.676346738000,-0.164000000000
0.684032187000,-0.184000000000
0.691717636000,-0.164000000000
0.699403085000,-0.179000000000
0.707088534000,-0.233000000000
0.714773983000,-0.219000000000
0.722459432000,-0.174000000000
0.730144881000,-0.179000000000
0.737830330000,-0.204000000000
0.745515779000,-0.209000000000
0.753201228000,-0.169000000000
0.760886677000,-0.164000000000
0.768572126000,-0.228000000000
0.776257575000,-0.275000000000
0.783943024000,-0.221000000000
0.791628473000,0.098000000000
0.799313922000,0.706000000000
0.806999371000,1.280000000000
0.814684820000,1.255000000000
0.822370269000,0.275000000000
0.830055718000,-0.686000000000
0.837741167000,-0.556000000000
0.845426616000,-0.177000000000
0.853112065000,-0.256000000000
0.860797514000,-0.283000000000
0.868482963000,-0.172000000000
0.876168412000,-0.162000000000
0.883853861000,-0.184000000000
0.891539310000,-0.164000000000
0.899224759000,-0.160000000000
0.906910208000,-0.137000000000
0.914595657000,-0.073000000000
0.922281106000,-0.056000000000
0.929966555000,-0.064000000000
0.937652004000,0.002000000000
0.945337453000,0.051000000000
0.953022902000,0.041000000000
0.960708351000,0.091000000000
0.968393800000,0.182000000000
0.976079249000,0.219000000000
0.983764698000,0.216000000000
0.991450147000,0.256000000000
0.999135596000,0.369000000000
1.006821045000,0.440000000000
1.014506494000,0.366000000000
1.022191943000,0.246000000000
1.029877392000,0.194000000000
1.037562841000,0.192000000000
1.045248290000,0.132000000000
1.052933739000,-0.024000000000
1.060619236000,-0.162000000000
1.068305103000,-0.231000000000
1.075990970000,-0.288000000000
1.083676837000,-0.334000000000
1.091362704000,-0.352000000000
1.099048571000,-0.359000000000
1.106734438000,-0.381000000000
1.114420305000,-0.401000000000
1.122106172000,-0.388000000000
1.129792039000,-0.361000000000
1.137477906000,-0.349000000000
1.145163773000,-0.356000000000
1.152849640000,-0.332000000000
1.160535507000,-0.273000000000
1.168221374000,-0.265000000000
1.175907241000,-0.307000000000
1.183593108000,-0.300000000000
1.191278975000,-0.273000000000
1.198964842000,-0.278000000000
1.206650709000,-0.270000000000
1.214336576000,-0.251000000000
1.222022443000,-0.270000000000
1.229708310000,-0.280000000000
1.237394177000,-0.238000000000
1.245080044000,-0.224000000000
1.252765911000,-0.275000000000
1.260451778000,-0.288000000000
1.268137645000,-0.246000000000
1.275823512000,-0.243000000000
1.283509379000,-0.265000000000
1.291195246000,-0.260000000000
1.298881113000,-0.265000000000
1.306566980000,-0.290000000000
1.314252847000,-0.273000000000
1.321938714000,-0.209000000000
1.329624581000,-0.179000000000
1.337310448000,-0.209000000000
1.344996315000,-0.221000000000
1.352682182000,-0.199000000000
1.360368049000,-0.196000000000
1.368053916000,-0.226000000000
1.375739783000,-0.253000000000
1.383425650000,-0.253000000000
1.391111517000,-0.258000000000
1.398797384000,-0.260000000000
1.406483251000,-0.221000000000
1.414169118000,-0.201000000000
1.421854985000,-0.224000000000
1.429540852000,-0.219000000000
1.437226719000,-0.238000000000
1.444912586000,-0.312000000000
1.452598453000,-0.194000000000
1.460284320000,0.329000000000
1.467970187000,1.011000000000
1.475656054000,1.417000000000
1.483341921000,0.997000000000
1.491027788000,-0.216000000000
1.498713655000,-0.795000000000
1.506399522000,-0.356000000000
1.514085389000,-0.157000000000
1.521771256000,-0.320000000000
1.529457123000,-0.270000000000
1.537142990000,-0.192000000000
1.544828857000,-0.253000000000
1.552514724000,-0.233000000000
1.560200591000,-0.155000000000
1.567886458000,-0.160000000000
1.575572325000,-0.172000000000
1.583258192000,-0.113000000000
1.590944059000,-0.061000000000
1.598629926000,-0.051000000000
1.606315793000,-0.022000000000
1.614001660000,0.029000000000
1.621687579000,0.061000000000
1.629373028000,0.088000000000
1.637058477000,0.145000000000
1.644743926000,0.221000000000
1.652429375000,0.265000000000
1.660114824000,0.292000000000
1.667800273000,0.322000000000
1.675485722000,0.342000000000
1.683171171000,0.315000000000
1.690856620000,0.253000000000
1.698542069000,0.199000000000
1.706227518000,0.152000000000
1.713912967000,0.056000000000
1.721598416000,-0.071000000000
1.729283865000,-0.160000000000
1.736969314000,-0.219000000000
1.744654763000,-0.320000000000
1.752340212000,-0.406000000000
1.760025661000,-0.403000000000
1.767711110000,-0.396000000000
1.775396559000,-0.416000000000
1.783082008000,-0.416000000000
1.790767457000,-0.403000000000
1.798452906000,-0.396000000000
1.806138355000,-0.384000000000
1.813823804000,-0.366000000000
1.821509253000,-0.356000000000
1.829194702000,-0.349000000000
1.836880151000,-0.327000000000
1.844565600000,-0.280000000000
1.852251049000,-0.263000000000
1.859936498000,-0.297000000000
1.867621947000,-0.302000000000
1.875307396000,-0.278000000000
1.882992845000,-0.270000000000
1.890678294000,-0.273000000000
1.898363743000,-0.268000000000
1.906049192000,-0.265000000000
1.913734641000,-0.270000000000
1.921420090000,-0.270000000000
1.929105539000,-0.268000000000
1.936790988000,-0.258000000000
1.944476437000,-0.248000000000
1.952161886000,-0.270000000000
1.959847335000,-0.285000000000
1.967532784000,-0.265000000000
1.975218233000,-0.236000000000
1.982903682000,-0.231000000000
1.990589131000,-0.231000000000
1.998274580000,-0.214000000000
2.005960029000,-0.194000000000
2.013645478000,-0.206000000000
2.021330927000,-0.243000000000
2.029016376000,-0.263000000000
2.036701825000,-0.241000000000
2.044387274000,-0.216000000000
2.052072723000,-0.226000000000
2.059758172000,-0.243000000000
2.067443621000,-0.248000000000
2.075129070000,-0.241000000000
2.082814519000,-0.228000000000
2.090499968000,-0.256000000000
2.098185417000,-0.315000000000
2.105870866000,-0.209000000000
2.113556315000,0.241000000000
2.121241764000,0.871000000000
2.128927213000,1.368000000000
2.136612662000,1.181000000000
2.144298111000,0.014000000000
2.151983560000,-0.841000000000
2.159669009000,-0.504000000000
2.167354458000,-0.150000000000
2.175039907000,-0.307000000000
2.182725404000,-0.324000000000
2.190411271000,-0.214000000000
2.198097138000,-0.238000000000
2.205783005000,-0.251000000000
2.213468872000,-0.192000000000
2.221154739000,-0.160000000000
2.228840606000,-0.137000000000
2.236526473000,-0.108000000000
2.244212340000,-0.096000000000
2.251898207000,-0.078000000000
2.259584074000,-0.046000000000
2.267269941000,0.002000000000
2.274955808000,0.054000000000
2.282641675000,0.098000000000
2.290327542000,0.142000000000
2.298013409000,0.196000000000
2.305699276000,0.251000000000
2.313385143000,0.300000000000
2.321071010000,0.320000000000
2.328756877000,0.310000000000
2.336442744000,0.302000000000
2.344128611000,0.283000000000
2.351814478000,0.241000000000
2.359500345000,0.174000000000
2.367186212000,0.073000000000
2.374872079000,-0.044000000000
2.382557946000,-0.145000000000
2.390243813000,-0.236000000000
2.397929680000,-0.322000000000
2.405615547000,-0.371000000000
2.413301414000,-0.384000000000
2.420987281000,-0.386000000000
2.428673148000,-0.393000000000
2.436359015000,-0.398000000000
2.444044882000,-0.379000000000
2.451730749000,-0.356000000000
2.459416616000,-0.354000000000
2.467102483000,-0.344000000000
2.474788350000,-0.315000000000
2.482474217000,-0.302000000000
2.490160084000,-0.307000000000
2.497845951000,-0.302000000000
2.505531818000,-0.288000000000
2.513217685000,-0.270000000000
2.520903552000,-0.258000000000
2.528589419000,-0.265000000000
2.536275286000,-0.270000000000
2.543961153000,-0.258000000000
2.551647020000,-0.253000000000
2.559332887000,-0.273000000000
2.567018754000,-0.275000000000
2.574704621000,-0.265000000000
2.582390488000,-0.263000000000
2.590076355000,-0.251000000000
2.597762222000,-0.231000000000
2.605448089000,-0.226000000000
2.613133956000,-0.243000000000
2.620819823000,-0.260000000000
2.628505690000,-0.260000000000
2.636191557000,-0.243000000000
2.643877424000,-0.214000000000
2.651563291000,-0.184000000000
2.659249158000,-0.179000000000
2.666935025000,-0.189000000000
2.674620892000,-0.179000000000
2.682306759000,-0.177000000000
2.689992626000,-0.194000000000
2.697678493000,-0.211000000000
2.705364360000,-0.224000000000
2.713050227000,-0.224000000000
2.720736094000,-0.214000000000
2.728421961000,-0.199000000000
2.736107828000,-0.184000000000
2.743793747000,-0.192000000000
2.751479196000,-0.204000000000
2.759164645000,-0.209000000000
2.766850094000,-0.228000000000
2.774535543000,-0.260000000000
2.782220992000,-0.194000000000
2.789906441000,0.174000000000
2.797591890000,0.809000000000
2.805277339000,1.368000000000
2.812962788000,1.267000000000
2.820648237000,0.152000000000
2.828333686000,-0.777000000000
2.836019135000,-0.507000000000
2.843704584000,-0.128000000000
2.851390033000,-0.270000000000
2.859075482000,-0.297000000000
2.866760931000,-0.189000000000
2.874446380000,-0.209000000000
2.882131829000,-0.221000000000
2.889817278000,-0.162000000000
2.897502727000,-0.137000000000
2.905188176000,-0.142000000000
2.912873625000,-0.130000000000
2.920559074000,-0.113000000000
2.928244523000,-0.086000000000
2.935929972000,-0.032000000000
2.943615421000,0.027000000000
2.951300870000,0.064000000000
2.958986319000,0.103000000000
2.966671768000,0.155000000000
2.974357217000,0.184000000000
2.982042666000,0.224000000000
2.989728115000,0.288000000000
2.997413564000,0.307000000000
3.005099013000,0.305000000000
3.012784462000,0.324000000000
3.020469911000,0.324000000000
3.028155360000,0.270000000000
3.035840809000,0.199000000000
3.043526258000,0.115000000000
3.051211707000,-0.002000000000
3.058897156000,-0.123000000000
3.066582605000,-0.221000000000
3.074268054000,-0.307000000000
3.081953503000,-0.364000000000
3.089638952000,-0.381000000000
3.097324401000,-0.386000000000
3.105009850000,-0.396000000000
3.112695299000,-0.406000000000
3.120380748000,-0.403000000000
3.128066197000,-0.366000000000
3.135751646000,-0.329000000000
3.143437095000,-0.324000000000
3.151122544000,-0.332000000000
3.158807993000,-0.320000000000
3.166493442000,-0.305000000000
3.174178891000,-0.310000000000
3.181864340000,-0.312000000000
3.189549789000,-0.290000000000
3.197235238000,-0.280000000000
3.204920687000,-0.288000000000
3.212606136000,-0.280000000000
3.220291585000,-0.278000000000
3.227977034000,-0.283000000000
3.235662483000,-0.278000000000
3.243347932000,-0.263000000000
3.251033381000,-0.258000000000
3.258718830000,-0.275000000000
3.266404279000,-0.292000000000
3.274089728000,-0.285000000000
3.281775177000,-0.275000000000
3.289460626000,-0.280000000000
3.297146075000,-0.265000000000
3.304831572000,-0.231000000000
3.312517021000,-0.219000000000
3.320202470000,-0.231000000000
3.327887919000,-0.260000000000
3.335573368000,-0.263000000000
3.343258817000,-0.204000000000
3.350944266000,-0.150000000000
3.358629715000,-0.157000000000
3.366315164000,-0.182000000000
3.374000613000,-0.187000000000
3.381686062000,-0.192000000000
3.389371511000,-0.204000000000
3.397056960000,-0.214000000000
3.404742409000,-0.231000000000
3.412427858000,-0.238000000000
3.420113307000,-0.214000000000
3.427798756000,-0.184000000000
3.435484205000,-0.182000000000
3.443169654000,-0.194000000000
3.450855103000,-0.201000000000
3.458540552000,-0.228000000000
3.466226001000,-0.280000000000
3.473911450000,-0.260000000000
3.481596899000,0.007000000000
3.489282348000,0.563000000000
3.496967797000,1.196000000000
3.504653246000,1.462000000000
3.512338695000,0.696000000000
3.520024144000,-0.576000000000
3.527709593000,-0.748000000000
3.535395042000,-0.199000000000
3.543080491000,-0.199000000000
3.550765940000,-0.384000000000
3.558451389000,-0.300000000000
3.566136838000,-0.226000000000
3.573822287000,-0.228000000000
3.581507736000,-0.206000000000
3.589193185000,-0.177000000000
3.596878634000,-0.155000000000
3.604564083000,-0.137000000000
3.612249532000,-0.118000000000
3.619934981000,-0.083000000000
3.627620430000,-0.049000000000
3.635305879000,-0.032000000000
3.642991328000,0.004000000000
3.650676777000,0.068000000000
3.658362226000,0.123000000000
3.666047675000,0.172000000000
3.673733124000,0.221000000000
3.681418573000,0.263000000000
3.689104022000,0.295000000000
3.696789471000,0.317000000000
3.704474920000,0.322000000000
3.712160369000,0.305000000000
3.719845818000,0.273000000000
3.727531267000,0.226000000000
3.735216716000,0.150000000000
3.742902165000,0.039000000000
3.750587614000,-0.083000000000
3.758273063000,-0.184000000000
3.765958512000,-0.275000000000
3.773643961000,-0.344000000000
3.781329410000,-0.391000000000
3.789014859000,-0.418000000000
3.796700308000,-0.423000000000
3.804385757000,-0.416000000000
3.812071206000,-0.411000000000
3.819756655000,-0.401000000000
3.827442104000,-0.386000000000
3.835127553000,-0.371000000000
3.842813002000,-0.361000000000
3.850498451000,-0.347000000000
3.858183900000,-0.317000000000
3.865869401000,-0.300000000000
3.873555268000,-0.312000000000
3.881241135000,-0.324000000000
3.888927002000,-0.310000000000
3.896612869000,-0.283000000000
3.904298736000,-0.265000000000
3.911984603000,-0.275000000000
3.919670470000,-0.290000000000
3.927356337000,-0.292000000000
3.935042204000,-0.295000000000
3.942728071000,-0.288000000000
3.950413938000,-0.265000000000
3.958099805000,-0.258000000000
3.965785672000,-0.263000000000
3.973471539000,-0.263000000000
3.981157406000,-0.260000000000
3.988843273000,-0.243000000000
3.996529140000,-0.233000000000
4.004215007000,-0.260000000000
4.011900874000,-0.275000000000
4.019586741000,-0.248000000000
4.027272608000,-0.216000000000
4.034958475000,-0.201000000000
4.042644342000,-0.196000000000
4.050330209000,-0.184000000000
4.058016076000,-0.184000000000
4.065701943000,-0.221000000000
4.073387810000,-0.251000000000
4.081073677000,-0.251000000000
4.088759544000,-0.238000000000
4.096445411000,-0.224000000000
4.104131278000,-0.216000000000
4.111817145000,-0.228000000000
4.119503012000,-0.228000000000
4.127188879000,-0.216000000000
4.134874746000,-0.219000000000
4.142560613000,-0.236000000000
4.150246480000,-0.283000000000
4.157932347000,-0.285000000000
4.165618214000,-0.007000000000
4.173304081000,0.627000000000
4.180989948000,1.289000000000
4.188675815000,1.413000000000
4.196361682000,0.475000000000
4.204047549000,-0.713000000000
4.211733416000,-0.704000000000
4.219419283000,-0.182000000000
4.227105150000,-0.233000000000
4.234791017000,-0.344000000000
4.242476884000,-0.224000000000
4.250162751000,-0.211000000000
4.257848618000,-0.256000000000
4.265534485000,-0.201000000000
4.273220352000,-0.157000000000
4.280906219000,-0.160000000000
4.288592086000,-0.147000000000
4.296277953000,-0.115000000000
4.303963820000,-0.091000000000
4.311649687000,-0.071000000000
4.319335554000,-0.036000000000
4.327021421000,0.012000000000
4.334707288000,0.071000000000
4.342393155000,0.123000000000
4.350079022000,0.162000000000
4.357764889000,0.214000000000
4.365450756000,0.268000000000
4.373136623000,0.297000000000
4.380822490000,0.305000000000
4.388508357000,0.305000000000
4.396194224000,0.278000000000
4.403880091000,0.236000000000
4.411565958000,0.184000000000
4.419251825000,0.103000000000
4.426937744000,-0.012000000000
4.434623193000,-0.118000000000
4.442308642000,-0.189000000000
4.449994091000,-0.275000000000
4.457679540000,-0.369000000000
4.465364989000,-0.411000000000
4.473050438000,-0.418000000000
4.480735887000,-0.418000000000
4.488421336000,-0.411000000000
4.496106785000,-0.416000000000
4.503792234000,-0.411000000000
4.511477683000,-0.386000000000
4.519163132000,-0.369000000000
4.526848581000,-0.371000000000
4.534534030000,-0.356000000000
4.542219479000,-0.322000000000
4.549904928000,-0.310000000000
4.557590377000,-0.324000000000
4.565275826000,-0.322000000000
4.572961275000,-0.307000000000
4.580646724000,-0.302000000000
4.588332173000,-0.297000000000
4.596017622000,-0.297000000000
4.603703071000,-0.292000000000
4.611388520000,-0.275000000000
4.619073969000,-0.275000000000
4.626759418000,-0.292000000000
4.634444867000,-0.288000000000
4.642130316000,-0.270000000000
4.649815765000,-0.275000000000
4.657501214000,-0.270000000000
4.665186663000,-0.258000000000
4.672872112000,-0.260000000000
4.680557561000,-0.270000000000
4.688243010000,-0.270000000000
4.695928459000,-0.253000000000
4.703613908000,-0.233000000000
4.711299357000,-0.241000000000
4.718984806000,-0.256000000000
4.726670255000,-0.246000000000
4.734355704000,-0.236000000000
4.742041153000,-0.236000000000
4.749726602000,-0.224000000000
4.757412051000,-0.187000000000
4.765097500000,-0.157000000000
4.772782949000,-0.164000000000
4.780468398000,-0.184000000000
4.788153847000,-0.182000000000
4.795839296000,-0.182000000000
4.803524745000,-0.224000000000
4.811210194000,-0.243000000000
4.818895643000,-0.221000000000
4.826581092000,-0.214000000000
4.834266541000,-0.214000000000
4.841951990000,-0.194000000000
4.849637439000,-0.201000000000
4.857322888000,-0.219000000000
4.865008337000,-0.211000000000
4.872693786000,-0.214000000000
4.880379235000,-0.263000000000
4.888064684000,-0.260000000000
4.895750133000,0.004000000000
4.903435582000,0.588000000000
4.911121031000,1.228000000000
4.918806480000,1.437000000000
4.926491929000,0.610000000000
4.934177378000,-0.622000000000
4.941862827000,-0.726000000000
4.949548276000,-0.192000000000
4.957233725000,-0.201000000000
4.964919174000,-0.337000000000
4.972604623000,-0.231000000000
4.980290072000,-0.194000000000
4.987975569000,-0.231000000000
4.995661436000,-0.196000000000
5.003347303000,-0.150000000000
5.011033170000,-0.135000000000
5.018719037000,-0.105000000000
5.026404904000,-0.086000000000
5.034090771000,-0.076000000000
5.041776638000,-0.036000000000
5.049462505000,0.004000000000
5.057148372000,0.039000000000
5.064834239000,0.088000000000
5.072520106000,0.142000000000
5.080205973000,0.189000000000
5.087891840000,0.243000000000
5.095577707000,0.305000000000
5.103263574000,0.347000000000
5.110949441000,0.361000000000
5.118635308000,0.359000000000
5.126321175000,0.342000000000
5.134007042000,0.312000000000
5.141692909000,0.270000000000
5.149378776000,0.194000000000
5.157064643000,0.078000000000
5.164750510000,-0.044000000000
5.172436377000,-0.142000000000
5.180122244000,-0.228000000000
5.187808111000,-0.305000000000
5.195493978000,-0.359000000000
5.203179845000,-0.388000000000
5.210865712000,-0.396000000000
5.218551579000,-0.391000000000
5.226237446000,-0.379000000000
5.233923313000,-0.364000000000
5.241609180000,-0.354000000000
5.249295047000,-0.339000000000
5.256980914000,-0.324000000000
5.264666781000,-0.320000000000
5.272352648000,-0.305000000000
5.280038515000,-0.288000000000
5.287724382000,-0.278000000000
5.295410249000,-0.270000000000
5.303096116000,-0.265000000000
5.310781983000,-0.256000000000
5.318467850000,-0.243000000000
5.326153717000,-0.248000000000
5.333839584000,-0.251000000000
5.341525451000,-0.241000000000
5.349211318000,-0.246000000000
5.356897185000,-0.253000000000
5.364583052000,-0.243000000000
5.372268919000,-0.238000000000
5.379954786000,-0.238000000000
5.387640653000,-0.241000000000
5.395326520000,-0.241000000000
5.403012387000,-0.228000000000
5.410698254000,-0.221000000000
5.418384121000,-0.224000000000
5.426069988000,-0.221000000000
5.433755855000,-0.216000000000
5.441441722000,-0.216000000000
5.449127589000,-0.211000000000
5.456813456000,-0.179000000000
5.464499323000,-0.140000000000
5.472185190000,-0.137000000000
5.479871057000,-0.152000000000
5.487556924000,-0.157000000000
5.495242791000,-0.162000000000
5.502928658000,-0.184000000000
5.510614525000,-0.209000000000
5.518300392000,-0.214000000000
5.525986259000,-0.194000000000
5.533672126000,-0.184000000000
5.541357993000,-0.184000000000
5.549043912000,-0.182000000000
5.556729710000,-0.184000000000
5.564415508000,-0.192000000000
5.572101306000,-0.192000000000
5.579787104000,-0.206000000000
5.587472902000,-0.256000000000
5.595158700000,-0.201000000000
5.602844498000,0.189000000000
5.610530296000,0.846000000000
5.618216094000,1.408000000000
5.625901892000,1.309000000000
5.633587690000,0.182000000000
5.641273488000,-0.785000000000
5.648959286000,-0.512000000000
5.656645084000,-0.113000000000
5.664330882000,-0.260000000000
5.672016680000,-0.290000000000
5.679702478000,-0.169000000000
5.687388276000,-0.189000000000
5.695074074000,-0.206000000000
5.702759872000,-0.152000000000
5.710445670000,-0.130000000000
5.718131468000,-0.128000000000
5.725817266000,-0.103000000000
5.733503064000,-0.071000000000
5.741188862000,-0.046000000000
5.748874660000,-0.024000000000
5.756560458000,0.012000000000
5.764246256000,0.059000000000
5.771932054000,0.100000000000
5.779617852000,0.145000000000
5.787303650000,0.204000000000
5.794989448000,0.263000000000
5.802675246000,0.300000000000
5.810361044000,0.332000000000
5.818046842000,0.356000000000
5.825732640000,0.339000000000
5.833418438000,0.305000000000
5.841104236000,0.283000000000
5.848790034000,0.221000000000
5.856475832000,0.118000000000
5.864161630000,0.007000000000
5.871847428000,-0.108000000000
5.879533226000,-0.206000000000
5.887219024000,-0.273000000000
5.894904822000,-0.337000000000
5.902590620000,-0.384000000000
5.910276418000,-0.379000000000
5.917962216000,-0.366000000000
5.925648014000,-0.374000000000
5.933333812000,-0.369000000000
5.941019610000,-0.361000000000
5.948705408000,-0.347000000000
5.956391206000,-0.329000000000
5.964077004000,-0.324000000000
5.971762802000,-0.312000000000
5.979448600000,-0.292000000000
5.987134398000,-0.283000000000
5.994820196000,-0.275000000000
6.002505994000,-0.273000000000
6.010191792000,-0.273000000000
6.017877590000,-0.265000000000
6.025563388000,-0.256000000000
6.033249186000,-0.248000000000
6.040934984000,-0.251000000000
6.048620782000,-0.263000000000
6.056306580000,-0.265000000000
6.063992378000,-0.248000000000
6.071678176000,-0.246000000000
6.079363974000,-0.248000000000
6.087049772000,-0.238000000000
6.094735570000,-0.233000000000
6.102421368000,-0.233000000000
6.110107172000,-0.226000000000
6.117792691000,-0.224000000000
6.125478210000,-0.228000000000
6.133163729000,-0.221000000000
6.140849248000,-0.211000000000
6.148534767000,-0.214000000000
6.156220286000,-0.221000000000
6.163905805000,-0.221000000000
6.171591324000,-0.214000000000
6.179276843000,-0.192000000000
6.186962362000,-0.152000000000
6.194647881000,-0.137000000000
6.202333400000,-0.162000000000
6.210018919000,-0.169000000000
6.217704438000,-0.155000000000
6.225389957000,-0.167000000000
6.233075476000,-0.209000000000
6.240760995000,-0.224000000000
6.248446514000,-0.211000000000
6.256132033000,-0.199000000000
6.263817552000,-0.194000000000
6.271503071000,-0.194000000000
6.279188590000,-0.192000000000
6.286874109000,-0.189000000000
6.294559628000,-0.196000000000
6.302245147000,-0.221000000000
6.309930666000,-0.268000000000
6.317616185000,-0.224000000000
6.325301704000,0.140000000000
6.332987223000,0.782000000000
6.340672742000,1.376000000000
6.348358261000,1.331000000000
6.356043780000,0.219000000000
6.363729299000,-0.785000000000
6.371414818000,-0.529000000000
6.379100337000,-0.098000000000
6.386785856000,-0.256000000000
6.394471375000,-0.320000000000
6.402156894000,-0.192000000000
6.409842413000,-0.204000000000
6.417527932000,-0.224000000000
6.425213451000,-0.157000000000
6.432898970000,-0.137000000000
6.440584489000,-0.147000000000
6.448270008000,-0.115000000000
6.455955527000,-0.081000000000
6.463641046000,-0.066000000000
6.471326565000,-0.039000000000
6.479012084000,-0.002000000000
6.486697603000,0.036000000000
6.494383122000,0.086000000000
6.502068641000,0.137000000000
6.509754160000,0.194000000000
6.517439679000,0.248000000000
6.525125198000,0.285000000000
6.532810717000,0.305000000000
6.540496236000,0.317000000000
6.548181755000,0.320000000000
6.555867274000,0.302000000000
6.563552793000,0.265000000000
6.571238312000,0.204000000000
6.578923831000,0.123000000000
6.586609350000,0.027000000000
6.594294869000,-0.086000000000
6.601980388000,-0.194000000000
6.609665907000,-0.283000000000
6.617351426000,-0.344000000000
6.625036945000,-0.374000000000
6.632722464000,-0.396000000000
6.640407983000,-0.406000000000
6.648093502000,-0.403000000000
6.655779021000,-0.386000000000
6.663464540000,-0.366000000000
6.671150080000,-0.364000000000
6.678835947000,-0.354000000000
6.686521814000,-0.339000000000
6.694207681000,-0.332000000000
6.701893548000,-0.320000000000
6.709579415000,-0.300000000000
6.717265282000,-0.295000000000
6.724951149000,-0.285000000000
6.732637016000,-0.273000000000
6.740322883000,-0.273000000000
6.748008750000,-0.275000000000
6.755694617000,-0.268000000000
6.763380484000,-0.270000000000
6.771066351000,-0.275000000000
6.778752218000,-0.268000000000
6.786438085000,-0.263000000000
6.794123952000,-0.270000000000
6.801809819000,-0.270000000000
6.809495686000,-0.278000000000
6.817181553000,-0.283000000000
6.824867420000,-0.258000000000
6.832553287000,-0.243000000000
6.840239154000,-0.253000000000
6.847925021000,-0.246000000000
6.855610888000,-0.226000000000
6.863296755000,-0.228000000000
6.870982622000,-0.228000000000
6.878668489000,-0.216000000000
6.886354356000,-0.221000000000
6.894040223000,-0.231000000000
6.901726090000,-0.211000000000
6.909411957000,-0.177000000000
6.917097824000,-0.150000000000
6.924783691000,-0.145000000000
6.932469558000,-0.157000000000
6.940155425000,-0.167000000000
6.947841292000,-0.172000000000
6.955527159000,-0.199000000000
6.963213026000,-0.224000000000
6.970898893000,-0.211000000000
6.978584760000,-0.199000000000
6.986270627000,-0.204000000000
6.993956494000,-0.201000000000
7.001642361000,-0.189000000000
7.009328228000,-0.187000000000
7.017014095000,-0.196000000000
7.024699962000,-0.219000000000
7.032385829000,-0.256000000000
7.040071696000,-0.248000000000
7.047757563000,-0.004000000000
7.055443430000,0.578000000000
7.063129297000,1.240000000000
7.070815164000,1.462000000000
7.078501031000,0.649000000000
7.086186898000,-0.573000000000
7.093872765000,-0.701000000000
7.101558632000,-0.182000000000
7.109244499000,-0.187000000000
7.116930366000,-0.320000000000
7.124616233000,-0.216000000000
7.132302100000,-0.187000000000
7.139987967000,-0.226000000000
7.147673834000,-0.177000000000
7.155359701000,-0.145000000000
7.163045568000,-0.155000000000
7.170731435000,-0.123000000000
7.178417302000,-0.076000000000
7.186103169000,-0.061000000000
7.193789036000,-0.032000000000
7.201474903000,0.009000000000
7.209160770000,0.046000000000
7.216846637000,0.088000000000
7.224532504000,0.137000000000
7.232218427000,0.189000000000
7.239903876000,0.241000000000
7.247589325000,0.288000000000
7.255274774000,0.324000000000
7.262960223000,0.344000000000
7.270645672000,0.347000000000
7.278331121000,0.334000000000
7.286016570000,0.312000000000
7.293702019000,0.265000000000
7.301387468000,0.187000000000
7.309072917000,0.076000000000
7.316758366000,-0.044000000000
7.324443815000,-0.152000000000
7.332129264000,-0.243000000000
7.339814713000,-0.320000000000
7.347500162000,-0.376000000000
7.355185611000,-0.398000000000
7.362871060000,-0.398000000000
7.370556509000,-0.393000000000
7.378241958000,-0.386000000000
7.385927407000,-0.379000000000
7.393612856000,-0.361000000000
7.401298305000,-0.344000000000
7.408983754000,-0.334000000000
7.416669203000,-0.327000000000
7.424354652000,-0.305000000000
7.432040101000,-0.288000000000
7.439725550000,-0.288000000000
7.447410999000,-0.275000000000
7.455096448000,-0.260000000000
7.462781897000,-0.270000000000
7.470467346000,-0.268000000000
7.478152795000,-0.253000000000
7.485838244000,-0.260000000000
7.493523693000,-0.270000000000
7.501209142000,-0.258000000000
7.508894591000,-0.253000000000
7.516580040000,-0.260000000000
7.524265489000,-0.260000000000
7.531950938000,-0.253000000000
7.539636387000,-0.251000000000
7.547321836000,-0.248000000000
7.555007285000,-0.236000000000
7.562692734000,-0.228000000000
7.570378183000,-0.231000000000
7.578063632000,-0.224000000000
7.585749081000,-0.211000000000
7.593434530000,-0.219000000000
7.601119979000,-0.221000000000
7.608805428000,-0.209000000000
7.616490877000,-0.204000000000
7.624176326000,-0.192000000000
7.631861775000,-0.152000000000
7.639547224000,-0.145000000000
7.647232673000,-0.174000000000
7.654918122000,-0.164000000000
7.662603571000,-0.145000000000
7.670289020000,-0.177000000000
7.677974469000,-0.219000000000
7.685659918000,-0.228000000000
7.693345367000,-0.216000000000
7.701030816000,-0.201000000000
7.708716265000,-0.204000000000
7.716401714000,-0.214000000000
7.724087163000,-0.194000000000
7.731772612000,-0.169000000000
7.739458061000,-0.196000000000
7.747143510000,-0.256000000000
7.754828959000,-0.260000000000
7.762514408000,-0.066000000000
7.770199857000,0.460000000000
7.777885306000,1.132000000000
7.785570755000,1.462000000000
7.793256252000,0.817000000000
7.800942119000,-0.452000000000
7.808627986000,-0.775000000000
7.816313853000,-0.236000000000
7.823999720000,-0.147000000000
7.831685587000,-0.315000000000
7.839371454000,-0.228000000000
7.847057321000,-0.172000000000
7.854743188000,-0.216000000000
7.862429055000,-0.187000000000
7.870114922000,-0.152000000000
7.877800789000,-0.155000000000
7.885486656000,-0.123000000000
7.893172523000,-0.093000000000
7.900858390000,-0.086000000000
7.908544257000,-0.059000000000
7.916230124000,-0.017000000000
7.923915991000,0.007000000000
7.931601858000,0.056000000000
7.939287725000,0.132000000000
7.946973592000,0.174000000000
7.954659459000,0.192000000000
7.962345326000,0.258000000000
7.970031193000,0.322000000000
7.977717060000,0.329000000000
7.985402927000,0.307000000000
7.993088794000,0.278000000000
8.000774661000,0.256000000000
8.008460528000,0.258000000000
8.016146395000,0.226000000000
8.023832262000,0.108000000000
8.031518129000,-0.034000000000
8.039203996000,-0.145000000000
8.046889863000,-0.256000000000
8.054575730000,-0.366000000000
8.062261597000,-0.393000000000
8.069947464000,-0.359000000000
8.077633331000,-0.386000000000
8.085319198000,-0.435000000000
8.093005065000,-0.398000000000
8.100690932000,-0.356000000000
8.108376799000,-0.396000000000
8.116062666000,-0.401000000000
8.123748533000,-0.320000000000
8.131434400000,-0.285000000000
8.139120267000,-0.320000000000
8.146806134000,-0.302000000000
8.154492001000,-0.258000000000
8.162177868000,-0.256000000000
8.169863735000,-0.278000000000
8.177549602000,-0.292000000000
8.185235469000,-0.265000000000
8.192921336000,-0.231000000000
8.200607203000,-0.243000000000
8.208293070000,-0.258000000000
8.215978937000,-0.258000000000
8.223664804000,-0.243000000000
8.231350671000,-0.228000000000
8.239036538000,-0.236000000000
8.246722405000,-0.236000000000
8.254408272000,-0.228000000000
8.262094139000,-0.233000000000
8.269780006000,-0.238000000000
8.277465873000,-0.226000000000
8.285151740000,-0.209000000000
8.292837607000,-0.211000000000
8.300523474000,-0.216000000000
8.308209341000,-0.209000000000
8.315895208000,-0.206000000000
8.323581075000,-0.221000000000
8.331266942000,-0.221000000000
8.338952809000,-0.187000000000
8.346638676000,-0.152000000000
8.354324595000,-0.135000000000
8.362010044000,-0.145000000000
8.369695493000,-0.162000000000
8.377380942000,-0.162000000000
8.385066391000,-0.174000000000
8.392751840000,-0.209000000000
8.400437289000,-0.219000000000
8.408122738000,-0.206000000000
8.415808187000,-0.201000000000
8.423493636000,-0.206000000000
8.431179085000,-0.211000000000
8.438864534000,-0.214000000000
8.446549983000,-0.211000000000
8.454235432000,-0.196000000000
8.461920881000,-0.199000000000
8.469606330000,-0.251000000000
8.477291779000,-0.246000000000
8.484977228000,0.061000000000
8.492662677000,0.689000000000
8.500348126000,1.339000000000
8.508033575000,1.395000000000
8.515719024000,0.344000000000
8.523404473000,-0.736000000000
8.531089922000,-0.571000000000
8.538775371000,-0.120000000000
8.546460820000,-0.243000000000
8.554146269000,-0.317000000000
8.561831718000,-0.189000000000
8.569517167000,-0.182000000000
8.577202616000,-0.214000000000
8.584888065000,-0.172000000000
8.592573514000,-0.142000000000
8.600258963000,-0.137000000000
8.607944412000,-0.105000000000
8.615629861000,-0.071000000000
8.623315310000,-0.051000000000
8.631000759000,-0.039000000000
8.638686208000,-0.014000000000
8.646371657000,0.024000000000
8.654057106000,0.076000000000
8.661742555000,0.128000000000
8.669428004000,0.187000000000
8.677113453000,0.253000000000
8.684798902000,0.288000000000
8.692484351000,0.297000000000
8.700169800000,0.324000000000
8.707855249000,0.359000000000
8.715540698000,0.332000000000
8.723226147000,0.270000000000
8.730911596000,0.228000000000
8.738597045000,0.169000000000
8.746282494000,0.056000000000
8.753967943000,-0.068000000000
8.761653392000,-0.174000000000
8.769338841000,-0.275000000000
8.777024290000,-0.337000000000
8.784709739000,-0.352000000000
8.792395188000,-0.371000000000
8.800080637000,-0.388000000000
8.807766086000,-0.384000000000
8.815451535000,-0.371000000000
8.823136984000,-0.356000000000
8.830822433000,-0.344000000000
8.838507882000,-0.334000000000
8.846193331000,-0.327000000000
8.853878780000,-0.320000000000
8.861564229000,-0.300000000000
8.869249678000,-0.278000000000
8.876935127000,-0.285000000000
8.884620576000,-0.295000000000
8.892306025000,-0.270000000000
8.899991474000,-0.248000000000
8.907676923000,-0.260000000000
8.915362420000,-0.268000000000
8.923048287000,-0.233000000000
8.930734154000,-0.226000000000
8.938420021000,-0.258000000000
8.946105888000,-0.253000000000
8.953791755000,-0.238000000000
8.961477622000,-0.251000000000
8.969163489000,-0.236000000000
8.976849356000,-0.214000000000
8.984535223000,-0.216000000000
8.992221090000,-0.216000000000
8.999906957000,-0.224000000000
9.007592824000,-0.238000000000
9.015278691000,-0.228000000000
9.022964558000,-0.201000000000
9.030650425000,-0.194000000000
9.038336292000,-0.201000000000
9.046022159000,-0.201000000000
9.053708026000,-0.199000000000
9.061393893000,-0.184000000000
9.069079760000,-0.145000000000
9.076765627000,-0.118000000000
9.084451494000,-0.125000000000
9.092137361000,-0.132000000000
9.099823228000,-0.132000000000
9.107509095000,-0.174000000000
9.115194962000,-0.224000000000
9.122880829000,-0.206000000000
9.130566696000,-0.177000000000
9.138252563000,-0.174000000000
9.145938430000,-0.182000000000
9.153624297000,-0.196000000000
9.161310164000,-0.174000000000
9.168996031000,-0.155000000000
9.176681898000,-0.196000000000
9.184367765000,-0.216000000000
9.192053632000,-0.228000000000
9.199739499000,-0.184000000000
9.207425366000,0.206000000000
9.215111233000,0.913000000000
9.222797100000,1.484000000000
9.230482967000,1.275000000000
9.238168834000,0.086000000000
9.245854701000,-0.765000000000
9.253540568000,-0.423000000000
9.261226435000,-0.091000000000
9.268912302000,-0.283000000000
9.276598169000,-0.297000000000
9.284284036000,-0.145000000000
9.291969903000,-0.174000000000
9.299655770000,-0.216000000000
9.307341637000,-0.123000000000
9.315027504000,-0.088000000000
9.322713371000,-0.135000000000
9.330399238000,-0.105000000000
9.338085105000,-0.046000000000
9.345770972000,-0.036000000000
9.353456839000,-0.014000000000
9.361142706000,0.022000000000
9.368828573000,0.056000000000
9.376514440000,0.115000000000
9.384200307000,0.157000000000
9.391886174000,0.201000000000
9.399572041000,0.292000000000
9.407257908000,0.332000000000
9.414943775000,0.317000000000
9.422629642000,0.364000000000
9.430315509000,0.374000000000
9.438001376000,0.307000000000
9.445687243000,0.288000000000
9.453373110000,0.258000000000
9.461058977000,0.142000000000
9.468744844000,0.036000000000
9.476430763000,-0.056000000000
9.484116630000,-0.196000000000
9.491802497000,-0.295000000000
9.499488364000,-0.324000000000
9.507174231000,-0.354000000000
9.514860098000,-0.396000000000
9.522545965000,-0.418000000000
9.530231832000,-0.374000000000
9.537917699000,-0.324000000000
9.545603566000,-0.354000000000
9.553289433000,-0.369000000000
9.560975300000,-0.329000000000
9.568661167000,-0.312000000000
9.576347034000,-0.320000000000
9.584032901000,-0.305000000000
9.591718768000,-0.280000000000
9.599404635000,-0.280000000000
9.607090502000,-0.275000000000
9.614776369000,-0.251000000000
9.622462236000,-0.258000000000
9.630148103000,-0.273000000000
9.637833970000,-0.260000000000
9.645519837000,-0.251000000000
9.653205704000,-0.258000000000
9.660891571000,-0.265000000000
9.668577438000,-0.260000000000
9.676263305000,-0.256000000000
9.683949172000,-0.251000000000
9.691635039000,-0.253000000000
9.699320906000,-0.258000000000
9.707006773000,-0.251000000000
9.714692640000,-0.238000000000
9.722378507000,-0.241000000000
9.730064374000,-0.248000000000
9.737750241000,-0.248000000000
9.745436108000,-0.246000000000
9.753121975000,-0.224000000000
9.760807842000,-0.187000000000
9.768493709000,-0.172000000000
9.776179576000,-0.182000000000
9.783865443000,-0.182000000000
9.791551310000,-0.189000000000
9.799237177000,-0.219000000000
9.806923044000,-0.241000000000
9.814608911000,-0.241000000000
9.822294778000,-0.233000000000
9.829980645000,-0.226000000000
9.837666512000,-0.224000000000
9.845352379000,-0.219000000000
9.853038246000,-0.204000000000
9.860724113000,-0.216000000000
9.868409980000,-0.246000000000
9.876095847000,-0.280000000000
9.883781714000,-0.268000000000
9.891467581000,-0.017000000000
9.899153448000,0.566000000000
9.906839315000,1.218000000000
9.914525182000,1.415000000000
9.922211049000,0.563000000000
9.929896916000,-0.649000000000
9.937582783000,-0.723000000000
9.945268650000,-0.192000000000
9.952954517000,-0.204000000000
9.960640384000,-0.339000000000
9.968326251000,-0.238000000000
9.976012118000,-0.206000000000
9.983697985000,-0.241000000000
9.991383852000,-0.204000000000
9.999069719000,-0.167000000000
10.006755586000,-0.167000000000
10.014441453000,-0.152000000000
10.022127320000,-0.118000000000
10.029813187000,-0.086000000000
10.037499106000,-0.061000000000
10.045184555000,-0.034000000000
10.052870004000,0.000000000000
10.060555453000,0.034000000000
10.068240902000,0.088000000000
10.075926351000,0.157000000000
10.083611800000,0.199000000000
10.091297249000,0.216000000000
10.098982698000,0.265000000000
10.106668147000,0.334000000000
10.114353596000,0.339000000000
10.122039045000,0.285000000000
10.129724494000,0.251000000000
10.137409943000,0.216000000000
10.145095392000,0.123000000000
10.152780841000,0.002000000000
10.160466290000,-0.088000000000
10.168151739000,-0.177000000000
10.175837188000,-0.285000000000
10.183522637000,-0.359000000000
10.191208086000,-0.384000000000
10.198893535000,-0.398000000000
10.206578984000,-0.416000000000
10.214264433000,-0.418000000000
10.221949882000,-0.408000000000
10.229635331000,-0.403000000000
10.237320780000,-0.391000000000
10.245006229000,-0.374000000000
10.252691678000,-0.359000000000
10.260377127000,-0.339000000000
10.268062576000,-0.324000000000
10.275748025000,-0.324000000000
10.283433474000,-0.320000000000
10.291118923000,-0.310000000000
10.298804372000,-0.300000000000
10.306489821000,-0.290000000000
10.314175270000,-0.288000000000
10.321860719000,-0.292000000000
10.329546168000,-0.280000000000
10.337231617000,-0.268000000000
10.344917066000,-0.275000000000
10.352602515000,-0.280000000000
10.360287964000,-0.273000000000
10.367973413000,-0.270000000000
10.375658862000,-0.270000000000
10.383344311000,-0.273000000000
10.391029760000,-0.270000000000
10.398715209000,-0.263000000000
10.406400658000,-0.260000000000
10.414086107000,-0.268000000000
10.421771556000,-0.260000000000
10.429457005000,-0.241000000000
10.437142454000,-0.216000000000
10.444827903000,-0.192000000000
10.452513352000,-0.182000000000
10.460198801000,-0.179000000000
10.467884250000,-0.184000000000
10.475569699000,-0.204000000000
10.483255148000,-0.219000000000
10.490940597000,-0.226000000000
10.498626046000,-0.231000000000
10.506311495000,-0.231000000000
10.513996944000,-0.233000000000
10.521682393000,-0.226000000000
10.529367842000,-0.216000000000
10.537053291000,-0.216000000000
10.544738740000,-0.224000000000
10.552424189000,-0.233000000000
10.560109638000,-0.268000000000
10.567795087000,-0.278000000000
10.575480536000,-0.027000000000
10.583165985000,0.576000000000
10.590851434000,1.238000000000
10.598536935000,1.435000000000
10.606222802000,0.595000000000
10.613908669000,-0.625000000000
10.621594536000,-0.718000000000
10.629280403000,-0.189000000000
10.636966270000,-0.211000000000
10.644652137000,-0.344000000000
10.652338004000,-0.231000000000
10.660023871000,-0.192000000000
10.667709738000,-0.228000000000
10.675395605000,-0.189000000000
10.683081472000,-0.145000000000
10.690767339000,-0.145000000000
10.698453206000,-0.125000000000
10.706139073000,-0.098000000000
10.713824940000,-0.078000000000
10.721510807000,-0.046000000000
10.729196674000,-0.007000000000
10.736882541000,0.027000000000
10.744568408000,0.078000000000
10.752254275000,0.140000000000
10.759940142000,0.184000000000
10.767626009000,0.224000000000
10.775311876000,0.280000000000
10.782997743000,0.322000000000
10.790683610000,0.334000000000
10.798369477000,0.337000000000
10.806055344000,0.332000000000
10.813741211000,0.305000000000
10.821427078000,0.251000000000
10.829112945000,0.169000000000
10.836798812000,0.061000000000
10.844484679000,-0.068000000000
10.852170546000,-0.192000000000
10.859856413000,-0.270000000000
10.867542280000,-0.322000000000
10.875228147000,-0.364000000000
10.882914014000,-0.391000000000
10.890599881000,-0.393000000000
10.898285748000,-0.393000000000
10.905971615000,-0.393000000000
10.913657482000,-0.384000000000
10.921343349000,-0.361000000000
10.929029216000,-0.349000000000
10.936715083000,-0.339000000000
10.944400950000,-0.329000000000
10.952086817000,-0.315000000000
10.959772684000,-0.302000000000
10.967458551000,-0.283000000000
10.975144418000,-0.268000000000
10.982830285000,-0.273000000000
10.990516152000,-0.273000000000
10.998202019000,-0.263000000000
11.005887886000,-0.258000000000
11.013573753000,-0.258000000000
11.021259620000,-0.263000000000
11.028945487000,-0.268000000000
11.036631354000,-0.258000000000
11.044317221000,-0.246000000000
11.052003088000,-0.238000000000
11.059688955000,-0.241000000000
11.067374822000,-0.263000000000
11.075060689000,-0.278000000000
11.082746556000,-0.260000000000
11.090432423000,-0.256000000000
11.098118290000,-0.251000000000
11.105804157000,-0.216000000000
11.113490024000,-0.184000000000
11.121175891000,-0.177000000000
11.128861758000,-0.179000000000
11.136547625000,-0.189000000000
11.144233492000,-0.209000000000
11.151919359000,-0.231000000000
11.159605278000,-0.226000000000
11.167290727000,-0.204000000000
11.174976176000,-0.206000000000
11.182661625000,-0.216000000000
11.190347074000,-0.204000000000
11.198032523000,-0.194000000000
11.205717972000,-0.204000000000
11.213403421000,-0.214000000000
11.221088870000,-0.243000000000
11.228774319000,-0.280000000000
11.236459768000,-0.100000000000
11.244145217000,0.465000000000
11.251830666000,1.149000000000
11.259516115000,1.489000000000
11.267201564000,0.915000000000
11.274887013000,-0.354000000000
11.282572462000,-0.787000000000
11.290257911000,-0.288000000000
11.297943360000,-0.152000000000
11.305628809000,-0.315000000000
11.313314258000,-0.243000000000
11.320999707000,-0.174000000000
11.328685156000,-0.209000000000
11.336370605000,-0.182000000000
11.344056054000,-0.140000000000
11.351741503000,-0.142000000000
11.359426952000,-0.125000000000
11.367112401000,-0.088000000000
11.374797850000,-0.066000000000
11.382483299000,-0.041000000000
11.390168748000,0.000000000000
11.397854197000,0.039000000000
11.405539646000,0.073000000000
11.413225095000,0.120000000000
11.420910544000,0.179000000000
11.428595993000,0.238000000000
11.436281442000,0.288000000000
11.443966891000,0.332000000000
11.451652340000,0.361000000000
11.459337789000,0.354000000000
11.467023238000,0.324000000000
11.474708687000,0.305000000000
11.482394136000,0.268000000000
11.490079585000,0.177000000000
11.497765034000,0.059000000000
11.505450483000,-0.056000000000
11.513135932000,-0.164000000000
11.520821381000,-0.258000000000
11.528506830000,-0.334000000000
11.536192279000,-0.386000000000
11.543877728000,-0.401000000000
11.551563177000,-0.398000000000
11.559248626000,-0.388000000000
11.566934075000,-0.388000000000
11.574619524000,-0.388000000000
11.582304973000,-0.376000000000
11.589990422000,-0.352000000000
11.597675871000,-0.337000000000
11.605361320000,-0.327000000000
11.613046769000,-0.312000000000
11.620732218000,-0.302000000000
11.628417667000,-0.305000000000
11.636103116000,-0.302000000000
11.643788565000,-0.290000000000
11.651474014000,-0.268000000000
11.659159463000,-0.253000000000
11.666844912000,-0.263000000000
11.674530361000,-0.280000000000
11.682215810000,-0.270000000000
11.689901259000,-0.265000000000
11.697586708000,-0.265000000000
11.705272157000,-0.248000000000
11.712957606000,-0.241000000000
11.720643103000,-0.256000000000
11.728328552000,-0.251000000000
11.736014001000,-0.238000000000
11.743699450000,-0.238000000000
11.751384899000,-0.238000000000
11.759070348000,-0.241000000000
11.766755797000,-0.216000000000
11.774441246000,-0.174000000000
11.782126695000,-0.167000000000
11.789812144000,-0.182000000000
11.797497593000,-0.187000000000
11.805183042000,-0.201000000000
11.812868491000,-0.224000000000
11.820553940000,-0.224000000000
11.828239389000,-0.221000000000
11.835924838000,-0.219000000000
11.843610287000,-0.216000000000
11.851295736000,-0.221000000000
11.858981185000,-0.216000000000
11.866666634000,-0.206000000000
11.874352083000,-0.199000000000
11.882037532000,-0.209000000000
11.889722981000,-0.260000000000
11.897408430000,-0.280000000000
11.905093879000,-0.049000000000
11.912779328000,0.514000000000
11.920464777000,1.179000000000
11.928150226000,1.474000000000
11.935835675000,0.763000000000
11.943521124000,-0.499000000000
11.951206573000,-0.733000000000
11.958892022000,-0.201000000000
11.966577471000,-0.169000000000
11.974262920000,-0.329000000000
11.981948369000,-0.226000000000
11.989633818000,-0.172000000000
11.997319267000,-0.221000000000
12.005004716000,-0.192000000000
12.012690165000,-0.137000000000
12.020375614000,-0.130000000000
12.028061063000,-0.118000000000
12.035746512000,-0.091000000000
12.043431961000,-0.073000000000
12.051117410000,-0.022000000000
12.058802859000,0.027000000000
12.066488308000,0.034000000000
12.074173757000,0.066000000000
12.081859206000,0.137000000000
12.089544655000,0.189000000000
12.097230104000,0.228000000000
12.104915553000,0.288000000000
12.112601002000,0.332000000000
12.120286451000,0.349000000000
12.127971900000,0.342000000000
12.135657349000,0.322000000000
12.143342798000,0.302000000000
12.151028247000,0.258000000000
12.158713696000,0.164000000000
12.166399145000,0.066000000000
12.174084594000,-0.029000000000
12.181770043000,-0.145000000000
12.189455492000,-0.256000000000
12.197140941000,-0.320000000000
12.204826390000,-0.347000000000
12.212511839000,-0.366000000000
12.220197288000,-0.379000000000
12.227882737000,-0.384000000000
12.235568186000,-0.376000000000
12.243253635000,-0.356000000000
12.250939084000,-0.349000000000
12.258624533000,-0.366000000000
12.266309982000,-0.354000000000
12.273995431000,-0.288000000000
12.281680928000,-0.251000000000
12.289366795000,-0.280000000000
12.297052662000,-0.295000000000
12.304738529000,-0.270000000000
12.312424396000,-0.253000000000
12.320110263000,-0.256000000000
12.327796130000,-0.253000000000
12.335481997000,-0.253000000000
12.343167864000,-0.260000000000
12.350853731000,-0.256000000000
12.358539598000,-0.238000000000
12.366225465000,-0.228000000000
12.373911332000,-0.236000000000
12.381597199000,-0.243000000000
12.389283066000,-0.231000000000
12.396968933000,-0.221000000000
12.404654800000,-0.224000000000
12.412340667000,-0.231000000000
12.420026534000,-0.241000000000
12.427712401000,-0.221000000000
12.435398268000,-0.184000000000
12.443084135000,-0.160000000000
12.450770002000,-0.142000000000
12.458455869000,-0.142000000000
12.466141736000,-0.162000000000
12.473827603000,-0.162000000000
12.481513470000,-0.160000000000
12.489199337000,-0.192000000000
12.496885204000,-0.221000000000
12.504571071000,-0.209000000000
12.512256938000,-0.189000000000
12.519942805000,-0.194000000000
12.527628672000,-0.201000000000
12.535314539000,-0.194000000000
12.543000406000,-0.189000000000
12.550686273000,-0.194000000000
12.558372140000,-0.214000000000
12.566058007000,-0.253000000000
12.573743874000,-0.256000000000
12.581429741000,-0.009000000000
12.589115608000,0.595000000000
12.596801475000,1.262000000000
12.604487342000,1.481000000000
12.612173209000,0.684000000000
12.619859076000,-0.561000000000
12.627544943000,-0.731000000000
12.635230810000,-0.196000000000
12.642916677000,-0.169000000000
12.650602544000,-0.310000000000
12.658288411000,-0.216000000000
12.665974278000,-0.182000000000
12.673660145000,-0.241000000000
12.681346012000,-0.221000000000
12.689031879000,-0.125000000000
12.696717746000,-0.071000000000
12.704403613000,-0.086000000000
12.712089480000,-0.078000000000
12.719775347000,-0.046000000000
12.727461214000,-0.027000000000
12.735147081000,-0.002000000000
12.742832948000,0.036000000000
12.750518815000,0.086000000000
12.758204682000,0.152000000000
12.765890549000,0.219000000000
12.773576416000,0.253000000000
12.781262283000,0.292000000000
12.788948150000,0.342000000000
12.796634017000,0.361000000000
12.804319884000,0.356000000000
12.812005751000,0.342000000000
12.819691618000,0.320000000000
12.827377485000,0.290000000000
12.835063352000,0.206000000000
12.842749271000,0.054000000000
12.850434720000,-0.081000000000
12.858120169000,-0.169000000000
12.865805618000,-0.260000000000
12.873491067000,-0.329000000000
12.881176516000,-0.354000000000
12.888861965000,-0.381000000000
12.896547414000,-0.420000000000
12.904232863000,-0.420000000000
12.911918312000,-0.374000000000
12.919603761000,-0.349000000000
12.927289210000,-0.364000000000
12.934974659000,-0.356000000000
12.942660108000,-0.327000000000
12.950345557000,-0.315000000000
12.958031006000,-0.307000000000
12.965716455000,-0.297000000000
12.973401904000,-0.295000000000
12.981087353000,-0.285000000000
12.988772802000,-0.278000000000
12.996458251000,-0.275000000000
13.004143700000,-0.273000000000
13.011829149000,-0.268000000000
13.019514598000,-0.260000000000
13.027200047000,-0.263000000000
13.034885496000,-0.273000000000
13.042570945000,-0.265000000000
13.050256394000,-0.258000000000
13.057941843000,-0.251000000000
13.065627292000,-0.248000000000
13.073312741000,-0.258000000000
13.080998190000,-0.265000000000
13.088683639000,-0.258000000000
13.096369088000,-0.253000000000
13.104054537000,-0.236000000000
13.111739986000,-0.206000000000
13.119425435000,-0.184000000000
13.127110884000,-0.182000000000
13.134796333000,-0.184000000000
13.142481782000,-0.196000000000
13.150167231000,-0.233000000000
13.157852680000,-0.253000000000
13.165538129000,-0.238000000000
13.173223578000,-0.226000000000
13.180909027000,-0.236000000000
13.188594476000,-0.246000000000
13.196279925000,-0.236000000000
13.203965374000,-0.219000000000
13.211650823000,-0.216000000000
13.219336272000,-0.238000000000
13.227021721000,-0.288000000000
13.234707170000,-0.332000000000
13.242392619000,-0.204000000000
13.250078068000,0.288000000000
13.257763517000,0.972000000000
13.265448966000,1.425000000000
13.273134415000,1.033000000000
13.280819864000,-0.211000000000
13.288505313000,-0.849000000000
13.296190762000,-0.396000000000
13.303876211000,-0.152000000000
13.311561660000,-0.327000000000
13.319247109000,-0.290000000000
13.326932558000,-0.192000000000
13.334618007000,-0.231000000000
13.342303456000,-0.221000000000
13.349988905000,-0.174000000000
13.357674354000,-0.169000000000
13.365359803000,-0.145000000000
13.373045252000,-0.123000000000
13.380730701000,-0.123000000000
13.388416150000,-0.091000000000
13.396101599000,-0.029000000000
13.403787096000,0.014000000000
13.411472963000,0.049000000000
13.419158830000,0.091000000000
13.426844697000,0.137000000000
13.434530564000,0.196000000000
13.442216431000,0.253000000000
13.449902298000,0.292000000000
13.457588165000,0.307000000000
13.465274032000,0.312000000000
13.472959899000,0.297000000000
13.480645766000,0.278000000000
13.488331633000,0.246000000000
13.496017500000,0.150000000000
13.503703367000,0.002000000000
13.511389234000,-0.098000000000
13.519075101000,-0.160000000000
13.526760968000,-0.263000000000
13.534446835000,-0.371000000000
13.542132702000,-0.416000000000
13.549818569000,-0.428000000000
13.557504436000,-0.420000000000
13.565190303000,-0.406000000000
13.572876170000,-0.430000000000
13.580562037000,-0.448000000000
13.588247904000,-0.408000000000
13.595933771000,-0.361000000000
13.603619638000,-0.354000000000
13.611305505000,-0.386000000000
13.618991372000,-0.393000000000
13.626677239000,-0.369000000000
13.634363106000,-0.361000000000
13.642048973000,-0.352000000000
13.649734840000,-0.315000000000
13.657420707000,-0.290000000000
13.665106574000,-0.288000000000
13.672792441000,-0.292000000000
13.680478308000,-0.310000000000
13.688164175000,-0.302000000000
13.695850042000,-0.275000000000
13.703535909000,-0.300000000000
13.711221776000,-0.342000000000
13.718907643000,-0.315000000000
13.726593510000,-0.258000000000
13.734279377000,-0.265000000000
13.741965244000,-0.300000000000
13.749651111000,-0.288000000000
13.757336978000,-0.263000000000
13.765022845000,-0.265000000000
13.772708712000,-0.275000000000
13.780394579000,-0.253000000000
13.788080446000,-0.248000000000
13.795766313000,-0.260000000000
13.803452180000,-0.206000000000
13.811138047000,-0.164000000000
13.818823914000,-0.221000000000
13.826509781000,-0.241000000000
13.834195648000,-0.184000000000
13.841881515000,-0.182000000000
13.849567382000,-0.238000000000
13.857253249000,-0.263000000000
13.864939116000,-0.251000000000
13.872624983000,-0.246000000000
13.880310850000,-0.248000000000
13.887996717000,-0.233000000000
13.895682584000,-0.221000000000
13.903368451000,-0.221000000000
13.911054318000,-0.216000000000
13.918740185000,-0.224000000000
13.926426052000,-0.273000000000
13.934111919000,-0.253000000000
13.941797786000,0.051000000000
13.949483653000,0.622000000000
13.957169520000,1.225000000000
13.964855443000,1.393000000000
13.972540892000,0.497000000000
13.980226341000,-0.684000000000
13.987911790000,-0.667000000000
13.995597239000,-0.150000000000
14.003282688000,-0.199000000000
14.010968137000,-0.300000000000
14.018653586000,-0.192000000000
14.026339035000,-0.192000000000
14.034024484000,-0.236000000000
14.041709933000,-0.182000000000
14.049395382000,-0.145000000000
14.057080831000,-0.135000000000
14.064766280000,-0.086000000000
14.072451729000,-0.059000000000
14.080137178000,-0.054000000000
14.087822627000,-0.014000000000
14.095508076000,0.019000000000
14.103193525000,0.036000000000
14.110878974000,0.086000000000
14.118564423000,0.162000000000
14.126249872000,0.211000000000
14.133935321000,0.246000000000
14.141620770000,0.312000000000
14.149306219000,0.384000000000
14.156991668000,0.411000000000
14.164677117000,0.391000000000
14.172362566000,0.339000000000
14.180048015000,0.302000000000
14.187733464000,0.275000000000
14.195418913000,0.189000000000
14.203104362000,0.071000000000
14.210789811000,-0.051000000000
14.218475260000,-0.167000000000
14.226160709000,-0.256000000000
14.233846158000,-0.320000000000
14.241531607000,-0.361000000000
14.249217056000,-0.381000000000
14.256902505000,-0.381000000000
14.264587954000,-0.384000000000
14.272273403000,-0.374000000000
14.279958852000,-0.344000000000
14.287644301000,-0.342000000000
14.295329750000,-0.342000000000
14.303015199000,-0.310000000000
14.310700648000,-0.297000000000
14.318386097000,-0.312000000000
14.326071546000,-0.297000000000
14.333756995000,-0.258000000000
14.341442444000,-0.251000000000
14.349127893000,-0.270000000000
14.356813342000,-0.258000000000
14.364498791000,-0.231000000000
14.372184240000,-0.253000000000
14.379869689000,-0.278000000000
14.387555138000,-0.248000000000
14.395240587000,-0.233000000000
14.402926036000,-0.251000000000
14.410611485000,-0.233000000000
14.418296934000,-0.224000000000
14.425982383000,-0.248000000000
14.433667832000,-0.253000000000
14.441353281000,-0.224000000000
14.449038730000,-0.226000000000
14.456724179000,-0.256000000000
14.464409628000,-0.241000000000
14.472095077000,-0.214000000000
14.479780526000,-0.194000000000
14.487465975000,-0.160000000000
14.495151424000,-0.157000000000
14.502836873000,-0.177000000000
14.510522322000,-0.167000000000
14.518207771000,-0.169000000000
14.525893268000,-0.216000000000
14.533579135000,-0.251000000000
14.541265002000,-0.231000000000
14.548950869000,-0.196000000000
14.556636736000,-0.209000000000
14.564322603000,-0.219000000000
14.572008470000,-0.182000000000
14.579694337000,-0.182000000000
14.587380204000,-0.231000000000
14.595066071000,-0.243000000000
14.602751938000,-0.226000000000
14.610437805000,-0.263000000000
14.618123672000,-0.236000000000
14.625809539000,0.162000000000
14.633495406000,0.824000000000
14.641181273000,1.339000000000
14.648867140000,1.235000000000
14.656553007000,0.162000000000
14.664238874000,-0.804000000000
14.671924741000,-0.553000000000
14.679610608000,-0.140000000000
14.687296475000,-0.273000000000
14.694982342000,-0.300000000000
14.702668209000,-0.179000000000
14.710354076000,-0.201000000000
14.718039943000,-0.224000000000
14.725725810000,-0.172000000000
14.733411677000,-0.150000000000
14.741097544000,-0.145000000000
14.748783411000,-0.118000000000
14.756469278000,-0.083000000000
14.764155145000,-0.064000000000
14.771841012000,-0.044000000000
14.779526879000,0.007000000000
14.787212746000,0.046000000000
14.794898613000,0.064000000000
14.802584480000,0.130000000000
14.810270347000,0.206000000000
14.817956214000,0.238000000000
14.825642081000,0.283000000000
14.833327948000,0.320000000000
14.841013815000,0.307000000000
14.848699682000,0.288000000000
14.856385549000,0.258000000000
14.864071416000,0.216000000000
14.871757283000,0.179000000000
14.879443150000,0.086000000000
14.887129017000,-0.046000000000
14.894814884000,-0.135000000000
14.902500751000,-0.216000000000
14.910186618000,-0.302000000000
14.917872485000,-0.349000000000
14.925558352000,-0.401000000000
14.933244219000,-0.435000000000
14.940930086000,-0.413000000000
14.948615953000,-0.408000000000
14.956301820000,-0.433000000000
14.963987687000,-0.408000000000
14.971673554000,-0.369000000000
14.979359421000,-0.374000000000
14.987045288000,-0.366000000000
14.994731155000,-0.322000000000
15.002417022000,-0.317000000000
15.010102889000,-0.329000000000
15.017788756000,-0.310000000000
15.025474623000,-0.292000000000
15.033160490000,-0.295000000000
15.040846357000,-0.288000000000
15.048532224000,-0.270000000000
15.056218091000,-0.275000000000
15.063903958000,-0.310000000000
15.071589825000,-0.297000000000
15.079275692000,-0.260000000000
15.086961611000,-0.260000000000
15.094647478000,-0.260000000000
15.102333345000,-0.265000000000
15.110019212000,-0.280000000000
15.117705079000,-0.273000000000
15.125390946000,-0.258000000000
15.133076813000,-0.246000000000
15.140762680000,-0.241000000000
15.148448547000,-0.265000000000
15.156134414000,-0.265000000000
15.163820281000,-0.216000000000
15.171506148000,-0.184000000000
15.179192015000,-0.182000000000
15.186877882000,-0.167000000000
15.194563749000,-0.155000000000
15.202249616000,-0.177000000000
15.209935483000,-0.214000000000
15.217621350000,-0.214000000000
15.225307217000,-0.194000000000
15.232993084000,-0.199000000000
15.240678951000,-0.201000000000
15.248364818000,-0.211000000000
15.256050685000,-0.233000000000
15.263736552000,-0.206000000000
15.271422419000,-0.152000000000
15.279108286000,-0.169000000000
15.286794153000,-0.228000000000
15.294480020000,-0.248000000000
15.302165887000,-0.263000000000
15.309851754000,-0.201000000000
15.317537621000,0.192000000000
15.325223488000,0.871000000000
15.332909355000,1.437000000000
15.340595222000,1.331000000000
15.348281089000,0.214000000000
15.355966956000,-0.760000000000
15.363652823000,-0.497000000000
15.371338690000,-0.096000000000
15.379024557000,-0.283000000000
15.386710424000,-0.324000000000
15.394396291000,-0.147000000000
15.402082158000,-0.162000000000
15.409768025000,-0.221000000000
15.417453892000,-0.179000000000
15.425139759000,-0.137000000000
15.432825626000,-0.128000000000
15.440511493000,-0.123000000000
15.448197360000,-0.100000000000
15.455883227000,-0.046000000000
15.463569094000,-0.022000000000
15.471254961000,0.000000000000
15.478940828000,0.061000000000
15.486626695000,0.096000000000
15.494312562000,0.130000000000
15.501998429000,0.211000000000
15.509684296000,0.258000000000
15.517370163000,0.275000000000
15.525056030000,0.315000000000
15.532741897000,0.317000000000
15.540427764000,0.312000000000
15.548113631000,0.320000000000
15.555799498000,0.265000000000
15.563485365000,0.182000000000
15.571171232000,0.118000000000
15.578857099000,0.012000000000
15.586542966000,-0.125000000000
15.594228833000,-0.224000000000
15.601914700000,-0.310000000000
15.609600567000,-0.386000000000
15.617286434000,-0.416000000000
15.624972301000,-0.425000000000
15.632658168000,-0.420000000000
15.640344035000,-0.391000000000
15.648029954000,-0.403000000000
15.655715403000,-0.438000000000
15.663400852000,-0.413000000000
15.671086301000,-0.374000000000
15.678771750000,-0.366000000000
15.686457199000,-0.356000000000
15.694142648000,-0.342000000000
15.701828097000,-0.347000000000
15.709513546000,-0.337000000000
15.717198995000,-0.322000000000
15.724884444000,-0.324000000000
15.732569893000,-0.315000000000
15.740255342000,-0.288000000000
15.747940791000,-0.295000000000
15.755626240000,-0.322000000000
15.763311689000,-0.317000000000
15.770997138000,-0.297000000000
15.778682587000,-0.297000000000
15.786368036000,-0.307000000000
15.794053485000,-0.307000000000
15.801738934000,-0.295000000000
15.809424383000,-0.295000000000
15.817109832000,-0.295000000000
15.824795281000,-0.283000000000
15.832480730000,-0.283000000000
15.840166179000,-0.295000000000
15.847851628000,-0.292000000000
15.855537077000,-0.268000000000
15.863222526000,-0.228000000000
15.870907975000,-0.204000000000
15.878593424000,-0.209000000000
15.886278873000,-0.219000000000
15.893964322000,-0.214000000000
15.901649771000,-0.216000000000
15.909335220000,-0.243000000000
15.917020669000,-0.268000000000
15.924706118000,-0.258000000000
15.932391567000,-0.243000000000
15.940077016000,-0.243000000000
15.947762465000,-0.241000000000
15.955447914000,-0.231000000000
15.963133363000,-0.228000000000
15.970818812000,-0.231000000000
15.978504261000,-0.241000000000
15.986189710000,-0.268000000000
15.993875159000,-0.273000000000
16.001560608000,-0.071000000000
16.009246057000,0.450000000000
16.016931506000,1.085000000000
16.024616955000,1.388000000000
16.032302404000,0.706000000000
16.039987853000,-0.548000000000
16.047673302000,-0.792000000000
16.055358751000,-0.238000000000
16.063044200000,-0.177000000000
16.070729649000,-0.334000000000
16.078415098000,-0.228000000000
16.086100547000,-0.167000000000
16.093785996000,-0.219000000000
16.101471445000,-0.189000000000
16.109156894000,-0.140000000000
16.116842343000,-0.142000000000
16.124527792000,-0.118000000000
16.132213241000,-0.071000000000
16.139898690000,-0.049000000000
16.147584139000,-0.039000000000
16.155269588000,-0.004000000000
16.162955037000,0.049000000000
16.170640486000,0.091000000000
16.178325935000,0.120000000000
16.186011384000,0.167000000000
16.193696833000,0.224000000000
16.201382282000,0.270000000000
16.209067779000,0.307000000000
16.216753646000,0.329000000000
16.224439513000,0.327000000000
16.232125380000,0.310000000000
16.239811247000,0.283000000000
16.247497114000,0.241000000000
16.255182981000,0.177000000000
16.262868848000,0.078000000000
16.270554715000,-0.027000000000
16.278240582000,-0.123000000000
16.285926449000,-0.214000000000
16.293612316000,-0.285000000000
16.301298183000,-0.334000000000
16.308984050000,-0.364000000000
16.316669917000,-0.364000000000
16.324355784000,-0.352000000000
16.332041651000,-0.359000000000
16.339727518000,-0.364000000000
16.347413385000,-0.334000000000
16.355099252000,-0.312000000000
16.362785119000,-0.317000000000
16.370470986000,-0.307000000000
16.378156853000,-0.280000000000
16.385842720000,-0.268000000000
16.393528587000,-0.263000000000
16.401214454000,-0.248000000000
16.408900321000,-0.246000000000
16.416586188000,-0.251000000000
16.424272055000,-0.243000000000
16.431957922000,-0.238000000000
16.439643789000,-0.246000000000
16.447329656000,-0.241000000000
16.455015523000,-0.233000000000
16.462701390000,-0.236000000000
16.470387257000,-0.236000000000
16.478073124000,-0.231000000000
16.485758991000,-0.228000000000
16.493444858000,-0.226000000000
16.501130725000,-0.221000000000
16.508816592000,-0.219000000000
16.516502459000,-0.221000000000
16.524188326000,-0.216000000000
16.531874193000,-0.214000000000
16.539560060000,-0.219000000000
16.547245927000,-0.216000000000
16.554931794000,-0.189000000000
16.562617661000,-0.147000000000
16.570303528000,-0.128000000000
16.577989395000,-0.145000000000
16.585675262000,-0.157000000000
16.593361129000,-0.157000000000
16.601046996000,-0.177000000000
16.608732863000,-0.206000000000
16.616418730000,-0.214000000000
16.624104597000,-0.206000000000
16.631790464000,-0.196000000000
16.639476331000,-0.194000000000
16.647162198000,-0.194000000000
16.654848065000,-0.189000000000
16.662533932000,-0.184000000000
16.670219799000,-0.194000000000
16.677905666000,-0.211000000000
16.685591533000,-0.251000000000
16.693277400000,-0.243000000000
16.700963267000,0.046000000000
16.708649134000,0.674000000000
16.716335001000,1.307000000000
16.724020868000,1.405000000000
16.731706735000,0.465000000000
16.739392602000,-0.681000000000
16.747078469000,-0.649000000000
16.754764336000,-0.145000000000
16.762450203000,-0.204000000000
16.770136122000,-0.310000000000
16.777821989000,-0.194000000000
16.785507856000,-0.174000000000
16.793193723000,-0.206000000000
16.800879590000,-0.160000000000
16.808565457000,-0.130000000000
16.816251324000,-0.135000000000
16.823937191000,-0.105000000000
16.831623058000,-0.071000000000
16.839308925000,-0.049000000000
16.846994792000,-0.014000000000
16.854680659000,0.022000000000
16.862366526000,0.049000000000
16.870052393000,0.086000000000
16.877738260000,0.132000000000
16.885424127000,0.192000000000
16.893109994000,0.253000000000
16.900795861000,0.302000000000
16.908481728000,0.344000000000
16.916167595000,0.371000000000
16.923853462000,0.366000000000
16.931539329000,0.334000000000
16.939225196000,0.297000000000
16.946911063000,0.260000000000
16.954596930000,0.189000000000
16.962282797000,0.068000000000
16.969968664000,-0.051000000000
16.977654531000,-0.152000000000
16.985340398000,-0.248000000000
16.993026265000,-0.317000000000
17.000712132000,-0.354000000000
17.008397999000,-0.376000000000
17.016083866000,-0.384000000000
17.023769733000,-0.384000000000
17.031455600000,-0.376000000000
17.039141467000,-0.369000000000
17.046827334000,-0.359000000000
17.054513201000,-0.339000000000
17.062199068000,-0.322000000000
17.069884935000,-0.320000000000
17.077570802000,-0.305000000000
17.085256669000,-0.285000000000
17.092942536000,-0.275000000000
17.100628403000,-0.273000000000
17.108314270000,-0.265000000000
17.116000137000,-0.256000000000
17.123686004000,-0.258000000000
17.131371871000,-0.260000000000
17.139057738000,-0.260000000000
17.146743605000,-0.263000000000
17.154429472000,-0.268000000000
17.162115339000,-0.265000000000
17.169801206000,-0.256000000000
17.177487073000,-0.251000000000
17.185172940000,-0.248000000000
17.192858807000,-0.243000000000
17.200544674000,-0.238000000000
17.208230541000,-0.246000000000
17.215916408000,-0.265000000000
17.223602275000,-0.278000000000
17.231288142000,-0.265000000000
17.238974009000,-0.246000000000
17.246659876000,-0.221000000000
17.254345743000,-0.179000000000
17.262031610000,-0.157000000000
17.269717477000,-0.182000000000
17.277403344000,-0.192000000000
17.285089211000,-0.189000000000
17.292775078000,-0.209000000000
17.300460945000,-0.231000000000
17.308146812000,-0.238000000000
17.315832679000,-0.236000000000
17.323518546000,-0.228000000000
17.331204469000,-0.216000000000
17.338889918000,-0.211000000000
17.346575367000,-0.214000000000
17.354260816000,-0.214000000000
17.361946265000,-0.211000000000
17.369631714000,-0.226000000000
17.377317163000,-0.270000000000
17.385002612000,-0.263000000000
17.392688061000,0.036000000000
17.400373510000,0.672000000000
17.408058959000,1.294000000000
17.415744408000,1.376000000000
17.423429857000,0.443000000000
17.431115306000,-0.696000000000
17.438800755000,-0.679000000000
17.446486204000,-0.187000000000
17.454171653000,-0.233000000000
17.461857102000,-0.322000000000
17.469542551000,-0.204000000000
17.477228000000,-0.189000000000
17.484913449000,-0.231000000000
17.492598898000,-0.199000000000
17.500284347000,-0.157000000000
17.507969796000,-0.150000000000
17.515655245000,-0.128000000000
17.523340694000,-0.088000000000
17.531026143000,-0.056000000000
17.538711592000,-0.041000000000
17.546397041000,-0.022000000000
17.554082490000,0.019000000000
17.561767939000,0.066000000000
17.569453388000,0.105000000000
17.577138837000,0.157000000000
17.584824286000,0.216000000000
17.592509735000,0.263000000000
17.600195184000,0.297000000000
17.607880633000,0.310000000000
17.615566082000,0.305000000000
17.623251531000,0.285000000000
17.630936980000,0.263000000000
17.638622429000,0.211000000000
17.646307878000,0.123000000000
17.653993327000,0.014000000000
17.661678776000,-0.115000000000
17.669364225000,-0.238000000000
17.677049674000,-0.305000000000
17.684735123000,-0.344000000000
17.692420572000,-0.398000000000
17.700106021000,-0.425000000000
17.707791470000,-0.420000000000
17.715476919000,-0.416000000000
17.723162368000,-0.413000000000
17.730847817000,-0.401000000000
17.738533266000,-0.386000000000
17.746218715000,-0.376000000000
17.753904164000,-0.359000000000
17.761589613000,-0.339000000000
17.769275062000,-0.329000000000
17.776960511000,-0.320000000000
17.784645960000,-0.305000000000
17.792331409000,-0.300000000000
17.800016858000,-0.302000000000
17.807702307000,-0.292000000000
17.815387756000,-0.288000000000
17.823073205000,-0.292000000000
17.830758654000,-0.285000000000
17.838444103000,-0.278000000000
17.846129552000,-0.285000000000
17.853815001000,-0.285000000000
17.861500450000,-0.275000000000
17.869185899000,-0.270000000000
17.876871348000,-0.275000000000
17.884556797000,-0.273000000000
17.892242294000,-0.273000000000
17.899928161000,-0.273000000000
17.907614028000,-0.260000000000
17.915299895000,-0.253000000000
17.922985762000,-0.258000000000
17.930671629000,-0.251000000000
17.938357496000,-0.238000000000
17.946043363000,-0.241000000000
17.953729230000,-0.238000000000
17.961415097000,-0.221000000000
17.969100964000,-0.187000000000
17.976786831000,-0.167000000000
17.984472698000,-0.184000000000
17.992158565000,-0.199000000000
17.999844432000,-0.189000000000
18.007530299000,-0.206000000000
18.015216166000,-0.241000000000
18.022902033000,-0.241000000000
18.030587900000,-0.231000000000
18.038273767000,-0.228000000000
18.045959634000,-0.224000000000
18.053645501000,-0.214000000000
18.061331368000,-0.214000000000
18.069017235000,-0.216000000000
18.076703102000,-0.224000000000
18.084388969000,-0.248000000000
18.092074836000,-0.283000000000
18.099760703000,-0.219000000000
18.107446570000,0.147000000000
18.115132437000,0.782000000000
18.122818304000,1.351000000000
18.130504171000,1.267000000000
18.138190038000,0.150000000000
18.145875905000,-0.814000000000
18.153561772000,-0.544000000000
18.161247639000,-0.128000000000
18.168933506000,-0.278000000000
18.176619373000,-0.327000000000
18.184305240000,-0.201000000000
18.191991107000,-0.211000000000
18.199676974000,-0.233000000000
18.207362841000,-0.182000000000
18.215048708000,-0.160000000000
18.222734575000,-0.157000000000
18.230420442000,-0.125000000000
18.238106309000,-0.091000000000
18.245792176000,-0.073000000000
18.253478043000,-0.049000000000
18.261163910000,-0.009000000000
18.268849777000,0.027000000000
18.276535644000,0.061000000000
18.284221511000,0.110000000000
18.291907378000,0.169000000000
18.299593245000,0.221000000000
18.307279112000,0.258000000000
18.314964979000,0.292000000000
18.322650846000,0.305000000000
18.330336713000,0.292000000000
18.338022580000,0.278000000000
18.345708447000,0.256000000000
18.353394314000,0.204000000000
18.361080181000,0.120000000000
18.368766048000,0.012000000000
18.376451915000,-0.096000000000
18.384137782000,-0.192000000000
18.391823649000,-0.273000000000
18.399509516000,-0.339000000000
18.407195383000,-0.376000000000
18.414881250000,-0.396000000000
18.422567117000,-0.406000000000
18.430252984000,-0.406000000000
18.437938851000,-0.396000000000
18.445624718000,-0.384000000000
18.453310637000,-0.369000000000
18.460996086000,-0.354000000000
18.468681535000,-0.344000000000
18.476366984000,-0.334000000000
18.484052433000,-0.317000000000
18.491737882000,-0.302000000000
18.499423331000,-0.300000000000
18.507108780000,-0.302000000000
18.514794229000,-0.292000000000
18.522479678000,-0.283000000000
18.530165127000,-0.280000000000
18.537850576000,-0.280000000000
18.545536025000,-0.275000000000
18.553221474000,-0.270000000000
18.560906923000,-0.270000000000
18.568592372000,-0.270000000000
18.576277821000,-0.263000000000
18.583963270000,-0.263000000000
18.591648719000,-0.275000000000
18.599334168000,-0.273000000000
18.607019617000,-0.260000000000
18.614705066000,-0.260000000000
18.622390515000,-0.253000000000
18.630075964000,-0.243000000000
18.637761413000,-0.243000000000
18.645446862000,-0.236000000000
18.653132311000,-0.228000000000
18.660817760000,-0.238000000000
18.668503209000,-0.248000000000
18.676188658000,-0.243000000000
18.683874107000,-0.228000000000
18.691559556000,-0.194000000000
18.699245005000,-0.152000000000
18.706930454000,-0.145000000000
18.714615903000,-0.167000000000
18.722301352000,-0.172000000000
18.729986801000,-0.172000000000
18.737672250000,-0.204000000000
18.745357699000,-0.233000000000
18.753043148000,-0.226000000000
18.760728597000,-0.214000000000
18.768414046000,-0.214000000000
18.776099495000,-0.209000000000
18.783784944000,-0.204000000000
18.791470393000,-0.201000000000
18.799155842000,-0.199000000000
18.806841291000,-0.206000000000
18.814526740000,-0.231000000000
18.822212189000,-0.268000000000
18.829897638000,-0.184000000000
18.837583087000,0.224000000000
18.845268536000,0.876000000000
18.852953985000,1.400000000000
18.860639434000,1.174000000000
18.868324883000,-0.039000000000
18.876010332000,-0.859000000000
18.883695781000,-0.460000000000
18.891381230000,-0.113000000000
18.899066679000,-0.285000000000
18.906752128000,-0.295000000000
18.914437577000,-0.189000000000
18.922123026000,-0.214000000000
18.929808475000,-0.216000000000
18.937493924000,-0.157000000000
18.945179373000,-0.147000000000
18.952864822000,-0.145000000000
18.960550271000,-0.108000000000
18.968235720000,-0.076000000000
18.975921169000,-0.056000000000
18.983606618000,-0.024000000000
18.991292067000,0.017000000000
18.998977516000,0.051000000000
19.006662965000,0.086000000000
19.014348462000,0.137000000000
19.022034329000,0.189000000000
19.029720196000,0.231000000000
19.037406063000,0.275000000000
19.045091930000,0.310000000000
19.052777797000,0.315000000000
19.060463664000,0.300000000000
19.068149531000,0.290000000000
19.075835398000,0.260000000000
19.083521265000,0.204000000000
19.091207132000,0.125000000000
19.098892999000,0.024000000000
19.106578866000,-0.081000000000
19.114264733000,-0.172000000000
19.121950600000,-0.253000000000
19.129636467000,-0.322000000000
19.137322334000,-0.359000000000
19.145008201000,-0.374000000000
19.152694068000,-0.376000000000
19.160379935000,-0.371000000000
19.168065802000,-0.374000000000
19.175751669000,-0.369000000000
19.183437536000,-0.347000000000
19.191123403000,-0.327000000000
19.198809270000,-0.317000000000
19.206495137000,-0.307000000000
19.214181004000,-0.297000000000
19.221866871000,-0.285000000000
19.229552738000,-0.275000000000
19.237238605000,-0.268000000000
19.244924472000,-0.268000000000
19.252610339000,-0.265000000000
19.260296206000,-0.258000000000
19.267982073000,-0.258000000000
19.275667940000,-0.265000000000
19.283353807000,-0.260000000000
19.291039674000,-0.253000000000
19.298725541000,-0.253000000000
19.306411408000,-0.251000000000
19.314097275000,-0.246000000000
19.321783142000,-0.246000000000
19.329469009000,-0.243000000000
19.337154876000,-0.241000000000
19.344840743000,-0.238000000000
19.352526610000,-0.233000000000
19.360212477000,-0.226000000000
19.367898344000,-0.224000000000
19.375584211000,-0.216000000000
19.383270078000,-0.209000000000
19.390955945000,-0.209000000000
19.398641812000,-0.209000000000
19.406327679000,-0.201000000000
19.414013546000,-0.204000000000
19.421699413000,-0.201000000000
19.429385280000,-0.169000000000
19.437071147000,-0.128000000000
19.444757014000,-0.120000000000
19.452442881000,-0.140000000000
19.460128748000,-0.152000000000
19.467814615000,-0.162000000000
19.475500482000,-0.187000000000
19.483186349000,-0.199000000000
19.490872216000,-0.192000000000
19.498558083000,-0.189000000000
19.506243950000,-0.192000000000
19.513929817000,-0.179000000000
19.521615684000,-0.169000000000
19.529301551000,-0.169000000000
19.536987418000,-0.172000000000
19.544673285000,-0.179000000000
19.552359152000,-0.211000000000
19.560045019000,-0.246000000000
19.567730886000,-0.110000000000
19.575416805000,0.386000000000
19.583102254000,1.053000000000
19.590787703000,1.462000000000
19.598473152000,1.016000000000
19.606158601000,-0.236000000000
19.613844050000,-0.800000000000
19.621529499000,-0.305000000000
19.629214948000,-0.096000000000
19.636900397000,-0.283000000000
19.644585846000,-0.241000000000
19.652271295000,-0.150000000000
19.659956744000,-0.184000000000
19.667642193000,-0.182000000000
19.675327642000,-0.130000000000
19.683013091000,-0.110000000000
19.690698540000,-0.103000000000
19.698383989000,-0.078000000000
19.706069438000,-0.049000000000
19.713754887000,-0.022000000000
19.721440336000,0.007000000000
19.729125785000,0.046000000000
19.736811234000,0.091000000000
19.744496683000,0.135000000000
19.752182132000,0.182000000000
19.759867581000,0.224000000000
19.767553030000,0.270000000000
19.775238479000,0.320000000000
19.782923928000,0.352000000000
19.790609377000,0.356000000000
19.798294826000,0.342000000000
19.805980275000,0.320000000000
19.813665724000,0.292000000000
19.821351173000,0.238000000000
19.829036622000,0.142000000000
19.836722071000,0.027000000000
19.844407520000,-0.078000000000
19.852092969000,-0.174000000000
19.859778418000,-0.260000000000
19.867463867000,-0.320000000000
19.875149316000,-0.349000000000
19.882834765000,-0.369000000000
19.890520214000,-0.381000000000
19.898205663000,-0.379000000000
19.905891112000,-0.371000000000
19.913576561000,-0.371000000000
19.921262010000,-0.356000000000
19.928947459000,-0.329000000000
19.936632908000,-0.317000000000
19.944318357000,-0.310000000000
19.952003806000,-0.290000000000
19.959689255000,-0.278000000000
19.967374704000,-0.280000000000
19.975060153000,-0.278000000000
19.982745602000,-0.258000000000
19.990431051000,-0.251000000000
19.998116500000,-0.253000000000
20.005801949000,-0.251000000000
20.013487398000,-0.248000000000
20.021172847000,-0.246000000000
20.028858296000,-0.241000000000
20.036543745000,-0.238000000000
20.044229194000,-0.236000000000
20.051914643000,-0.233000000000
20.059600092000,-0.228000000000
20.067285541000,-0.226000000000
20.074970990000,-0.224000000000
20.082656439000,-0.219000000000
20.090341888000,-0.211000000000
20.098027337000,-0.206000000000
20.105712786000,-0.204000000000
20.113398235000,-0.211000000000
20.121083684000,-0.211000000000
20.128769133000,-0.201000000000
20.136454630000,-0.182000000000
20.144140497000,-0.160000000000
20.151826364000,-0.150000000000
20.159512231000,-0.150000000000
20.167198098000,-0.152000000000
20.174883965000,-0.160000000000
20.182569832000,-0.177000000000
20.190255699000,-0.196000000000
20.197941566000,-0.199000000000
20.205627433000,-0.187000000000
20.213313300000,-0.184000000000
20.220999167000,-0.192000000000
20.228685034000,-0.184000000000
20.236370901000,-0.179000000000
20.244056768000,-0.187000000000
20.251742635000,-0.196000000000
20.259428502000,-0.221000000000
20.267114369000,-0.256000000000
20.274800236000,-0.108000000000
20.282486103000,0.398000000000
20.290171970000,1.033000000000
20.297857837000,1.400000000000
20.305543704000,0.957000000000
20.313229571000,-0.265000000000
20.320915438000,-0.817000000000
20.328601305000,-0.322000000000
20.336287172000,-0.110000000000
20.343973039000,-0.297000000000
20.351658906000,-0.256000000000
20.359344773000,-0.167000000000
20.367030640000,-0.206000000000
20.374716507000,-0.196000000000
20.382402374000,-0.145000000000
20.390088241000,-0.140000000000
20.397774108000,-0.135000000000
20.405459975000,-0.096000000000
20.413145842000,-0.068000000000
20.420831709000,-0.054000000000
20.428517576000,-0.022000000000
20.436203443000,0.019000000000
20.443889310000,0.059000000000
20.451575177000,0.100000000000
20.459261044000,0.150000000000
20.466946911000,0.206000000000
20.474632778000,0.256000000000
20.482318645000,0.292000000000
20.490004512000,0.317000000000
20.497690379000,0.324000000000
20.505376246000,0.315000000000
20.513062113000,0.290000000000
20.520747980000,0.241000000000
20.528433847000,0.169000000000
20.536119714000,0.086000000000
20.543805581000,-0.022000000000
20.551491448000,-0.140000000000
20.559177315000,-0.238000000000
20.566863182000,-0.300000000000
20.574549049000,-0.347000000000
20.582234916000,-0.379000000000
20.589920783000,-0.391000000000
20.597606650000,-0.393000000000
20.605292517000,-0.391000000000
20.612978384000,-0.386000000000
20.620664251000,-0.374000000000
20.628350118000,-0.356000000000
20.636035985000,-0.342000000000
20.643721852000,-0.329000000000
20.651407719000,-0.317000000000
20.659093586000,-0.305000000000
20.666779453000,-0.292000000000
20.674465320000,-0.285000000000
20.682151187000,-0.283000000000
20.689837054000,-0.278000000000
20.697522977000,-0.273000000000
20.705208426000,-0.270000000000
20.712893875000,-0.268000000000
20.720579324000,-0.258000000000
20.728264773000,-0.251000000000
20.735950222000,-0.260000000000
20.743635671000,-0.268000000000
20.751321120000,-0.263000000000
20.759006569000,-0.256000000000
20.766692018000,-0.256000000000
20.774377467000,-0.258000000000
20.782062916000,-0.256000000000
20.789748365000,-0.251000000000
20.797433814000,-0.256000000000
20.805119263000,-0.251000000000
20.812804712000,-0.238000000000
20.820490161000,-0.236000000000
20.828175610000,-0.233000000000
20.835861059000,-0.226000000000
20.843546508000,-0.233000000000
20.851231957000,-0.248000000000
20.858917406000,-0.231000000000
20.866602855000,-0.189000000000
20.874288304000,-0.169000000000
20.881973753000,-0.177000000000
20.889659202000,-0.192000000000
20.897344651000,-0.194000000000
20.905030100000,-0.194000000000
20.912715549000,-0.221000000000
20.920400998000,-0.241000000000
20.928086447000,-0.231000000000
20.935771896000,-0.226000000000
20.943457345000,-0.221000000000
20.951142794000,-0.211000000000
20.958828243000,-0.209000000000
20.966513692000,-0.209000000000
20.974199141000,-0.214000000000
20.981884590000,-0.231000000000
20.989570039000,-0.265000000000
20.997255488000,-0.216000000000
21.004940937000,0.105000000000
21.012626386000,0.667000000000
21.020311835000,1.196000000000
21.027997284000,1.238000000000
21.035682733000,0.290000000000
21.043368182000,-0.760000000000
21.051053631000,-0.608000000000
21.058739080000,-0.118000000000
21.066424529000,-0.226000000000
21.074109978000,-0.312000000000
21.081795427000,-0.189000000000
21.089480876000,-0.192000000000
21.097166325000,-0.226000000000
21.104851774000,-0.169000000000
21.112537223000,-0.142000000000
21.120222672000,-0.147000000000
21.127908121000,-0.120000000000
21.135593570000,-0.086000000000
21.143279019000,-0.066000000000
21.150964468000,-0.039000000000
21.158649917000,-0.007000000000
21.166335366000,0.024000000000
21.174020815000,0.068000000000
21.181706264000,0.125000000000
21.189391713000,0.172000000000
21.197077162000,0.216000000000
21.204762611000,0.260000000000
21.212448060000,0.290000000000
21.220133509000,0.307000000000
21.227818958000,0.312000000000
21.235504407000,0.305000000000
21.243189856000,0.275000000000
21.250875305000,0.219000000000
21.258560802000,0.142000000000
21.266246669000,0.054000000000
21.273932536000,-0.059000000000
21.281618403000,-0.172000000000
21.289304270000,-0.263000000000
21.296990137000,-0.329000000000
21.304676004000,-0.369000000000
21.312361871000,-0.376000000000
21.320047738000,-0.388000000000
21.327733605000,-0.401000000000
21.335419472000,-0.398000000000
21.343105339000,-0.388000000000
21.350791206000,-0.374000000000
21.358477073000,-0.356000000000
21.366162940000,-0.342000000000
21.373848807000,-0.322000000000
21.381534674000,-0.310000000000
21.389220541000,-0.302000000000
21.396906408000,-0.290000000000
21.404592275000,-0.275000000000
21.412278142000,-0.283000000000
21.419964009000,-0.290000000000
21.427649876000,-0.280000000000
21.435335743000,-0.268000000000
21.443021610000,-0.270000000000
21.450707477000,-0.258000000000
21.458393344000,-0.248000000000
21.466079211000,-0.263000000000
21.473765078000,-0.265000000000
21.481450945000,-0.253000000000
21.489136812000,-0.268000000000
21.496822679000,-0.273000000000
21.504508546000,-0.253000000000
21.512194413000,-0.253000000000
21.519880280000,-0.263000000000
21.527566147000,-0.248000000000
21.535252014000,-0.236000000000
21.542937881000,-0.238000000000
21.550623748000,-0.226000000000
21.558309615000,-0.219000000000
21.565995482000,-0.238000000000
21.573681349000,-0.231000000000
21.581367216000,-0.211000000000
21.589053083000,-0.214000000000
21.596738950000,-0.179000000000
21.604424817000,-0.147000000000
21.612110684000,-0.174000000000
21.619796551000,-0.182000000000
21.627482418000,-0.157000000000
21.635168285000,-0.192000000000
21.642854152000,-0.238000000000
21.650540019000,-0.219000000000
21.658225886000,-0.204000000000
21.665911753000,-0.214000000000
21.673597620000,-0.211000000000
21.681283487000,-0.204000000000
21.688969354000,-0.209000000000
21.696655221000,-0.206000000000
21.704341088000,-0.199000000000
21.712026955000,-0.211000000000
21.719712822000,-0.248000000000
21.727398689000,-0.145000000000
21.735084556000,0.292000000000
21.742770423000,0.913000000000
21.750456290000,1.329000000000
21.758142157000,0.945000000000
21.765828024000,-0.278000000000
21.773513891000,-0.854000000000
21.781199758000,-0.349000000000
21.788885625000,-0.110000000000
21.796571492000,-0.305000000000
21.804257359000,-0.263000000000
21.811943226000,-0.162000000000
21.819629145000,-0.209000000000
21.827314873000,-0.206000000000
21.835000601000,-0.147000000000
21.842686329000,-0.140000000000
21.850372057000,-0.140000000000
21.858057785000,-0.105000000000
21.865743513000,-0.068000000000
21.873429241000,-0.051000000000
21.881114969000,-0.027000000000
21.888800697000,0.017000000000
21.896486425000,0.056000000000
21.904172153000,0.088000000000
21.911857881000,0.137000000000
21.919543609000,0.196000000000
21.927229337000,0.241000000000
21.934915065000,0.273000000000
21.942600793000,0.305000000000
21.950286521000,0.327000000000
21.957972249000,0.307000000000
21.965657977000,0.260000000000
21.973343705000,0.233000000000
21.981029433000,0.192000000000
21.988715161000,0.103000000000
21.996400889000,-0.007000000000
22.004086617000,-0.105000000000
22.011772345000,-0.199000000000
22.019458073000,-0.275000000000
22.027143801000,-0.332000000000
22.034829529000,-0.374000000000
22.042515257000,-0.388000000000
22.050200985000,-0.376000000000
22.057886713000,-0.374000000000
22.065572441000,-0.384000000000
22.073258169000,-0.371000000000
22.080943897000,-0.347000000000
22.088629625000,-0.347000000000
22.096315353000,-0.337000000000
22.104001081000,-0.312000000000
22.111686809000,-0.300000000000
22.119372537000,-0.288000000000
22.127058265000,-0.275000000000
22.134743993000,-0.275000000000
22.142429721000,-0.273000000000
22.150115449000,-0.263000000000
22.157801177000,-0.263000000000
22.165486905000,-0.260000000000
22.173172633000,-0.253000000000
22.180858361000,-0.256000000000
22.188544089000,-0.260000000000
22.196229817000,-0.253000000000
22.203915545000,-0.246000000000
22.211601273000,-0.248000000000
22.219287001000,-0.246000000000
22.226972729000,-0.236000000000
22.234658457000,-0.231000000000
22.242344185000,-0.233000000000
22.250029913000,-0.228000000000
22.257715641000,-0.221000000000
22.265401369000,-0.219000000000
22.273087097000,-0.216000000000
22.280772825000,-0.221000000000
22.288458553000,-0.226000000000
22.296144281000,-0.209000000000
22.303830009000,-0.189000000000
22.311515737000,-0.160000000000
22.319201465000,-0.128000000000
22.326887193000,-0.132000000000
22.334572921000,-0.150000000000
22.342258649000,-0.152000000000
22.349944377000,-0.174000000000
22.357630105000,-0.199000000000
22.365315833000,-0.196000000000
22.373001561000,-0.201000000000
22.380687318000,-0.206000000000
22.388372906000,-0.184000000000
22.396058494000,-0.179000000000
22.403744082000,-0.192000000000
22.411429670000,-0.179000000000
22.419115258000,-0.174000000000
22.426800846000,-0.201000000000
22.434486434000,-0.243000000000
22.442172022000,-0.204000000000
22.449857610000,0.108000000000
22.457543198000,0.679000000000
22.465228786000,1.211000000000
22.472914374000,1.260000000000
22.480599962000,0.349000000000
22.488285550000,-0.706000000000
22.495971138000,-0.585000000000
22.503656726000,-0.083000000000
22.511342314000,-0.182000000000
22.519027902000,-0.280000000000
22.526713490000,-0.152000000000
22.534399078000,-0.147000000000
22.542084666000,-0.187000000000
22.549770254000,-0.135000000000
22.557455842000,-0.103000000000
22.565141430000,-0.098000000000
22.572827018000,-0.076000000000
22.580512606000,-0.054000000000
22.588198194000,-0.027000000000
22.595883782000,0.012000000000
22.603569370000,0.044000000000
22.611254958000,0.081000000000
22.618940546000,0.130000000000
22.626626134000,0.172000000000
22.634311722000,0.216000000000
22.641997310000,0.263000000000
22.649682898000,0.307000000000
22.657368486000,0.342000000000
22.665054074000,0.371000000000
22.672739662000,0.381000000000
22.680425250000,0.356000000000
22.688110838000,0.312000000000
22.695796426000,0.258000000000
22.703482014000,0.182000000000
22.711167602000,0.088000000000
22.718853190000,-0.014000000000
22.726538778000,-0.125000000000
22.734224366000,-0.219000000000
22.741909954000,-0.270000000000
22.749595542000,-0.305000000000
22.757281130000,-0.339000000000
22.764966718000,-0.359000000000
22.772652306000,-0.359000000000
22.780337894000,-0.337000000000
22.788023482000,-0.312000000000
22.795709070000,-0.310000000000
22.803394658000,-0.320000000000
22.811080246000,-0.312000000000
22.818765834000,-0.280000000000
22.826451422000,-0.268000000000
22.834137010000,-0.278000000000
22.841822598000,-0.258000000000
22.849508186000,-0.221000000000
22.857193774000,-0.231000000000
22.864879362000,-0.253000000000
22.872564950000,-0.236000000000
22.880250538000,-0.219000000000
22.887936126000,-0.238000000000
22.895621714000,-0.248000000000
22.903307302000,-0.233000000000
22.910992890000,-0.226000000000
22.918678478000,-0.226000000000
22.926364066000,-0.241000000000
22.934049654000,-0.256000000000
22.941735313000,-0.219000000000
22.949421180000,-0.187000000000
22.957107047000,-0.216000000000
22.964792914000,-0.236000000000
22.972478781000,-0.221000000000
22.980164648000,-0.224000000000
22.987850515000,-0.211000000000
22.995536382000,-0.206000000000
23.003222249000,-0.231000000000
23.010908116000,-0.216000000000
23.018593983000,-0.160000000000
23.026279850000,-0.150000000000
23.033965717000,-0.162000000000
23.041651584000,-0.147000000000
23.049337451000,-0.152000000000
23.057023318000,-0.192000000000
23.064709185000,-0.211000000000
23.072395052000,-0.214000000000
23.080080919000,-0.219000000000
23.087766786000,-0.219000000000
23.095452653000,-0.196000000000
23.103138520000,-0.177000000000
23.110824387000,-0.206000000000
23.118510254000,-0.241000000000
23.126196121000,-0.211000000000
23.133881988000,-0.192000000000
23.141567855000,-0.258000000000
23.149253722000,-0.192000000000
23.156939589000,0.275000000000
23.164625456000,0.891000000000
23.172311323000,1.282000000000
23.179997190000,1.068000000000
23.187683057000,-0.007000000000
23.195368924000,-0.787000000000
23.203054791000,-0.435000000000
23.210740658000,-0.118000000000
23.218426525000,-0.297000000000
23.226112392000,-0.270000000000
23.233798259000,-0.132000000000
23.241484126000,-0.184000000000
23.249169993000,-0.206000000000
23.256855860000,-0.137000000000
23.264541727000,-0.130000000000
23.272227594000,-0.130000000000
23.279913461000,-0.081000000000
23.287599328000,-0.071000000000
23.295285195000,-0.083000000000
23.302971062000,-0.041000000000
23.310656929000,0.009000000000
23.318342796000,0.046000000000
23.326028663000,0.091000000000
23.333714530000,0.155000000000
23.341400397000,0.199000000000
23.349086264000,0.211000000000
23.356772131000,0.251000000000
23.364457998000,0.290000000000
23.372143865000,0.290000000000
23.379829732000,0.285000000000
23.387515599000,0.265000000000
23.395201466000,0.221000000000
23.402887333000,0.157000000000
23.410573200000,0.086000000000
23.418259067000,-0.002000000000
23.425944934000,-0.128000000000
23.433630801000,-0.238000000000
23.441316668000,-0.302000000000
23.449002535000,-0.359000000000
23.456688402000,-0.393000000000
23.464374269000,-0.396000000000
23.472060136000,-0.403000000000
23.479746003000,-0.416000000000
23.487431870000,-0.406000000000
23.495117737000,-0.369000000000
23.502803656000,-0.342000000000
23.510489105000,-0.349000000000
23.518174554000,-0.347000000000
23.525860003000,-0.327000000000
23.533545452000,-0.322000000000
23.541230901000,-0.322000000000
23.548916350000,-0.300000000000
23.556601799000,-0.275000000000
23.564287248000,-0.280000000000
23.571972697000,-0.295000000000
23.579658146000,-0.292000000000
23.587343595000,-0.278000000000
23.595029044000,-0.265000000000
23.602714493000,-0.270000000000
23.610399942000,-0.278000000000
23.618085391000,-0.270000000000
23.625770840000,-0.263000000000
23.633456289000,-0.265000000000
23.641141738000,-0.268000000000
23.648827187000,-0.273000000000
23.656512636000,-0.273000000000
23.664198085000,-0.258000000000
23.671883534000,-0.248000000000
23.679568983000,-0.263000000000
23.687254432000,-0.275000000000
23.694939881000,-0.243000000000
23.702625330000,-0.211000000000
23.710310779000,-0.233000000000
23.717996228000,-0.248000000000
23.725681677000,-0.231000000000
23.733367126000,-0.231000000000
23.741052575000,-0.224000000000
23.748738024000,-0.182000000000
23.756423473000,-0.150000000000
23.764108922000,-0.155000000000
23.771794371000,-0.182000000000
23.779479820000,-0.216000000000
23.787165269000,-0.228000000000
23.794850718000,-0.209000000000
23.802536167000,-0.221000000000
23.810221616000,-0.246000000000
23.817907065000,-0.221000000000
23.825592514000,-0.196000000000
23.833277963000,-0.209000000000
23.840963412000,-0.228000000000
23.848648861000,-0.238000000000
23.856334310000,-0.253000000000
23.864019759000,-0.273000000000
23.871705208000,-0.110000000000
23.879390657000,0.403000000000
23.887076106000,1.019000000000
23.894761555000,1.314000000000
23.902447004000,0.723000000000
23.910132453000,-0.482000000000
23.917817902000,-0.785000000000
23.925503351000,-0.241000000000
23.933188800000,-0.152000000000
23.940874249000,-0.356000000000
23.948559698000,-0.285000000000
23.956245147000,-0.189000000000
23.963930596000,-0.221000000000
23.971616045000,-0.211000000000
23.979301494000,-0.167000000000
23.986986943000,-0.162000000000
23.994672392000,-0.142000000000
24.002357841000,-0.103000000000
24.010043290000,-0.100000000000
24.017728739000,-0.088000000000
24.025414188000,-0.051000000000
24.033099637000,-0.009000000000
24.040785086000,0.041000000000
24.048470535000,0.071000000000
24.056155984000,0.088000000000
24.063841485000,0.145000000000
24.071527352000,0.219000000000
24.079213219000,0.253000000000
24.086899086000,0.258000000000
24.094584953000,0.241000000000
24.102270820000,0.233000000000
24.109956687000,0.263000000000
24.117642554000,0.243000000000
24.125328421000,0.155000000000
24.133014288000,0.056000000000
24.140700155000,-0.051000000000
24.148386022000,-0.160000000000
24.156071889000,-0.270000000000
24.163757756000,-0.359000000000
24.171443623000,-0.347000000000
24.179129490000,-0.320000000000
24.186815357000,-0.396000000000
24.194501224000,-0.450000000000
24.202187091000,-0.428000000000
24.209872958000,-0.428000000000
24.217558825000,-0.423000000000
24.225244692000,-0.359000000000
24.232930559000,-0.310000000000
24.240616426000,-0.329000000000
24.248302293000,-0.315000000000
24.255988160000,-0.270000000000
24.263674027000,-0.278000000000
24.271359894000,-0.280000000000
24.279045761000,-0.288000000000
24.286731628000,-0.307000000000
24.294417495000,-0.263000000000
24.302103362000,-0.231000000000
24.309789229000,-0.300000000000
24.317475096000,-0.322000000000
24.325160963000,-0.236000000000
24.332846830000,-0.221000000000
24.340532697000,-0.305000000000
24.348218564000,-0.290000000000
24.355904431000,-0.231000000000
24.363590298000,-0.278000000000
24.371276165000,-0.283000000000
24.378962032000,-0.204000000000
24.386647899000,-0.211000000000
24.394333766000,-0.273000000000
24.402019633000,-0.275000000000
24.409705500000,-0.258000000000
24.417391367000,-0.258000000000
24.425077234000,-0.241000000000
24.432763101000,-0.209000000000
24.440448968000,-0.224000000000
24.448134835000,-0.251000000000
24.455820702000,-0.211000000000
24.463506569000,-0.132000000000
24.471192436000,-0.115000000000
24.478878303000,-0.179000000000
24.486564170000,-0.209000000000
24.494250037000,-0.194000000000
24.501935904000,-0.226000000000
24.509621771000,-0.253000000000
24.517307638000,-0.224000000000
24.524993505000,-0.194000000000
24.532679372000,-0.192000000000
24.540365239000,-0.209000000000
24.548051106000,-0.216000000000
24.555736973000,-0.182000000000
24.563422840000,-0.164000000000
24.571108707000,-0.187000000000
24.578794574000,-0.253000000000
24.586480441000,-0.256000000000
24.594166308000,0.032000000000
24.601852175000,0.588000000000
24.609538042000,1.186000000000
24.617223909000,1.385000000000
24.624909828000,0.521000000000
24.632595486000,-0.644000000000
24.640281144000,-0.632000000000
24.647966802000,-0.132000000000
24.655652460000,-0.192000000000
24.663338118000,-0.310000000000
24.671023776000,-0.201000000000
24.678709434000,-0.152000000000
24.686395092000,-0.192000000000
24.694080750000,-0.174000000000
24.701766408000,-0.123000000000
24.709452066000,-0.120000000000
24.717137724000,-0.152000000000
24.724823382000,-0.088000000000
24.732509040000,-0.012000000000
24.740194698000,-0.039000000000
24.747880356000,-0.027000000000
24.755566014000,0.061000000000
24.763251672000,0.103000000000
24.770937330000,0.118000000000
24.778622988000,0.155000000000
24.786308646000,0.187000000000
24.793994304000,0.224000000000
24.801679962000,0.292000000000
24.809365620000,0.324000000000
24.817051278000,0.300000000000
24.824736936000,0.275000000000
24.832422594000,0.258000000000
24.840108252000,0.233000000000
24.847793910000,0.164000000000
24.855479568000,0.073000000000
24.863165226000,0.012000000000
24.870850884000,-0.103000000000
24.878536542000,-0.251000000000
24.886222200000,-0.305000000000
24.893907858000,-0.312000000000
24.901593516000,-0.320000000000
24.909279174000,-0.320000000000
24.916964832000,-0.356000000000
24.924650490000,-0.403000000000
24.932336148000,-0.344000000000
24.940021806000,-0.290000000000
24.947707464000,-0.307000000000
24.955393122000,-0.280000000000
24.963078780000,-0.285000000000
24.970764438000,-0.322000000000
24.978450096000,-0.263000000000
24.986135754000,-0.206000000000
24.993821412000,-0.251000000000
25.001507070000,-0.265000000000
25.009192728000,-0.238000000000
25.016878386000,-0.243000000000
25.024564044000,-0.256000000000
25.032249702000,-0.231000000000
25.039935360000,-0.204000000000
25.047621018000,-0.226000000000
25.055306676000,-0.251000000000
25.062992334000,-0.226000000000
25.070677992000,-0.228000000000
25.078363650000,-0.251000000000
25.086049308000,-0.228000000000
25.093734966000,-0.194000000000
25.101420624000,-0.192000000000
25.109106282000,-0.206000000000
25.116791940000,-0.211000000000
25.124477598000,-0.201000000000
25.132163256000,-0.204000000000
25.139848914000,-0.221000000000
25.147534572000,-0.194000000000
25.155220230000,-0.150000000000
25.162905888000,-0.157000000000
25.170591546000,-0.157000000000
25.178277204000,-0.108000000000
25.185962914000,-0.105000000000
25.193648572000,-0.177000000000
25.201334230000,-0.219000000000
25.209019888000,-0.174000000000
25.216705546000,-0.155000000000
25.224391204000,-0.189000000000
25.232076862000,-0.160000000000
25.239762520000,-0.140000000000
25.247448178000,-0.196000000000
25.255133836000,-0.187000000000
25.262819494000,-0.155000000000
25.270505152000,-0.187000000000
25.278190810000,-0.226000000000
25.285876468000,-0.162000000000
25.293562126000,0.204000000000
25.301247784000,0.836000000000
25.308933442000,1.349000000000
25.316619100000,1.166000000000
25.324304758000,0.061000000000
25.331990416000,-0.790000000000
25.339676074000,-0.465000000000
25.347361732000,-0.076000000000
25.355047390000,-0.233000000000
25.362733048000,-0.256000000000
25.370418706000,-0.118000000000
25.378104364000,-0.150000000000
25.385790022000,-0.201000000000
25.393475680000,-0.164000000000
25.401161338000,-0.137000000000
25.408846996000,-0.110000000000
25.416532654000,-0.046000000000
25.424218312000,-0.009000000000
25.431903970000,-0.017000000000
25.439589628000,-0.002000000000
25.447275286000,0.041000000000
25.454960944000,0.108000000000
25.462646602000,0.145000000000
25.470332260000,0.172000000000
25.478017918000,0.236000000000
25.485703576000,0.275000000000
25.493389234000,0.302000000000
25.501074892000,0.344000000000
25.508760550000,0.315000000000
25.516446208000,0.305000000000
25.524131866000,0.352000000000
25.531817524000,0.295000000000
25.539503182000,0.189000000000
25.547188840000,0.132000000000
25.554874498000,0.064000000000
25.562560156000,-0.044000000000
25.570245814000,-0.152000000000
25.577931472000,-0.243000000000
25.585617130000,-0.307000000000
25.593302788000,-0.322000000000
25.600988446000,-0.312000000000
25.608674104000,-0.334000000000
25.616359762000,-0.354000000000
25.624045420000,-0.352000000000
25.631731078000,-0.342000000000
25.639416736000,-0.292000000000
25.647102394000,-0.256000000000
25.654788052000,-0.290000000000
25.662473710000,-0.295000000000
25.670159368000,-0.258000000000
25.677845026000,-0.265000000000
25.685530684000,-0.270000000000
25.693216342000,-0.236000000000
25.700902000000,-0.228000000000
25.708587658000,-0.246000000000
25.716273316000,-0.236000000000
25.723958974000,-0.219000000000
25.731644632000,-0.224000000000
25.739330290000,-0.236000000000
25.747015996000,-0.253000000000
25.754701863000,-0.246000000000
25.762387730000,-0.216000000000
25.770073597000,-0.233000000000
25.777759464000,-0.228000000000
25.785445331000,-0.169000000000
25.793131198000,-0.206000000000
25.800817065000,-0.278000000000
25.808502932000,-0.246000000000
25.816188799000,-0.219000000000
25.823874666000,-0.206000000000
25.831560533000,-0.179000000000
25.839246400000,-0.187000000000
25.846932267000,-0.167000000000
25.854618134000,-0.140000000000
25.862304001000,-0.182000000000
25.869989868000,-0.226000000000
25.877675735000,-0.209000000000
25.885361602000,-0.182000000000
25.893047469000,-0.184000000000
25.900733336000,-0.199000000000
25.908419203000,-0.219000000000
25.916105070000,-0.201000000000
25.923790937000,-0.164000000000
25.931476804000,-0.196000000000
25.939162671000,-0.233000000000
25.946848538000,-0.228000000000
25.954534405000,-0.238000000000
25.962220272000,-0.059000000000
25.969906139000,0.480000000000
25.977592006000,1.078000000000
25.985277873000,1.361000000000
25.992963740000,0.777000000000
26.000649607000,-0.418000000000
26.008335474000,-0.718000000000
26.016021341000,-0.209000000000
26.023707208000,-0.142000000000
26.031393075000,-0.300000000000
26.039078942000,-0.214000000000
26.046764809000,-0.192000000000
26.054450676000,-0.231000000000
26.062136543000,-0.132000000000
26.069822410000,-0.110000000000
26.077508277000,-0.162000000000
26.085194144000,-0.110000000000
26.092880011000,-0.083000000000
26.100565878000,-0.054000000000
26.108251745000,0.017000000000
26.115937612000,-0.014000000000
26.123623479000,-0.007000000000
26.131309346000,0.105000000000
26.138995213000,0.150000000000
26.146681080000,0.162000000000
26.154366947000,0.231000000000
26.162052814000,0.278000000000
26.169738681000,0.288000000000
26.177424548000,0.290000000000
26.185110415000,0.283000000000
26.192796282000,0.275000000000
26.200482149000,0.263000000000
26.208168016000,0.209000000000
26.215853883000,0.147000000000
26.223539750000,0.076000000000
26.231225617000,-0.049000000000
26.238911484000,-0.157000000000
26.246597351000,-0.224000000000
26.254283218000,-0.297000000000
26.261969085000,-0.332000000000
26.269654952000,-0.342000000000
26.277340819000,-0.384000000000
26.285026686000,-0.371000000000
26.292712553000,-0.310000000000
26.300398420000,-0.320000000000
26.308084339000,-0.361000000000
26.315769788000,-0.342000000000
26.323455237000,-0.305000000000
26.331140686000,-0.317000000000
26.338826135000,-0.305000000000
26.346511584000,-0.243000000000
26.354197033000,-0.256000000000
26.361882482000,-0.310000000000
26.369567931000,-0.278000000000
26.377253380000,-0.246000000000
26.384938829000,-0.278000000000
26.392624278000,-0.260000000000
26.400309727000,-0.228000000000
26.407995176000,-0.258000000000
26.415680625000,-0.270000000000
26.423366074000,-0.241000000000
26.431051523000,-0.231000000000
26.438736972000,-0.251000000000
26.446422421000,-0.241000000000
26.454107870000,-0.214000000000
26.461793319000,-0.236000000000
26.469478768000,-0.238000000000
26.477164217000,-0.204000000000
26.484849666000,-0.219000000000
26.492535115000,-0.263000000000
26.500220564000,-0.248000000000
26.507906013000,-0.204000000000
26.515591462000,-0.216000000000
26.523276911000,-0.236000000000
26.530962360000,-0.187000000000
26.538647809000,-0.123000000000
26.546333258000,-0.115000000000
26.554018707000,-0.152000000000
26.561704156000,-0.177000000000
26.569389605000,-0.179000000000
26.577075054000,-0.204000000000
26.584760503000,-0.221000000000
26.592445952000,-0.194000000000
26.600131401000,-0.167000000000
26.607816850000,-0.189000000000
26.615502299000,-0.209000000000
26.623187748000,-0.169000000000
26.630873197000,-0.172000000000
26.638558646000,-0.221000000000
26.646244095000,-0.206000000000
26.653929544000,-0.224000000000
26.661614993000,-0.204000000000
26.669300442000,0.142000000000
26.676985891000,0.763000000000
26.684671340000,1.285000000000
26.692356789000,1.181000000000
26.700042238000,0.152000000000
26.707727687000,-0.721000000000
26.715413136000,-0.482000000000
26.723098585000,-0.125000000000
26.730784034000,-0.258000000000
26.738469483000,-0.280000000000
26.746154932000,-0.177000000000
26.753840381000,-0.204000000000
26.761525830000,-0.214000000000
26.769211279000,-0.132000000000
26.776896728000,-0.086000000000
26.784582177000,-0.120000000000
26.792267626000,-0.125000000000
26.799953075000,-0.081000000000
26.807638524000,-0.071000000000
26.815323973000,-0.046000000000
26.823009422000,0.022000000000
26.830694871000,0.051000000000
26.838380320000,0.086000000000
26.846065769000,0.155000000000
26.853751218000,0.177000000000
26.861436667000,0.196000000000
26.869122164000,0.260000000000
26.876808031000,0.292000000000
26.884493898000,0.275000000000
26.892179765000,0.258000000000
26.899865632000,0.258000000000
26.907551499000,0.228000000000
26.915237366000,0.164000000000
26.922923233000,0.098000000000
26.930609100000,0.012000000000
26.938294967000,-0.073000000000
26.945980834000,-0.155000000000
26.953666701000,-0.258000000000
26.961352568000,-0.320000000000
26.969038435000,-0.349000000000
26.976724302000,-0.388000000000
26.984410169000,-0.376000000000
26.992096036000,-0.352000000000
26.999781903000,-0.374000000000
27.007467770000,-0.374000000000
27.015153637000,-0.337000000000
27.022839504000,-0.292000000000
27.030525371000,-0.292000000000
27.038211238000,-0.324000000000
27.045897105000,-0.305000000000
27.053582972000,-0.285000000000
27.061268839000,-0.310000000000
27.068954706000,-0.278000000000
27.076640573000,-0.219000000000
27.084326440000,-0.233000000000
27.092012307000,-0.288000000000
27.099698174000,-0.268000000000
27.107384041000,-0.246000000000
27.115069908000,-0.290000000000
27.122755775000,-0.251000000000
27.130441642000,-0.182000000000
27.138127509000,-0.243000000000
27.145813376000,-0.288000000000
27.153499243000,-0.236000000000
27.161185110000,-0.241000000000
27.168870977000,-0.260000000000
27.176556844000,-0.194000000000
27.184242711000,-0.211000000000
27.191928578000,-0.288000000000
27.199614445000,-0.231000000000
27.207300312000,-0.192000000000
27.214986179000,-0.236000000000
27.222672046000,-0.184000000000
27.230357913000,-0.120000000000
27.238043780000,-0.162000000000
27.245729647000,-0.196000000000
27.253415514000,-0.184000000000
27.261101381000,-0.189000000000
27.268787248000,-0.184000000000
27.276473115000,-0.179000000000
27.284158982000,-0.226000000000
27.291844849000,-0.260000000000
27.299530716000,-0.238000000000
27.307216583000,-0.194000000000
27.314902450000,-0.172000000000
27.322588317000,-0.206000000000
27.330274184000,-0.238000000000
27.337960051000,-0.248000000000
27.345645918000,-0.280000000000
27.353331785000,-0.145000000000
27.361017652000,0.322000000000
27.368703519000,0.942000000000
27.376389386000,1.371000000000
27.384075253000,0.942000000000
27.391761120000,-0.310000000000
27.399446987000,-0.836000000000
27.407132854000,-0.310000000000
27.414818721000,-0.076000000000
27.422504588000,-0.290000000000
27.430190511000,-0.263000000000
27.437875960000,-0.155000000000
27.445561409000,-0.204000000000
27.453246858000,-0.194000000000
27.460932307000,-0.128000000000
27.468617756000,-0.113000000000
27.476303205000,-0.125000000000
27.483988654000,-0.140000000000
27.491674103000,-0.103000000000
27.499359552000,-0.027000000000
27.507045001000,0.017000000000
27.514730450000,0.012000000000
27.522415899000,0.012000000000
27.530101348000,0.091000000000
27.537786797000,0.162000000000
27.545472246000,0.172000000000
27.553157695000,0.209000000000
27.560843144000,0.253000000000
27.568528593000,0.275000000000
27.576214042000,0.292000000000
27.583899491000,0.246000000000
27.591584940000,0.167000000000
27.599270389000,0.177000000000
27.606955838000,0.199000000000
27.614641287000,0.105000000000
27.622326736000,-0.064000000000
27.630012185000,-0.167000000000
27.637697634000,-0.182000000000
27.645383083000,-0.265000000000
27.653068532000,-0.369000000000
27.660753981000,-0.361000000000
27.668439430000,-0.344000000000
27.676124879000,-0.366000000000
27.683810328000,-0.361000000000
27.691495777000,-0.396000000000
27.699181226000,-0.396000000000
27.706866675000,-0.288000000000
27.714552124000,-0.280000000000
27.722237573000,-0.334000000000
27.729923022000,-0.275000000000
27.737608471000,-0.260000000000
27.745293920000,-0.310000000000
27.752979369000,-0.285000000000
27.760664818000,-0.251000000000
27.768350267000,-0.268000000000
27.776035716000,-0.268000000000
27.783721165000,-0.258000000000
27.791406614000,-0.251000000000
27.799092063000,-0.263000000000
27.806777512000,-0.290000000000
27.814462961000,-0.233000000000
27.822148410000,-0.209000000000
27.829833859000,-0.260000000000
27.837519308000,-0.258000000000
27.845204757000,-0.241000000000
27.852890206000,-0.204000000000
27.860575655000,-0.204000000000
27.868261104000,-0.283000000000
27.875946553000,-0.263000000000
27.883632002000,-0.196000000000
27.891317451000,-0.177000000000
27.899002900000,-0.184000000000
27.906688349000,-0.204000000000
27.914373798000,-0.155000000000
27.922059247000,-0.123000000000
27.929744696000,-0.174000000000
27.937430145000,-0.177000000000
27.945115594000,-0.164000000000
27.952801043000,-0.196000000000
27.960486492000,-0.209000000000
27.968171941000,-0.184000000000
27.975857390000,-0.145000000000
27.983542839000,-0.169000000000
27.991228336000,-0.221000000000
27.998914203000,-0.206000000000
28.006600070000,-0.184000000000
28.014285937000,-0.194000000000
28.021971804000,-0.182000000000
28.029657671000,-0.233000000000
28.037343538000,-0.288000000000
28.045029405000,0.083000000000
28.052715272000,0.777000000000
28.060401139000,1.304000000000
28.068087006000,1.304000000000
28.075772873000,0.347000000000
28.083458740000,-0.667000000000
28.091144607000,-0.487000000000
28.098830474000,-0.103000000000
28.106516341000,-0.300000000000
28.114202208000,-0.317000000000
28.121888075000,-0.105000000000
28.129573942000,-0.113000000000
28.137259809000,-0.192000000000
28.144945676000,-0.206000000000
28.152631543000,-0.164000000000
28.160317410000,-0.064000000000
28.168003277000,-0.061000000000
28.175689144000,-0.083000000000
28.183375011000,-0.017000000000
28.191060878000,-0.017000000000
28.198746745000,-0.007000000000
28.206432612000,0.068000000000
28.214118479000,0.086000000000
28.221804346000,0.123000000000
28.229490213000,0.179000000000
28.237176080000,0.184000000000
28.244861947000,0.270000000000
28.252547814000,0.356000000000
28.260233681000,0.290000000000
28.267919548000,0.243000000000
28.275605415000,0.265000000000
28.283291282000,0.263000000000
28.290977149000,0.228000000000
28.298663016000,0.093000000000
28.306348883000,-0.022000000000
28.314034750000,-0.007000000000
28.321720617000,-0.064000000000
28.329406484000,-0.219000000000
28.337092351000,-0.292000000000
28.344778218000,-0.347000000000
28.352464085000,-0.391000000000
28.360149952000,-0.312000000000
28.367835819000,-0.300000000000
28.375521686000,-0.401000000000
28.383207553000,-0.398000000000
28.390893420000,-0.317000000000
28.398579287000,-0.270000000000
28.406265154000,-0.238000000000
28.413951021000,-0.238000000000
28.421636888000,-0.305000000000
28.429322755000,-0.288000000000
28.437008622000,-0.228000000000
28.444694489000,-0.258000000000
28.452380356000,-0.263000000000
28.460066223000,-0.238000000000
28.467752090000,-0.226000000000
28.475437957000,-0.184000000000
28.483123824000,-0.164000000000
28.490809691000,-0.253000000000
28.498495558000,-0.268000000000
28.506181425000,-0.172000000000
28.513867292000,-0.211000000000
28.521553159000,-0.265000000000
28.529239026000,-0.169000000000
28.536924893000,-0.152000000000
28.544610760000,-0.246000000000
28.552296679000,-0.241000000000
28.559982546000,-0.150000000000
28.567668413000,-0.157000000000
28.575354280000,-0.209000000000
28.583040147000,-0.142000000000
28.590726014000,-0.113000000000
28.598411881000,-0.174000000000
28.606097748000,-0.145000000000
28.613783615000,-0.091000000000
28.621469482000,-0.174000000000
28.629155349000,-0.228000000000
28.636841216000,-0.172000000000
28.644527083000,-0.184000000000
28.652212950000,-0.224000000000
28.659898817000,-0.167000000000
28.667584684000,-0.105000000000
28.675270551000,-0.162000000000
28.682956418000,-0.224000000000
28.690642285000,-0.204000000000
28.698328152000,-0.238000000000
28.706014019000,-0.174000000000
28.713699886000,0.344000000000
28.721385753000,1.075000000000
28.729071620000,1.518000000000
28.736757487000,1.095000000000
28.744443354000,-0.179000000000
28.752129221000,-0.787000000000
28.759815088000,-0.334000000000
28.767500955000,-0.100000000000
28.775186822000,-0.228000000000
28.782872689000,-0.231000000000
28.790558556000,-0.137000000000
28.798244423000,-0.115000000000
28.805930290000,-0.204000000000
28.813616157000,-0.177000000000
28.821302024000,-0.100000000000
28.828987891000,-0.130000000000
28.836673758000,-0.066000000000
28.844359625000,0.046000000000
28.852045492000,0.044000000000
28.859731359000,-0.022000000000
28.867417226000,-0.012000000000
28.875103093000,0.115000000000
28.882788960000,0.179000000000
28.890474827000,0.152000000000
28.898160694000,0.199000000000
28.905846561000,0.285000000000
28.913532428000,0.275000000000
28.921218295000,0.297000000000
28.928904162000,0.376000000000
28.936590029000,0.322000000000
28.944275896000,0.206000000000
28.951961763000,0.201000000000
28.959647630000,0.219000000000
28.967333497000,0.100000000000
28.975019364000,-0.110000000000
28.982705231000,-0.174000000000
28.990391098000,-0.125000000000
28.998076965000,-0.243000000000
29.005762832000,-0.347000000000
29.013448699000,-0.268000000000
29.021134566000,-0.297000000000
29.028820433000,-0.366000000000
29.036506300000,-0.329000000000
29.044192167000,-0.356000000000
29.051878034000,-0.374000000000
29.059563901000,-0.302000000000
29.067249768000,-0.290000000000
29.074935635000,-0.288000000000
29.082621502000,-0.216000000000
29.090307369000,-0.209000000000
29.097993236000,-0.256000000000
29.105679103000,-0.251000000000
29.113365022000,-0.233000000000
29.121050471000,-0.260000000000
29.128735920000,-0.233000000000
29.136421369000,-0.177000000000
29.144106818000,-0.206000000000
29.151792267000,-0.275000000000
29.159477716000,-0.258000000000
29.167163165000,-0.145000000000
29.174848614000,-0.128000000000
29.182534063000,-0.224000000000
29.190219512000,-0.265000000000
29.197904961000,-0.228000000000
29.205590410000,-0.201000000000
29.213275859000,-0.251000000000
29.220961308000,-0.258000000000
29.228646757000,-0.157000000000
29.236332206000,-0.130000000000
29.244017655000,-0.182000000000
29.251703104000,-0.184000000000
29.259388553000,-0.150000000000
29.267074002000,-0.118000000000
29.274759451000,-0.167000000000
29.282444900000,-0.263000000000
29.290130349000,-0.228000000000
29.297815798000,-0.147000000000
29.305501247000,-0.162000000000
29.313186696000,-0.201000000000
