sample_name,ECG_HR,seg_drscc,mmw_HR_drscc,raw_CEP_HR,AMP_CEP_HR,BP_CEP_HR,Median_CEP_HR,Wavelet_CEP_HR,AMP->BP_CEP_HR,AMP->Median_CEP_HR,AMP->Wavelet_CEP_HR,BP->AMP_CEP_HR,BP->Median_CEP_HR,BP->Wavelet_CEP_HR,Median->AMP_CEP_HR,Median->BP_CEP_HR,Median->Wavelet_CEP_HR,Wavelet->AMP_CEP_HR,Wavelet->BP_CEP_HR,Wavelet->Median_CEP_HR,best_filter
sample_0,95.0,"[10.75, 40.75]",106.93359375000038,50.00000000000018,50.00000000000018,50.00000000000018,100.00000000000036,150.00000000000054,50.00000000000018,100.00000000000036,150.00000000000054,50.00000000000018,100.00000000000036,150.00000000000054,100.00000000000036,50.00000000000018,100.00000000000036,150.00000000000054,50.00000000000018,150.00000000000054,Median
sample_1,108.0,"[0.74, 30.74]",60.49804687500021,50.00000000000018,55.0000000000002,50.00000000000018,75.00000000000027,100.00000000000036,60.00000000000021,75.00000000000027,100.00000000000036,60.00000000000021,100.00000000000036,100.00000000000036,75.00000000000027,50.00000000000018,100.00000000000036,100.00000000000036,60.00000000000021,150.00000000000054,AMP->Wavelet
sample_2,104.0,"[19.54, 49.54]",143.2617187500005,50.00000000000018,50.00000000000018,50.00000000000018,100.00000000000036,150.00000000000054,50.00000000000018,100.00000000000036,150.00000000000054,55.0000000000002,100.00000000000036,150.00000000000054,100.00000000000036,50.00000000000018,100.00000000000036,150.00000000000054,50.00000000000018,150.00000000000054,Median
sample_3,94.0,"[11.90, 41.90]",62.10937500000023,60.00000000000021,60.00000000000021,60.00000000000021,75.00000000000027,100.00000000000036,60.00000000000021,75.00000000000027,100.00000000000036,60.00000000000021,100.00000000000036,100.00000000000036,75.00000000000027,50.00000000000018,150.00000000000054,100.00000000000036,50.00000000000018,150.00000000000054,AMP->Wavelet
sample_4,91.0,"[27.16, 57.16]",56.8359374999992,42.85714285714225,49.99999999999929,42.85714285714225,99.99999999999858,99.99999999999858,42.85714285714225,99.99999999999858,99.99999999999858,49.99999999999929,99.99999999999858,99.99999999999858,74.99999999999893,49.99999999999929,99.99999999999858,99.99999999999858,49.99999999999929,149.99999999999787,Median
sample_5,86.0,"[4.50, 34.50]",63.63916015617259,50.16666666660565,60.19999999992678,50.16666666660565,100.3333333332113,150.49999999981696,50.16666666660565,100.3333333332113,100.3333333332113,60.19999999992678,100.3333333332113,150.49999999981696,100.3333333332113,50.16666666660565,100.3333333332113,125.41666666651413,50.16666666660565,150.49999999981696,Median
sample_6,93.0,"[3.15, 33.15]",65.18554687500023,60.00000000000021,60.00000000000021,60.00000000000021,100.00000000000036,100.00000000000036,60.00000000000021,100.00000000000036,100.00000000000036,60.00000000000021,100.00000000000036,100.00000000000036,100.00000000000036,42.85714285714301,100.00000000000036,100.00000000000036,150.00000000000054,125.00000000000045,Median
sample_7,94.0,"[14.89, 44.89]",81.1523437500003,50.00000000000018,50.00000000000018,50.00000000000018,100.00000000000036,150.00000000000054,50.00000000000018,100.00000000000036,150.00000000000054,50.00000000000018,100.00000000000036,150.00000000000054,100.00000000000036,42.85714285714301,100.00000000000036,150.00000000000054,50.00000000000018,150.00000000000054,Median
sample_8,98.0,"[28.82, 58.82]",64.30664062499908,49.99999999999929,54.99999999999922,59.99999999999915,99.99999999999858,99.99999999999858,59.99999999999915,99.99999999999858,99.99999999999858,59.99999999999915,99.99999999999858,99.99999999999858,99.99999999999858,49.99999999999929,99.99999999999858,99.99999999999858,149.99999999999787,149.99999999999787,Median
sample_9,91.0,"[14.42, 44.42]",102.09960937500036,50.00000000000018,50.00000000000018,50.00000000000018,100.00000000000036,150.00000000000054,50.00000000000018,100.00000000000036,150.00000000000054,50.00000000000018,100.00000000000036,150.00000000000054,100.00000000000036,50.00000000000018,100.00000000000036,150.00000000000054,50.00000000000018,150.00000000000054,Median
sample_10,97.0,"[8.15, 38.15]",54.05273437500019,50.00000000000018,55.0000000000002,50.00000000000018,100.00000000000036,100.00000000000036,50.00000000000018,100.00000000000036,150.00000000000054,60.00000000000021,100.00000000000036,100.00000000000036,100.00000000000036,50.00000000000018,100.00000000000036,100.00000000000036,112.5000000000004,150.00000000000054,Median
sample_11,95.0,"[11.05, 41.05]",54.63867187500019,50.00000000000018,50.00000000000018,50.00000000000018,100.00000000000036,150.00000000000054,50.00000000000018,100.00000000000036,150.00000000000054,50.00000000000018,100.00000000000036,100.00000000000036,100.00000000000036,50.00000000000018,100.00000000000036,150.00000000000054,50.00000000000018,150.00000000000054,Median
sample_12,89.0,"[29.20, 59.20]",76.31835937499892,42.85714285714225,49.99999999999929,46.42857142857077,74.99999999999893,99.99999999999858,42.85714285714225,74.99999999999893,149.99999999999787,49.99999999999929,99.99999999999858,99.99999999999858,99.99999999999858,49.99999999999929,99.99999999999858,99.99999999999858,49.99999999999929,149.99999999999787,Wavelet
sample_13,111.0,"[25.78, 55.78]",117.04101562499834,59.99999999999915,59.99999999999915,49.99999999999929,99.99999999999858,99.99999999999858,54.99999999999922,99.99999999999858,99.99999999999858,59.99999999999915,99.99999999999858,99.99999999999858,99.99999999999858,42.85714285714225,99.99999999999858,124.99999999999822,49.99999999999929,149.99999999999787,Median
sample_14,106.0,"[22.34, 52.34]",55.07812500000019,50.00000000000018,50.00000000000018,50.00000000000018,100.00000000000036,100.00000000000036,50.00000000000018,100.00000000000036,150.00000000000054,50.00000000000018,75.00000000000027,150.00000000000054,100.00000000000036,42.85714285714301,100.00000000000036,100.00000000000036,50.00000000000018,150.00000000000054,Median
sample_15,95.0,"[11.23, 41.23]",99.75585937500036,50.00000000000018,50.00000000000018,50.00000000000018,100.00000000000036,100.00000000000036,50.00000000000018,100.00000000000036,150.00000000000054,50.00000000000018,100.00000000000036,100.00000000000036,100.00000000000036,50.00000000000018,100.00000000000036,100.00000000000036,125.00000000000045,150.00000000000054,Median
sample_16,97.0,"[8.19, 38.19]",145.7519531250005,50.00000000000018,50.00000000000018,50.00000000000018,100.00000000000036,150.00000000000054,50.00000000000018,100.00000000000036,150.00000000000054,50.00000000000018,100.00000000000036,150.00000000000054,100.00000000000036,50.00000000000018,100.00000000000036,125.00000000000045,50.00000000000018,150.00000000000054,Median
sample_17,108.0,"[26.38, 56.38]",92.70751953128328,49.833333333351234,49.833333333351234,49.833333333351234,99.66666666670247,99.66666666670247,49.833333333351234,99.66666666670247,99.66666666670247,59.80000000002148,99.66666666670247,99.66666666670247,99.66666666670247,49.833333333351234,149.5000000000537,99.66666666670247,49.833333333351234,149.5000000000537,Median
sample_18,99.0,"[6.19, 36.19]",95.65429687500034,50.00000000000018,55.0000000000002,50.00000000000018,100.00000000000036,125.00000000000045,50.00000000000018,100.00000000000036,150.00000000000054,60.00000000000021,100.00000000000036,100.00000000000036,100.00000000000036,50.00000000000018,100.00000000000036,100.00000000000036,50.00000000000018,150.00000000000054,Median
sample_19,93.0,"[7.57, 37.57]",73.68164062500027,46.428571428571594,50.00000000000018,50.00000000000018,100.00000000000036,100.00000000000036,50.00000000000018,100.00000000000036,150.00000000000054,50.00000000000018,75.00000000000027,100.00000000000036,100.00000000000036,42.85714285714301,100.00000000000036,100.00000000000036,50.00000000000018,150.00000000000054,Median
sample_20,98.0,"[3.62, 33.62]",77.19726562500028,60.00000000000021,60.00000000000021,60.00000000000021,100.00000000000036,150.00000000000054,60.00000000000021,100.00000000000036,150.00000000000054,60.00000000000021,100.00000000000036,150.00000000000054,125.00000000000045,42.85714285714301,100.00000000000036,150.00000000000054,50.00000000000018,150.00000000000054,Median
sample_21,95.0,"[28.56, 58.56]",88.91601562499874,49.99999999999929,49.99999999999929,49.99999999999929,99.99999999999858,99.99999999999858,49.99999999999929,99.99999999999858,99.99999999999858,59.99999999999915,99.99999999999858,99.99999999999858,99.99999999999858,49.99999999999929,99.99999999999858,99.99999999999858,149.99999999999787,149.99999999999787,Median
sample_22,92.0,"[0.29, 30.29]",77.78320312500028,50.00000000000018,60.00000000000021,55.0000000000002,100.00000000000036,125.00000000000045,60.00000000000021,100.00000000000036,150.00000000000054,60.00000000000021,87.50000000000031,150.00000000000054,100.00000000000036,42.85714285714301,100.00000000000036,150.00000000000054,50.00000000000018,150.00000000000054,BP->Median
sample_23,115.0,"[4.81, 34.81]",73.38867187500027,60.00000000000021,75.00000000000027,60.00000000000021,75.00000000000027,60.00000000000021,60.00000000000021,75.00000000000027,100.00000000000036,60.00000000000021,75.00000000000027,60.00000000000021,75.00000000000027,60.00000000000021,100.00000000000036,100.00000000000036,50.00000000000018,100.00000000000036,AMP->Wavelet
sample_24,95.0,"[3.27, 33.27]",73.97460937500027,50.00000000000018,60.00000000000021,50.00000000000018,100.00000000000036,125.00000000000045,50.00000000000018,100.00000000000036,100.00000000000036,60.00000000000021,100.00000000000036,100.00000000000036,100.00000000000036,50.00000000000018,100.00000000000036,125.00000000000045,50.00000000000018,150.00000000000054,Median
sample_25,93.0,"[3.03, 33.03]",54.63867187500019,50.00000000000018,50.00000000000018,50.00000000000018,100.00000000000036,100.00000000000036,50.00000000000018,100.00000000000036,100.00000000000036,50.00000000000018,100.00000000000036,100.00000000000036,100.00000000000036,42.85714285714301,100.00000000000036,125.00000000000045,50.00000000000018,150.00000000000054,Median
sample_26,80.0,"[21.44, 51.44]",76.90429687500028,50.00000000000018,50.00000000000018,50.00000000000018,100.00000000000036,150.00000000000054,50.00000000000018,100.00000000000036,100.00000000000036,60.00000000000021,100.00000000000036,150.00000000000054,100.00000000000036,50.00000000000018,100.00000000000036,150.00000000000054,50.00000000000018,150.00000000000054,BP->AMP
sample_27,95.0,"[0.00, 30.00]",70.75195312500026,60.00000000000021,60.00000000000021,60.00000000000021,87.50000000000031,100.00000000000036,55.0000000000002,87.50000000000031,150.00000000000054,60.00000000000021,75.00000000000027,100.00000000000036,87.50000000000031,50.00000000000018,100.00000000000036,100.00000000000036,150.00000000000054,150.00000000000054,Wavelet
sample_28,100.0,"[22.87, 52.87]",81.1523437500003,50.00000000000018,50.00000000000018,50.00000000000018,87.50000000000031,150.00000000000054,50.00000000000018,87.50000000000031,150.00000000000054,50.00000000000018,100.00000000000036,150.00000000000054,100.00000000000036,50.00000000000018,100.00000000000036,125.00000000000045,50.00000000000018,150.00000000000054,Median->AMP
sample_29,92.0,"[0.81, 30.81]",50.97656250000018,50.00000000000018,50.00000000000018,50.00000000000018,100.00000000000036,100.00000000000036,50.00000000000018,100.00000000000036,125.00000000000045,50.00000000000018,100.00000000000036,100.00000000000036,100.00000000000036,50.00000000000018,100.00000000000036,100.00000000000036,150.00000000000054,150.00000000000054,Median
sample_30,100.0,"[24.96, 54.96]",103.56445312499854,49.99999999999929,49.99999999999929,49.99999999999929,99.99999999999858,149.99999999999787,49.99999999999929,99.99999999999858,149.99999999999787,49.99999999999929,99.99999999999858,99.99999999999858,99.99999999999858,42.85714285714225,99.99999999999858,149.99999999999787,49.99999999999929,149.99999999999787,Median
sample_31,96.0,"[17.15, 47.15]",60.64453125000021,50.00000000000018,50.00000000000018,50.00000000000018,100.00000000000036,150.00000000000054,50.00000000000018,100.00000000000036,100.00000000000036,50.00000000000018,100.00000000000036,150.00000000000054,100.00000000000036,50.00000000000018,100.00000000000036,150.00000000000054,50.00000000000018,150.00000000000054,Median
sample_32,96.0,"[13.20, 43.20]",53.027343750000185,50.00000000000018,50.00000000000018,50.00000000000018,87.50000000000031,150.00000000000054,50.00000000000018,87.50000000000031,150.00000000000054,50.00000000000018,100.00000000000036,150.00000000000054,75.00000000000027,42.85714285714301,100.00000000000036,150.00000000000054,50.00000000000018,150.00000000000054,Median->Wavelet
sample_33,95.0,"[24.43, 54.43]",71.63085937500026,60.00000000000021,60.00000000000021,60.00000000000021,100.00000000000036,150.00000000000054,60.00000000000021,100.00000000000036,150.00000000000054,60.00000000000021,75.00000000000027,150.00000000000054,75.00000000000027,50.00000000000018,100.00000000000036,150.00000000000054,50.00000000000018,150.00000000000054,Median
sample_34,94.0,"[24.35, 54.35]",74.36816406241087,42.999999999948464,55.1833333332672,50.166666666606545,75.24999999990982,150.49999999981964,50.166666666606545,75.24999999990982,150.49999999981964,60.199999999927854,87.79166666656145,150.49999999981964,75.24999999990982,42.999999999948464,100.33333333321309,150.49999999981964,50.166666666606545,150.49999999981964,BP->Median
sample_35,97.0,"[29.70, 59.70]",103.12499999999854,49.99999999999929,49.99999999999929,49.99999999999929,99.99999999999858,99.99999999999858,49.99999999999929,99.99999999999858,149.99999999999787,49.99999999999929,99.99999999999858,99.99999999999858,99.99999999999858,49.99999999999929,99.99999999999858,149.99999999999787,49.99999999999929,149.99999999999787,Median
sample_36,99.0,"[5.94, 35.94]",83.7890625000003,42.85714285714301,42.85714285714301,42.85714285714301,87.50000000000031,150.00000000000054,42.85714285714301,87.50000000000031,150.00000000000054,42.85714285714301,100.00000000000036,150.00000000000054,87.50000000000031,55.0000000000002,100.00000000000036,150.00000000000054,150.00000000000054,150.00000000000054,Median->Wavelet
sample_37,99.0,"[11.24, 41.24]",68.55468750000024,50.00000000000018,50.00000000000018,50.00000000000018,100.00000000000036,100.00000000000036,50.00000000000018,100.00000000000036,100.00000000000036,50.00000000000018,100.00000000000036,100.00000000000036,100.00000000000036,42.85714285714301,100.00000000000036,100.00000000000036,60.00000000000021,150.00000000000054,Median
sample_38,107.0,"[17.83, 47.83]",81.12890624990132,50.16666666660565,50.16666666660565,55.18333333326622,100.3333333332113,150.49999999981696,55.18333333326622,100.3333333332113,150.49999999981696,55.18333333326622,100.3333333332113,150.49999999981696,87.79166666655989,42.9999999999477,100.3333333332113,150.49999999981696,50.16666666660565,150.49999999981696,Median
sample_39,105.0,"[16.24, 46.24]",55.8105468750002,50.00000000000018,50.00000000000018,50.00000000000018,100.00000000000036,100.00000000000036,50.00000000000018,100.00000000000036,125.00000000000045,50.00000000000018,100.00000000000036,100.00000000000036,100.00000000000036,55.0000000000002,100.00000000000036,100.00000000000036,150.00000000000054,100.00000000000036,Median
sample_40,86.0,"[1.97, 31.97]",85.40039062500031,50.00000000000018,50.00000000000018,50.00000000000018,100.00000000000036,150.00000000000054,50.00000000000018,100.00000000000036,150.00000000000054,50.00000000000018,100.00000000000036,150.00000000000054,100.00000000000036,50.00000000000018,100.00000000000036,100.00000000000036,50.00000000000018,150.00000000000054,Median
sample_41,95.0,"[25.60, 55.60]",83.20312499999882,49.99999999999929,49.99999999999929,54.99999999999922,99.99999999999858,99.99999999999858,54.99999999999922,99.99999999999858,99.99999999999858,59.99999999999915,99.99999999999858,99.99999999999858,99.99999999999858,49.99999999999929,99.99999999999858,99.99999999999858,49.99999999999929,149.99999999999787,Median
sample_42,101.0,"[15.11, 45.11]",99.46289062500036,50.00000000000018,50.00000000000018,50.00000000000018,100.00000000000036,150.00000000000054,50.00000000000018,100.00000000000036,150.00000000000054,50.00000000000018,100.00000000000036,150.00000000000054,100.00000000000036,50.00000000000018,100.00000000000036,150.00000000000054,50.00000000000018,150.00000000000054,Median
sample_43,105.0,"[20.73, 50.73]",98.87695312500034,50.00000000000018,50.00000000000018,50.00000000000018,100.00000000000036,100.00000000000036,50.00000000000018,100.00000000000036,150.00000000000054,50.00000000000018,100.00000000000036,100.00000000000036,100.00000000000036,50.00000000000018,100.00000000000036,100.00000000000036,50.00000000000018,100.00000000000036,Median
sample_44,101.0,"[9.98, 39.98]",51.708984375000185,50.00000000000018,50.00000000000018,50.00000000000018,100.00000000000036,100.00000000000036,50.00000000000018,100.00000000000036,150.00000000000054,50.00000000000018,100.00000000000036,125.00000000000045,100.00000000000036,50.00000000000018,100.00000000000036,100.00000000000036,50.00000000000018,150.00000000000054,Median
sample_45,93.0,"[24.05, 54.05]",82.74560546865084,50.166666666606545,50.166666666606545,50.166666666606545,87.79166666656145,150.49999999981964,50.166666666606545,87.79166666656145,150.49999999981964,60.199999999927854,100.33333333321309,100.33333333321309,100.33333333321309,46.58333333327751,100.33333333321309,150.49999999981964,50.166666666606545,150.49999999981964,Median
sample_46,98.0,"[2.28, 32.28]",114.5507812500004,60.00000000000021,60.00000000000021,60.00000000000021,100.00000000000036,150.00000000000054,60.00000000000021,100.00000000000036,150.00000000000054,60.00000000000021,100.00000000000036,125.00000000000045,100.00000000000036,50.00000000000018,100.00000000000036,150.00000000000054,50.00000000000018,150.00000000000054,Median
sample_47,95.0,"[12.11, 42.11]",81.4453125000003,50.00000000000018,60.00000000000021,50.00000000000018,100.00000000000036,150.00000000000054,50.00000000000018,100.00000000000036,150.00000000000054,60.00000000000021,100.00000000000036,150.00000000000054,100.00000000000036,50.00000000000018,100.00000000000036,100.00000000000036,50.00000000000018,150.00000000000054,Median
sample_48,98.0,"[10.46, 40.46]",96.09375000000034,50.00000000000018,50.00000000000018,50.00000000000018,100.00000000000036,125.00000000000045,50.00000000000018,100.00000000000036,100.00000000000036,50.00000000000018,100.00000000000036,150.00000000000054,100.00000000000036,50.00000000000018,100.00000000000036,150.00000000000054,50.00000000000018,150.00000000000054,Median
sample_49,106.0,"[2.87, 32.87]",55.07812500000019,50.00000000000018,60.00000000000021,60.00000000000021,100.00000000000036,150.00000000000054,60.00000000000021,100.00000000000036,150.00000000000054,60.00000000000021,100.00000000000036,150.00000000000054,100.00000000000036,42.85714285714301,100.00000000000036,150.00000000000054,150.00000000000054,150.00000000000054,Median
sample_50,91.0,"[0.52, 30.52]",61.37695312500021,60.00000000000021,60.00000000000021,60.00000000000021,100.00000000000036,150.00000000000054,60.00000000000021,100.00000000000036,100.00000000000036,60.00000000000021,100.00000000000036,150.00000000000054,100.00000000000036,50.00000000000018,100.00000000000036,150.00000000000054,50.00000000000018,150.00000000000054,Median
sample_51,86.0,"[11.03, 41.03]",104.44335937500036,50.00000000000018,50.00000000000018,50.00000000000018,100.00000000000036,150.00000000000054,50.00000000000018,100.00000000000036,150.00000000000054,50.00000000000018,100.00000000000036,150.00000000000054,100.00000000000036,60.00000000000021,100.00000000000036,100.00000000000036,50.00000000000018,150.00000000000054,Median
sample_52,103.0,"[1.04, 31.04]",54.96777343743314,60.19999999992678,60.19999999992678,50.16666666660565,100.3333333332113,150.49999999981696,50.16666666660565,100.3333333332113,100.3333333332113,55.18333333326622,100.3333333332113,150.49999999981696,100.3333333332113,50.16666666660565,100.3333333332113,125.41666666651413,50.16666666660565,150.49999999981696,Median
sample_53,103.0,"[5.77, 35.77]",67.08984375000024,50.00000000000018,50.00000000000018,50.00000000000018,100.00000000000036,100.00000000000036,50.00000000000018,100.00000000000036,100.00000000000036,55.0000000000002,100.00000000000036,100.00000000000036,100.00000000000036,50.00000000000018,100.00000000000036,100.00000000000036,150.00000000000054,150.00000000000054,Median
sample_54,92.0,"[2.78, 32.78]",77.49023437500028,50.00000000000018,50.00000000000018,50.00000000000018,100.00000000000036,125.00000000000045,50.00000000000018,100.00000000000036,150.00000000000054,50.00000000000018,100.00000000000036,100.00000000000036,100.00000000000036,50.00000000000018,100.00000000000036,150.00000000000054,150.00000000000054,150.00000000000054,Median
sample_55,90.0,"[11.51, 41.51]",113.0859375000004,50.00000000000018,50.00000000000018,50.00000000000018,100.00000000000036,150.00000000000054,50.00000000000018,100.00000000000036,100.00000000000036,50.00000000000018,100.00000000000036,150.00000000000054,100.00000000000036,42.85714285714301,100.00000000000036,150.00000000000054,50.00000000000018,100.00000000000036,Median
sample_56,85.0,"[5.92, 35.92]",65.33203125000023,60.00000000000021,60.00000000000021,60.00000000000021,100.00000000000036,150.00000000000054,60.00000000000021,100.00000000000036,125.00000000000045,60.00000000000021,100.00000000000036,100.00000000000036,100.00000000000036,50.00000000000018,100.00000000000036,150.00000000000054,50.00000000000018,150.00000000000054,Median
sample_57,91.0,"[4.26, 34.26]",52.148437500000185,49.99999999999996,49.99999999999996,49.99999999999996,99.99999999999991,99.99999999999991,49.99999999999996,99.99999999999991,99.99999999999991,49.99999999999996,99.99999999999991,149.99999999999986,99.99999999999991,49.99999999999996,99.99999999999991,99.99999999999991,49.99999999999996,149.99999999999986,Median
sample_58,94.0,"[6.35, 36.35]",83.7890625000003,50.00000000000018,60.00000000000021,50.00000000000018,100.00000000000036,100.00000000000036,55.0000000000002,100.00000000000036,150.00000000000054,60.00000000000021,87.50000000000031,100.00000000000036,100.00000000000036,50.00000000000018,100.00000000000036,150.00000000000054,150.00000000000054,150.00000000000054,Median
sample_59,101.0,"[13.57, 43.57]",79.24804687500028,50.00000000000018,55.0000000000002,50.00000000000018,100.00000000000036,150.00000000000054,50.00000000000018,100.00000000000036,150.00000000000054,50.00000000000018,100.00000000000036,150.00000000000054,87.50000000000031,46.428571428571594,100.00000000000036,150.00000000000054,50.00000000000018,150.00000000000054,Median
sample_60,87.0,"[2.40, 32.40]",67.23632812500024,50.00000000000018,55.0000000000002,50.00000000000018,75.00000000000027,150.00000000000054,60.00000000000021,75.00000000000027,150.00000000000054,60.00000000000021,100.00000000000036,100.00000000000036,100.00000000000036,42.85714285714301,100.00000000000036,150.00000000000054,50.00000000000018,150.00000000000054,Median
sample_61,95.0,"[19.51, 49.51]",119.38476562500044,55.0000000000002,60.00000000000021,60.00000000000021,87.50000000000031,150.00000000000054,60.00000000000021,87.50000000000031,150.00000000000054,60.00000000000021,100.00000000000036,150.00000000000054,87.50000000000031,50.00000000000018,100.00000000000036,100.00000000000036,50.00000000000018,150.00000000000054,Median->Wavelet
sample_62,107.0,"[13.68, 43.68]",53.75976562500019,50.00000000000018,55.0000000000002,50.00000000000018,100.00000000000036,100.00000000000036,50.00000000000018,100.00000000000036,125.00000000000045,55.0000000000002,100.00000000000036,100.00000000000036,100.00000000000036,50.00000000000018,100.00000000000036,100.00000000000036,50.00000000000018,150.00000000000054,Median
sample_63,100.0,"[0.03, 30.03]",57.275390625000206,60.00000000000021,60.00000000000021,60.00000000000021,100.00000000000036,100.00000000000036,60.00000000000021,100.00000000000036,150.00000000000054,60.00000000000021,100.00000000000036,150.00000000000054,100.00000000000036,50.00000000000018,100.00000000000036,150.00000000000054,50.00000000000018,150.00000000000054,Median
sample_64,91.0,"[2.06, 32.06]",72.50976562500026,50.00000000000018,50.00000000000018,50.00000000000018,100.00000000000036,100.00000000000036,50.00000000000018,100.00000000000036,150.00000000000054,50.00000000000018,100.00000000000036,150.00000000000054,100.00000000000036,50.00000000000018,100.00000000000036,100.00000000000036,50.00000000000018,150.00000000000054,Median
sample_65,80.0,"[17.91, 47.91]",74.70703125000027,50.00000000000018,50.00000000000018,50.00000000000018,100.00000000000036,100.00000000000036,50.00000000000018,100.00000000000036,150.00000000000054,55.0000000000002,100.00000000000036,100.00000000000036,87.50000000000031,42.85714285714301,150.00000000000054,100.00000000000036,50.00000000000018,150.00000000000054,Median->AMP
sample_66,98.0,"[4.73, 34.73]",58.886718750000206,50.00000000000018,50.00000000000018,50.00000000000018,100.00000000000036,150.00000000000054,50.00000000000018,100.00000000000036,100.00000000000036,50.00000000000018,100.00000000000036,150.00000000000054,100.00000000000036,50.00000000000018,100.00000000000036,150.00000000000054,50.00000000000018,150.00000000000054,Median
sample_67,104.0,"[22.04, 52.04]",66.94335937500024,60.00000000000021,60.00000000000021,60.00000000000021,100.00000000000036,100.00000000000036,60.00000000000021,100.00000000000036,100.00000000000036,60.00000000000021,100.00000000000036,100.00000000000036,100.00000000000036,50.00000000000018,100.00000000000036,100.00000000000036,50.00000000000018,150.00000000000054,Median
sample_68,104.0,"[2.07, 32.07]",69.72656250000026,50.00000000000018,50.00000000000018,50.00000000000018,100.00000000000036,100.00000000000036,50.00000000000018,100.00000000000036,100.00000000000036,50.00000000000018,100.00000000000036,100.00000000000036,100.00000000000036,50.00000000000018,100.00000000000036,100.00000000000036,50.00000000000018,150.00000000000054,Median
sample_69,97.0,"[14.72, 44.72]",80.41992187500028,50.00000000000018,50.00000000000018,50.00000000000018,100.00000000000036,100.00000000000036,50.00000000000018,100.00000000000036,150.00000000000054,50.00000000000018,100.00000000000036,100.00000000000036,100.00000000000036,60.00000000000021,100.00000000000036,100.00000000000036,50.00000000000018,150.00000000000054,Median
sample_70,115.0,"[23.49, 53.49]",58.593750000000206,50.00000000000018,60.00000000000021,50.00000000000018,100.00000000000036,100.00000000000036,50.00000000000018,100.00000000000036,150.00000000000054,60.00000000000021,100.00000000000036,75.00000000000027,100.00000000000036,60.00000000000021,100.00000000000036,100.00000000000036,67.50000000000024,100.00000000000036,Median
sample_71,100.0,"[0.48, 30.48]",99.31640625000034,50.00000000000018,50.00000000000018,50.00000000000018,100.00000000000036,100.00000000000036,50.00000000000018,100.00000000000036,100.00000000000036,50.00000000000018,100.00000000000036,100.00000000000036,100.00000000000036,50.00000000000018,100.00000000000036,100.00000000000036,150.00000000000054,150.00000000000054,Median
sample_72,95.0,"[7.62, 37.62]",75.3969726561583,50.16666666660565,50.16666666660565,50.16666666660565,100.3333333332113,100.3333333332113,50.16666666660565,100.3333333332113,150.49999999981696,50.16666666660565,100.3333333332113,100.3333333332113,100.3333333332113,50.16666666660565,100.3333333332113,100.3333333332113,150.49999999981696,150.49999999981696,Median
sample_73,96.0,"[2.89, 32.89]",62.25585937500023,50.00000000000018,50.00000000000018,50.00000000000018,100.00000000000036,100.00000000000036,50.00000000000018,100.00000000000036,150.00000000000054,50.00000000000018,100.00000000000036,100.00000000000036,100.00000000000036,42.85714285714301,100.00000000000036,150.00000000000054,112.5000000000004,150.00000000000054,Median
sample_74,99.0,"[28.68, 58.68]",73.09570312499896,49.99999999999929,49.99999999999929,49.99999999999929,99.99999999999858,99.99999999999858,49.99999999999929,99.99999999999858,99.99999999999858,54.99999999999922,99.99999999999858,99.99999999999858,74.99999999999893,49.99999999999929,99.99999999999858,99.99999999999858,49.99999999999929,149.99999999999787,Median
sample_75,96.0,"[3.54, 33.54]",68.11523437500024,60.00000000000021,60.00000000000021,60.00000000000021,100.00000000000036,100.00000000000036,60.00000000000021,100.00000000000036,100.00000000000036,60.00000000000021,100.00000000000036,150.00000000000054,100.00000000000036,60.00000000000021,100.00000000000036,150.00000000000054,150.00000000000054,150.00000000000054,Median
sample_76,104.0,"[13.95, 43.95]",78.22265625000028,50.00000000000018,60.00000000000021,50.00000000000018,100.00000000000036,75.00000000000027,50.00000000000018,100.00000000000036,125.00000000000045,60.00000000000021,100.00000000000036,100.00000000000036,100.00000000000036,50.00000000000018,100.00000000000036,100.00000000000036,55.0000000000002,150.00000000000054,Median
sample_77,109.0,"[4.33, 34.33]",131.68945312500048,49.99999999999996,49.99999999999996,49.99999999999996,99.99999999999991,99.99999999999991,49.99999999999996,99.99999999999991,99.99999999999991,59.99999999999995,99.99999999999991,99.99999999999991,99.99999999999991,49.99999999999996,99.99999999999991,99.99999999999991,49.99999999999996,149.99999999999986,Median
sample_78,92.0,"[22.70, 52.70]",59.17968750000021,55.0000000000002,60.00000000000021,55.0000000000002,100.00000000000036,100.00000000000036,60.00000000000021,100.00000000000036,150.00000000000054,60.00000000000021,100.00000000000036,150.00000000000054,100.00000000000036,50.00000000000018,100.00000000000036,150.00000000000054,50.00000000000018,150.00000000000054,Median
sample_79,84.0,"[24.21, 54.21]",60.35156249999915,49.99999999999929,49.99999999999929,49.99999999999929,74.99999999999893,149.99999999999787,49.99999999999929,74.99999999999893,149.99999999999787,49.99999999999929,74.99999999999893,99.99999999999858,74.99999999999893,49.99999999999929,99.99999999999858,149.99999999999787,49.99999999999929,149.99999999999787,Median
